-1072
768
1184
-96
-352
-480
-1104
-1056
-128
1168
-304
464
432
736
-480
784
-608
816
128
-1392
-896
-1008
-1008
-656
-1152
224
-1216
-1360
-64
-224
384
-128
704
1648
192
816
-304
256
1200
1184
1760
32
-1392
320
-464
-1184
64
320
672
-976
-1616
-432
16
624
64
-1152
480
-48
784
-368
304
-656
-1264
368
480
-1168
-1376
-384
-496
1360
592
608
-64
896
-880
-304
1152
-896
592
1040
912
848
464
1568
1776
-1040
1216
1712
560
-208
-16
-80
1456
-1888
-256
768
-576
-720
-208
848
32
320
768
1872
-144
16
544
-464
688
1568
1360
-1008
704
1200
-480
416
-240
-304
-320
-816
576
592
-960
-512
-352
-1248
736
-64
-32
-416
-1104
240
1216
304
240
-1072
-320
-112
-1008
-400
-144
432
96
-848
-1472
-288
-80
1008
-608
-1600
816
-1120
-224
560
384
128
384
0
1360
1200
544
1200
224
-1168
-16
416
208
336
992
-512
-512
688
-1920
-288
-864
-208
-176
-1248
-160
-608
-832
112
-144
784
1232
448
1040
64
-208
176
1104
944
112
400
1216
-208
80
-80
-960
-1056
208
-272
-912
-448
880
-944
-640
288
-528
-1008
-1792
-352
-1536
0
288
96
288
-320
224
352
1072
240
832
1440
400
800
-96
-496
608
400
1056
-736
1184
-1424
-448
-272
-640
-256
-752
-192
-192
208
576
-720
-240
336
-224
240
592
336
1872
32
256
832
-464
-320
-32
-1408
1088
992
512
-608
-800
-384
-48
240
1632
480
-1024
1376
640
-480
-560
-944
-384
1328
800
176
288
-784
-960
-1136
384
336
976
2000
16
-336
-1536
608
176
-64
240
464
1264
320
-208
-1008
-1088
-400
272
1328
1152
-416
-48
1136
-256
-528
128
48
-608
576
-960
-464
-80
-704
448
1120
608
1792
1104
-976
-128
-1136
-752
-496
864
-624
0
-144
368
480
-480
-384
-816
-464
-336
608
-1472
144
-64
864
112
816
64
-16
368
-1040
-1904
-352
-1360
-1568
-1312
1264
-48
-976
-912
16
-1232
-560
-912
-320
32
-1232
-144
-912
-400
-400
224
400
944
-1584
-1296
1600
1120
432
432
-752
-672
-960
-752
-496
432
640
1920
944
-1056
-416
432
-1184
-128
656
1088
1104
64
1776
800
-432
784
368
0
704
400
-192
-496
-944
-1056
80
1392
144
432
64
-336
-336
-768
-960
-448
-64
1136
-320
192
-80
-1408
144
-80
-304
528
-128
1168
912
32
496
-1088
-304
-576
512
224
-320
-1648
-704
-16
-480
-1488
-736
-64
976
-880
-480
704
-288
-528
-192
-1104
96
384
-752
0
96
-560
192
-1552
304
-1216
-1168
1072
224
-960
-80
-544
-800
-272
832
64
-1024
-1584
-144
-1440
1136
1968
800
-96
304
1728
416
800
64
-160
448
992
-800
-224
80
1168
1248
-176
-896
-1056
-608
-1296
-608
-592
48
-288
352
-1072
1024
-416
-1248
-1328
-256
-1040
32
480
1008
272
96
16
752
208
576
1264
160
-880
784
336
560
-240
480
912
560
-96
304
-16
-704
896
800
208
-32
-384
48
368
-224
496
-1008
880
1392
688
-720
320
-416
128
-640
-224
896
-336
-400
672
240
272
-1904
-1888
512
-320
-64
112
320
-112
-48
-1728
-752
-1232
-608
80
-1024
352
-800
-1984
-752
-832
-1200
-656
464
-432
-944
-144
-1440
-960
-368
-512
-400
544
-736
1168
-128
-64
-1984
-656
-432
-304
-1248
-576
-928
-368
-448
688
16
736
-640
48
32
-784
880
560
-528
-928
1296
256
1488
2000
-192
1024
1056
368
-384
560
-1632
304
800
-1760
-256
-512
16
1408
1328
576
64
1104
-320
-128
-480
560
1808
-304
-288
192
-128
16
1312
-1872
-1120
816
2000
-544
-416
-304
240
576
-624
-400
1088
-1200
-240
544
-192
-672
-832
-688
-48
1440
368
-1040
-1648
1008
16
-288
-1504
32
640
176
-368
240
640
208
752
240
384
464
1680
576
944
1232
96
-1472
-656
-432
-1536
0
1520
-80
304
-1696
-1152
96
-80
-1456
-288
-560
-1328
-656
-1888
-2000
416
-368
1136
720
80
1808
1632
1824
1136
1552
1312
224
-272
-2048
-1840
-752
-1440
-784
-720
-544
736
1776
448
176
928
-144
-320
592
528
832
480
-1312
-848
208
-992
-464
128
-736
-80
560
1616
1776
-784
-176
592
672
-848
-592
416
736
1456
448
656
-1056
-800
-1104
208
-928
-512
-1344
1056
-384
1152
-544
-336
-1504
-608
576
416
-896
16
560
16
-992
64
-304
704
112
1344
144
-336
-288
1152
1264
-1120
-336
1120
-640
-192
912
592
-160
176
816
-1552
-288
1024
-688
416
784
160
544
-240
-224
1408
1648
976
144
256
1328
-960
-752
-624
1216
16
-1680
-1664
608
608
-1344
-864
-784
-1728
128
-96
-320
112
-320
624
32
-1056
1568
48
1952
1024
-512
720
416
-912
544
1328
2000
608
-1008
-1184
-976
288
-624
128
1872
144
256
848
-80
720
736
576
-96
256
96
-1056
-1408
-1376
-944
-176
-368
-48
-320
-1104
-1168
-16
256
-736
-336
224
1440
-1264
-448
-864
-32
288
528
-448
-352
-16
-1424
-1664
-1008
-1280
-1056
592
1376
944
976
-992
256
1200
336
-1328
-32
-1488
544
624
16
-48
416
1808
656
-1424
-304
224
-960
-48
96
-384
192
1520
176
336
-64
-1792
-992
-1712
-64
656
-352
-816
480
1792
672
-576
-928
-16
-336
0
1216
1392
432
1504
784
912
608
-352
-464
-544
-448
-496
-896
416
-80
-176
-64
672
1440
-576
384
1504
0
608
224
240
-256
-784
-560
-1760
-16
-176
-368
-496
-1824
-1040
-1536
-1040
640
1216
784
-240
-144
-1520
16
-1184
-1056
-80
368
-640
-416
96
-80
-1120
384
1152
-16
-304
-464
-560
-576
-1152
96
-1456
48
224
-720
1040
-800
192
352
-608
304
-1296
-752
-1792
-1792
16
448
1632
1520
384
-720
-320
-80
896
896
336
1856
1232
1072
160
-1152
752
-416
-992
-320
-544
-176
480
432
1152
736
272
608
784
-96
1840
-496
-528
1584
1104
1488
464
576
1184
1184
-528
-832
640
-576
0
1216
1024
432
-32
-128
-1360
0
112
352
-848
-704
-912
-880
-240
64
-64
-240
944
608
384
96
128
768
-32
208
0
-1248
-160
-400
-688
384
848
144
1152
-336
-96
-288
320
-144
-1088
-1440
1200
-1232
-528
320
64
-448
224
352
1264
48
-1424
416
432
752
-336
-1728
-1168
400
-1280
-1360
1152
-272
-528
448
512
592
112
352
1760
976
768
-640
-560
-384
-368
-464
-624
304
-128
1888
-304
-256
608
-960
1920
272
768
-224
-912
-672
-1664
1536
1664
1232
-400
720
-480
-400
-1904
96
304
1344
-944
-816
-128
-208
-672
-944
976
352
496
448
144
128
432
-752
-192
-352
-1024
-1040
-208
-592
64
-1744
1280
1088
1536
1104
208
-432
-1216
-1696
-1760
-1024
-464
-16
-1024
544
864
352
560
16
-1312
-608
-512
1040
-320
-1200
96
384
-624
-1216
-928
-224
880
688
-128
-304
-112
-256
-1344
-640
224
496
-1184
-144
80
608
144
48
-192
-176
-1024
-848
-672
96
1152
256
368
448
672
1808
672
-256
1344
800
-800
-304
-704
-48
1584
816
-656
-688
1872
928
-432
368
-896
-416
-928
-1104
-528
912
1376
688
-528
-448
432
640
-1456
-848
768
1232
48
-960
-1792
-784
-1168
1024
-288
-144
-1408
-144
-912
272
304
-368
-336
208
432
-96
-880
-32
-368
-592
-1200
-368
304
-832
-288
352
-656
-864
-1120
912
-304
320
-176
-1424
384
1136
272
-48
-1056
-784
832
-112
560
752
16
-144
-224
208
-1536
-336
768
416
1792
-288
-1728
-1536
1376
208
-272
528
336
512
272
-224
-208
688
928
1664
1968
432
-640
-1232
-128
1840
1840
-416
1408
304
-1424
-1184
480
752
-864
-208
-336
560
-80
-256
-1120
-560
896
720
320
1248
1568
688
-768
544
720
-1584
-416
-576
-272
-1760
-1392
-736
192
1184
-256
-336
-1440
448
-256
1040
-1008
-1888
-1680
-496
432
1120
16
304
752
256
128
1376
-32
-528
-624
208
-912
336
1904
-864
-768
-208
480
304
0
-432
128
496
288
256
1472
1168
-624
-1072
-224
944
944
672
-912
-176
368
-496
-912
368
432
-624
-1776
-1232
-848
-1152
-640
400
-672
-704
528
-368
-1504
-288
-240
-624
1248
96
-608
-704
176
-528
624
192
-1744
-592
-848
-640
800
-80
720
720
640
-1040
0
32
64
-1280
-1056
240
-464
-1776
64
-1568
-768
-32
-32
0
880
608
-320
240
416
-432
-1424
-1808
272
-480
1856
1680
576
-784
-64
1216
1488
496
0
-1936
-144
-1344
-1056
-1264
-2032
-1296
400
-192
992
512
-1968
-112
1648
288
1968
880
-528
656
1552
720
-208
0
1184
752
-1392
0
2000
240
-1728
608
-560
-912
-704
1744
1136
944
-384
32
64
224
432
736
976
-512
-80
-720
-1248
1328
1360
-432
640
496
1312
848
752
112
640
1104
-720
64
96
-1808
-1664
-1248
-1824
-1632
-272
-1808
-1584
-880
240
-48
-1440
512
704
-48
32
-416
16
144
-1984
-128
192
1616
96
-816
384
432
720
944
704
-576
960
-160
-1744
-1424
-416
-1424
144
-288
1120
640
816
-512
528
672
-1552
-1552
-848
1600
688
1952
624
-64
288
-496
-1136
-240
976
80
1056
-176
1040
128
256
-560
-576
-1184
-1008
-1968
-1552
-64
320
880
-1088
1856
1920
16
1200
-272
448
-480
192
656
192
784
-48
-784
-1872
-576
704
1008
720
-784
-832
-1312
-1344
-80
256
-112
-80
-992
-1248
-768
-960
368
-448
-480
368
48
-256
-1200
576
-1216
96
128
560
-672
-544
-304
944
1376
624
-688
-48
-800
80
1088
368
1104
1552
1648
-928
-672
32
256
-640
-336
-1104
-2000
-240
16
-1648
-608
544
-384
160
1856
640
864
80
-1680
272
-1104
-960
-224
-112
-320
-672
-1744
336
624
320
-352
320
-688
-1168
-1792
-1728
-304
-1168
800
1072
-576
-896
1024
1408
-1952
-1744
-1200
-672
896
640
512
96
-1168
-224
176
-80
1632
1152
-752
-336
176
1088
704
-16
-816
-848
912
-352
-32
224
32
976
-224
-208
-1024
880
-32
-336
96
-1568
-176
336
-608
-512
-288
256
224
-1136
-912
-1904
608
736
960
1008
-256
-880
-1536
-1264
-656
-160
464
1104
-1152
-624
256
-848
-1312
-272
-112
592
-992
-320
416
640
720
1264
208
512
1008
-1312
-1552
528
-128
-912
-1072
1440
1888
1456
464
-224
1488
-16
832
1024
-1264
-144
800
-96
112
272
688
-1264
176
432
304
-176
-832
-432
-240
-352
1536
1168
528
528
384
-1648
-1632
944
-352
-1008
-1184
-704
768
1248
1632
-320
-1840
-112
544
544
-1744
496
592
720
816
-992
112
-144
-64
-16
16
-1536
-1760
-1776
112
1648
1168
1488
896
-1184
-544
-752
816
-800
-528
256
752
1376
672
-1520
-496
224
-1920
-224
496
1648
224
-784
-800
-1040
-1040
768
720
848
-544
-320
48
1280
-608
-336
-432
-736
-1648
1264
1344
-784
464
352
-48
944
1248
-208
864
592
-352
-512
-608
-1200
0
32
256
752
1552
-16
-128
-944
-960
400
448
-336
384
1968
816
-336
-992
96
-128
-48
1680
1472
480
-832
112
1424
-976
-48
1152
1008
592
1504
-368
80
288
592
1456
288
592
400
112
272
-192
592
1712
1152
288
1136
-512
560
-944
368
944
1104
-32
-1216
-1840
64
848
2000
64
512
352
656
-176
-192
1328
-272
-1584
-1520
-848
-368
-1184
-160
-496
-352
1120
-32
832
1184
784
-1152
976
-192
-1136
0
-448
624
784
-1056
-432
-944
-688
16
-1408
-528
1280
96
800
320
-224
-528
960
1264
1712
320
-736
1472
1472
-288
-1376
-864
-1216
-1904
368
448
-32
336
-1504
-256
-2000
-528
928
-192
592
1168
-448
-1072
464
672
1248
960
784
640
-384
-1424
-304
1168
928
720
640
160
-784
384
1504
1120
-32
-608
32
416
-432
480
-272
-1280
-1904
-1984
-1216
-288
-1488
576
912
-112
-544
-416
352
224
880
-64
752
-768
560
480
752
-688
560
-416
-544
-64
1024
-944
1808
1568
-912
176
16
-944
176
512
1312
448
-656
-592
-432
-1328
-1648
-928
576
1664
-128
-96
-656
192
256
-384
-800
544
672
240
-160
-176
-176
672
320
-1680
-1184
-464
176
-1056
752
-416
-672
16
1920
1056
128
144
-176
-1168
320
1488
-96
-1232
704
272
-1392
528
608
320
-656
-1904
-624
528
816
624
544
-48
-288
496
0
-192
96
1056
560
512
912
704
1296
640
672
512
160
-736
-96
928
-64
64
528
-576
-144
-736
-208
-496
-688
464
880
1504
480
0
928
208
-1360
256
1184
768
752
-1536
-304
864
-528
-304
1440
-304
-528
592
1472
1296
208
-2000
-1424
-976
672
864
-480
-400
-688
-960
-832
-1408
416
-656
-864
-576
1008
-960
368
1040
800
-96
-816
-576
192
1312
1408
192
-80
112
-624
880
-1392
-1136
768
624
768
944
112
1472
400
784
736
-192
-224
-192
-80
864
496
400
-448
-688
384
864
-1184
-1600
288
656
192
-384
64
-768
-320
-32
-1680
-1616
-960
32
672
96
112
576
1456
720
688
-1376
-16
-256
-16
128
1984
1424
-384
-656
32
800
928
-352
880
736
-32
624
-16
560
304
-16
624
1744
1232
320
928
1552
-1232
-1248
416
320
288
-1424
-416
1200
496
-768
-1664
464
2000
1408
144
672
-224
-80
288
-384
480
-1248
496
912
32
1472
-208
176
-1088
-448
704
1712
416
384
-368
-1776
-288
-640
-768
-432
64
624
1056
1200
480
-704
-720
-240
-96
-832
624
1392
-1648
-848
944
1552
224
-272
1136
1008
928
1600
-256
160
-224
-624
208
-1568
-608
-1376
-320
-400
848
176
-848
-1648
496
400
-224
800
-1040
-784
-368
-160
-1376
-288
-1072
-640
1168
1712
1008
-784
640
896
96
1632
480
1680
-400
816
-224
160
1488
-432
272
1440
176
-144
-128
128
1088
736
-608
-224
1200
1536
576
144
816
928
784
-1664
-1152
-848
-1120
-1136
112
1760
432
1216
1712
464
928
-96
-1824
-1680
-464
-1168
-160
-48
112
-688
224
-240
-160
-1072
-64
-816
-880
800
64
1120
-464
-48
32
-1088
-1040
-112
112
288
-960
-1264
-1296
-1040
192
1344
800
416
560
-384
-192
-1488
-1312
240
464
1744
496
336
-496
-1696
912
1136
-160
-736
-1104
-1600
-800
-400
1024
112
-272
-304
-752
432
176
-64
128
1760
64
-256
-1008
1136
624
-496
48
-480
-672
224
-464
-1232
624
336
-240
864
-208
1280
1088
-1008
-800
-1104
-240
-80
48
448
1328
-992
-736
-576
416
-928
528
1232
848
-1136
-656
-688
1424
896
-688
-48
-208
-864
-1680
608
1280
1520
656
544
-1040
-256
-1376
-1328
336
400
992
768
1488
912
784
-400
-368
1136
1616
1680
1328
80
688
-240
-1312
-704
-48
-1184
-848
496
-1568
-80
480
-128
160
-880
848
1808
304
-16
-576
192
-240
-880
-64
-144
272
976
448
1008
832
544
560
448
-416
656
1680
1600
-672
48
752
848
752
-896
448
1408
1136
96
-800
-1472
-1488
-848
-1392
-96
992
672
160
-704
112
384
512
-704
-1920
-1488
-496
-960
-416
-960
400
1008
576
720
1072
-1248
-64
160
1360
-352
-368
80
144
-256
944
16
336
128
1600
-304
-592
-352
368
1344
-1168
-592
480
816
-288
448
320
1440
1936
1248
1088
912
0
-480
-1920
-928
80
224
112
-16
1312
1920
-1440
448
416
240
560
-880
-752
80
-208
736
1520
704
-304
112
-240
-32
720
-1888
-1856
576
-64
240
944
288
192
-368
-2016
64
768
-448
944
1440
496
-640
48
592
448
208
1136
-752
624
1472
816
1024
1744
-672
-656
-1472
-1024
-432
-128
384
-128
1312
912
912
-736
496
160
-736
-688
1456
624
-976
-400
-160
-1088
-1152
-224
-336
-512
928
-592
-176
-368
-656
-896
32
-320
672
-320
624
-176
-16
-192
-448
1168
-464
-1760
-16
1136
-1280
-448
1424
-16
-288
-656
-1744
-1152
-16
-1152
-192
224
-1632
208
0
-1296
-1136
-1040
-240
-624
-368
1088
1632
1392
1392
848
-1264
-208
352
-272
-160
1408
-640
-1072
-1440
192
592
592
1024
1840
1488
-736
448
240
32
768
-224
336
1392
1888
-1232
-384
272
992
704
864
368
-640
1552
1344
1984
-800
496
112
-1040
-640
-608
-576
-1616
-720
-1232
0
128
-720
-1632
96
-752
-1456
80
752
1024
960
-1424
-688
-368
-144
1152
336
640
-304
-384
-1232
-688
-864
912
-1872
-1216
-624
-64
-16
-384
-336
-16
704
-544
-1360
720
-736
-416
-32
-1424
-1024
192
592
784
1440
1824
1504
480
608
976
976
896
704
880
656
-352
-80
64
-880
-176
1152
-704
-768
-1072
-384
-1184
240
1488
-1232
-1376
-1344
-1216
-272
-96
96
1840
-1088
-1200
208
256
64
-144
-1168
384
928
1200
-544
-1888
112
-160
-272
-416
-288
560
880
1024
576
976
16
864
672
544
304
-864
-800
-1968
800
-208
-192
656
1616
320
1024
288
-688
-80
-1280
-1760
240
-352
-1248
-528
-832
-1328
-736
1168
304
192
576
512
-208
-496
544
-432
832
1040
-96
-1616
-576
1088
192
720
624
368
1680
288
368
-432
-1184
-480
-48
-1728
-1648
-1008
-816
-1520
1424
1264
256
-32
-1280
-1952
-96
128
176
-1264
-320
-1728
-640
-592
-192
288
-1952
592
1200
288
-320
208
464
-320
-256
-384
16
112
192
960
512
944
1136
560
336
-224
-560
-752
-240
496
-160
144
-288
400
32
-528
-432
32
256
784
1648
288
-1680
-400
-1280
-640
96
288
-1184
304
-880
-1088
-2048
-736
-192
608
2032
64
-800
-736
-32
-976
1824
-768
-1552
-784
-864
-1616
-416
-592
-352
-512
-192
-32
-160
784
1344
1616
256
-1872
-64
-1504
272
-160
64
64
1200
224
-32
-1520
-336
880
1248
-576
-816
-768
-2000
-1584
-1360
-976
-1648
-1824
368
448
1168
656
-176
560
80
-1696
-1680
752
208
-384
-960
-800
1008
-672
0
-416
1056
864
1152
-736
-288
-336
1328
320
-64
1584
240
-816
-528
-528
80
-48
32
176
128
1568
624
1152
240
96
432
-144
-1600
-1376
432
1536
1008
592
576
1424
1216
512
-800
672
1824
448
-1168
-48
-1152
128
-32
1632
288
-720
-352
336
288
-1360
-688
-976
-1616
16
752
-784
1104
800
-912
-2032
-160
-1504
-1216
-1840
-288
528
-880
64
-112
960
192
-32
-1136
-976
-640
848
-1040
-1888
-736
-32
-848
224
160
416
896
1904
160
1104
896
368
1200
1072
912
-304
784
736
176
192
384
208
-1472
-1168
-288
1312
592
-272
-1392
-1488
-1728
-1136
928
912
-288
-992
-880
-320
112
384
-896
32
-1056
-464
-160
1760
416
-224
128
304
336
-160
-1376
-1024
1312
-16
112
-384
-32
560
1712
336
-656
720
-240
-1728
-1200
32
1072
992
-464
-1136
-256
640
-736
-800
128
-192
-96
400
-192
-240
-528
848
992
-736
-48
1536
-896
-1920
-384
16
592
1312
1008
160
-320
-832
-176
-432
288
1552
272
32
1200
-112
-560
-272
192
-112
-48
-432
320
656
-1136
-1216
672
560
-288
432
1072
2016
-464
400
80
-1568
-608
-1216
32
288
1024
1216
-432
-1200
1328
1040
368
-992
-592
304
1296
128
16
448
48
160
1664
64
-1072
-832
48
-800
-1984
-880
1264
48
-352
880
-384
848
592
1504
32
16
288
1152
688
768
720
-848
-592
-736
688
-336
-144
624
1664
432
-576
128
1728
640
-144
1040
-464
-384
-832
-320
-96
1472
1472
144
-240
688
1520
736
1120
848
-880
-608
-1200
-1616
-1696
-1920
-832
-896
-32
352
-288
576
1344
-64
1456
1600
1600
32
-1568
128
528
208
0
-80
176
-160
224
-512
-176
-640
160
32
-208
208
-288
-1152
-912
-576
-848
16
-1600
-832
-1056
1424
832
832
1648
464
-1232
-1152
64
112
-944
560
-448
-64
32
704
960
-16
-1632
288
400
480
496
-176
-480
720
-1136
-624
-592
432
-480
-1248
-288
-816
-32
192
-352
-1120
608
0
-240
-704
688
-96
80
976
-96
1456
912
-624
-1136
-336
-720
-480
656
-144
-1168
-16
848
-592
-128
-112
-1392
-512
-144
-608
608
144
-736
-384
-560
-1216
-224
800
416
240
-112
-848
-1184
-656
-480
-112
1472
-272
-912
-768
-2048
400
1968
1680
1264
960
-880
80
464
-1104
-304
64
1664
1136
128
-736
-1040
-736
1312
848
1680
672
-592
-208
16
1248
1424
192
-432
-1264
-800
736
-64
-1856
-1168
-864
-16
-1072
-1392
-720
-48
928
-848
-1216
-112
-832
-128
-288
-576
32
752
-560
-1088
1120
528
192
608
1312
800
736
560
800
736
-352
656
1872
848
-448
-656
-1152
-304
1360
-448
-368
-416
768
-1760
-896
-2016
-496
-800
96
-80
-752
544
-32
832
-1040
-1776
-1296
-528
672
208
160
-976
-272
-512
688
-832
416
0
-656
896
-1456
-192
-192
-1536
-256
704
256
1632
64
1504
128
-1600
-816
-1088
448
-1360
176
-1072
656
240
64
96
800
1024
-1248
-1376
544
-736
-992
-384
-1184
1040
1392
1056
1168
1376
-96
-384
-192
592
1216
-896
-112
-224
-832
-1024
1552
432
464
-768
-368
-1216
-608
-1920
-1088
-48
48
-256
-1024
-1392
-1152
400
64
-640
48
-368
-624
592
-896
-1472
-400
-1824
-144
1184
1088
-1152
-672
240
-320
464
448
-80
-1936
-1648
592
-304
720
864
496
896
176
-432
-1696
240
-336
-592
-224
-256
-80
272
608
560
1264
1264
1232
1328
-32
496
992
-304
-1216
352
-1168
-944
-1824
-64
-752
768
1408
-544
-608
-496
-832
-1120
192
1040
-704
32
752
1152
720
1104
16
-320
416
-192
400
96
400
1248
-64
976
-1328
-1968
-432
512
1328
624
160
-688
-640
-1104
-224
480
1072
-272
1088
496
-2000
-1280
288
48
352
1280
320
-1392
-96
-448
256
1504
208
480
752
-64
16
144
-1264
448
-32
-1888
336
-384
-752
-944
-32
-672
-320
-1040
880
400
-992
-336
512
-304
48
256
80
-208
-768
224
208
736
976
1040
-368
560
-496
-880
-160
-48
480
720
1456
2016
896
1888
16
-544
-144
-1632
-592
1280
-1024
272
-352
-736
-224
288
64
1232
-112
48
48
-512
-304
768
640
208
144
1248
768
1440
960
672
1984
656
-480
1696
400
1440
384
1184
1216
592
-688
-192
160
-400
832
64
-1600
-1808
-208
368
1888
-624
560
-1392
-272
-384
-256
-352
-304
1344
1216
480
-144
-816
-304
784
1104
-128
784
-576
-112
-1152
128
1664
400
640
-1120
-1072
160
224
-352
-528
-352
-1280
-448
176
-208
944
240
1568
368
240
464
-256
-1408
-1232
448
224
0
336
-624
256
-448
544
1328
144
-1072
352
-560
384
96
-1392
320
1552
1632
-448
-1232
-432
176
912
-864
-816
176
272
-288
-176
80
128
304
-1984
80
1184
176
-224
-720
576
-48
320
-480
1552
64
1152
848
384
1008
-432
1488
608
432
-1408
-544
464
-624
336
-1296
-1520
-432
-464
896
928
928
1120
1232
448
592
-128
1712
-256
32
1040
1488
448
-224
1216
112
1328
64
336
-1520
-1472
-1376
-1344
-560
-400
752
896
-736
128
-480
208
1104
112
336
224
176
608
-272
416
480
1104
176
-432
-1040
432
1936
96
1200
1616
576
128
-432
1584
256
-784
-768
-1072
288
-1808
-1008
128
-704
-880
-752
-1104
-528
1424
272
-1040
-1600
-464
-320
1248
-784
-1552
112
1696
1136
-848
336
-720
-1600
1488
208
832
240
736
800
624
-1344
-1712
-112
1344
-192
-496
-1488
-64
1680
192
624
-544
-80
1712
960
-272
-400
1136
1920
960
1840
720
32
-432
-320
-848
400
1440
256
784
1280
-144
1808
784
-224
224
-1152
-640
-1552
752
800
560
512
176
896
-656
224
368
-896
-1344
-496
32
496
64
496
1328
-208
80
-656
544
176
1008
-352
96
-1728
-1088
544
1744
-672
-1104
-528
-656
96
880
1488
-1008
16
-832
1168
128
352
0
912
816
1568
672
352
-896
368
1328
416
-864
592
1440
-368
768
960
-352
-880
-464
-224
240
-416
-880
-1024
32
48
-288
336
1888
1040
1440
832
-864
176
-144
-1392
-816
-1904
-224
-720
-1712
-400
-912
-960
-1680
-704
-704
448
1440
896
1088
736
416
464
272
416
496
704
512
304
816
960
1344
720
-688
-416
544
64
192
48
352
-832
16
-448
-1792
336
432
-320
224
432
736
256
256
1104
1728
848
48
1504
720
-1040
-112
-944
-1824
768
1440
-1232
-1440
672
112
-896
-592
368
-752
-96
64
1408
496
1328
512
1040
960
784
1344
-544
-1536
-336
624
464
288
576
-560
176
-1008
-656
1440
-384
-672
-640
112
-384
176
-1008
-416
-368
-960
-672
-848
-256
-1040
96
-688
-176
1408
1408
128
-1408
-1424
352
-304
-1488
-1456
-576
480
384
432
1040
-1152
-944
-736
-640
-768
1120
-160
-48
1568
-1024
-976
640
640
704
0
-448
-1648
128
1776
704
1248
-1712
-48
448
-1328
-624
672
1472
1152
1152
-944
-624
-688
496
-80
-96
0
112
-80
192
128
-224
1008
880
864
1296
1520
448
-944
96
1648
688
-176
16
-288
1104
-1504
-336
960
-464
-912
-816
-304
-608
-416
-1936
-832
-496
-1248
-560
816
-448
-1952
-1008
-1616
-1232
1136
384
-496
-656
1552
1616
656
-864
-496
-496
464
-1536
-2000
-880
848
1376
1568
400
-688
240
288
-176
992
-1296
-224
928
-256
-1472
592
-960
-304
1072
1584
960
-1072
-1536
-80
-240
-128
-1152
-928
-576
-704
-64
64
-832
80
176
-160
432
32
-656
144
944
-320
-320
-912
-64
1920
0
-208
-240
96
1232
224
-496
1584
-704
-896
1376
816
528
-224
-160
528
-1152
272
480
-864
-1264
384
1584
1104
-896
-432
-336
-256
1264
1408
-32
-624
-80
160
-768
-912
-1152
-1440
-896
-144
1728
272
-496
672
656
912
576
16
832
528
960
1600
816
96
112
768
-1472
288
624
-864
-1600
240
672
224
-80
800
64
-112
-480
-560
-64
-416
-64
-400
-1744
-2000
-864
-1008
112
1216
1104
1744
1664
-288
320
880
1360
1120
-1664
-736
112
272
-1872
-336
1264
-272
96
864
240
640
96
-1648
-176
-1376
-400
496
1408
448
-304
-416
-1296
-848
736
-416
-1040
-544
-400
-320
1024
-304
-1808
-496
720
-48
-896
-1312
-1488
-736
-16
-1008
-1392
-64
496
544
224
-304
656
1056
-1344
-288
864
752
592
-544
448
272
-1392
-288
1344
672
-464
-64
1024
1744
1456
-496
-2032
176
1504
144
-944
-64
-1088
-656
-896
-1344
-1312
-1200
-816
-1328
368
528
-656
1264
1776
48
-48
48
880
-496
960
1824
1472
640
1184
-48
112
-960
-1680
320
1200
704
-32
-672
-480
880
560
-528
592
-624
-368
-320
-496
416
160
1120
144
-80
-816
528
368
-1968
-1728
-448
-624
1328
96
1008
768
448
1904
208
-912
112
1712
1824
336
656
1920
1776
-704
-704
-48
-304
-896
-1920
-784
-224
-576
-128
-576
-880
-1040
-384
768
272
912
960
-112
544
752
-384
0
-512
-112
1728
-768
-496
1392
16
1040
336
672
512
1472
768
368
400
-448
-1232
448
672
1856
1024
-448
-736
192
1328
240
416
672
-288
224
-256
-1664
-1712
-1024
272
-480
-112
1664
-528
-784
672
352
-16
1328
1744
976
-368
-96
-1952
-1248
-592
-656
-576
752
-1200
-1360
144
-1056
-1648
-896
-1184
-560
-464
48
-1136
-592
-1168
144
-1408
-640
384
-416
320
-288
1120
-160
416
928
688
336
832
-128
384
-1968
-1936
-1456
208
576
-336
-1008
-912
-768
368
-176
-560
-592
-336
1712
352
1200
1040
-1648
-48
-368
-16
-320
-832
-992
1584
1584
208
320
768
560
1104
224
-1104
-1152
1408
-432
80
48
-48
-752
-176
-224
896
1872
-624
-960
-1824
-1904
-2032
96
1264
80
-864
-1504
-32
336
496
-608
64
768
2032
1792
1280
576
-368
992
512
640
144
800
592
-1328
176
-576
-1200
-32
1856
1856
-80
400
-640
-1232
-768
-1440
-320
688
1152
592
400
-64
992
1408
352
2016
1968
-176
512
432
112
-608
672
464
-640
-1312
-320
-320
-1008
432
-992
-464
-160
112
-512
-560
1328
192
1392
1136
1008
-640
-800
-672
464
256
272
-928
-2000
48
512
416
496
-1712
-1040
512
384
-688
688
1248
-992
-400
-560
992
64
1856
384
592
144
-352
-688
624
912
-240
656
96
-320
-1088
-784
-864
-32
1040
1376
1488
1264
1424
1744
576
64
-928
-512
-1216
-1216
384
-80
-48
736
-1584
-848
-1984
-32
-1520
-704
-992
688
1040
112
112
320
-1008
1568
1664
-464
1248
544
1424
2000
1888
-1616
-1120
992
1440
1264
832
-1440
-608
704
1840
-944
-976
-160
-928
848
256
-1152
64
928
736
-304
-432
-576
208
1520
560
-784
-544
-288
-304
1024
352
-720
-816
-1520
944
1872
-400
-272
-688
-400
-592
432
880
816
496
176
128
1520
-48
-512
272
-176
16
-96
-32
-432
-528
0
48
-32
-704
320
-288
-608
1312
-80
-512
1088
1280
-352
-976
528
-864
-416
560
656
-544
-80
976
-400
272
-448
176
-144
496
16
-704
-1584
192
80
-1936
-1712
-16
-1648
-1072
-688
-1232
-560
576
-1216
-1440
-768
-464
-1824
-1760
-1248
-864
-1120
-224
960
-1248
-240
1776
-16
768
1296
384
1120
-1296
-1872
352
272
656
-880
-1088
-800
160
960
1216
-880
-1616
-1312
-304
1632
-256
64
128
800
1904
-576
480
48
-512
-816
-1168
-256
-1552
-784
-112
-864
-576
-1664
-1952
-1376
-1104
-512
-992
-2016
-912
1072
-208
1232
-32
-96
528
-48
-192
256
-1328
-400
-864
-720
544
1248
-16
-48
-800
-496
-656
1504
576
1888
-144
-1232
-800
-352
-912
304
352
-32
576
944
-144
-480
-736
768
272
960
-560
368
-832
-1056
-608
368
96
1456
496
-800
-880
-528
112
1360
-688
384
144
736
-192
-416
-96
624
1408
480
-240
880
-432
-880
-1936
-2000
-80
-1792
-480
-96
-1312
-704
-304
1472
832
-288
-464
-288
416
352
128
976
-1024
-1392
-1392
-944
-608
-224
-1408
-1696
-736
528
464
576
544
-1152
-592
912
1072
208
-848
-48
-528
-16
256
-1312
-1232
16
656
224
480
816
624
336
672
96
-1440
848
1104
-896
1168
1200
-464
-944
-448
-752
-464
-832
-960
496
992
144
624
-32
-1712
176
944
1040
-656
-512
-1392
-1840
656
1648
544
1600
1792
128
-592
880
544
-1008
-976
-816
-176
256
1408
-592
-880
848
464
-1248
-912
-1456
-560
-1904
-2032
-176
624
-1296
80
-1168
-496
672
1168
-912
-176
-144
352
1472
640
0
48
-704
176
1360
-784
-528
736
160
400
1376
-112
-320
1248
800
-992
672
1104
-272
-496
-1136
592
848
112
-432
1632
1168
-48
-1120
-464
672
864
-464
384
528
32
-16
-544
-1104
-816
-256
576
-352
-112
64
-176
208
208
-192
-288
-464
1056
496
-432
-880
48
-128
-416
1120
528
16
-1296
0
-32
-80
16
-16
-896
-480
768
1120
-128
-1344
-1824
256
1456
752
-768
-1120
496
-224
0
704
304
-1488
-128
176
160
272
-64
-736
-1904
192
-1264
-32
-384
16
-928
-976
80
-1440
-1456
-1952
-1840
624
1104
1488
2032
880
-1728
464
624
1232
176
32
-96
1216
448
-144
1872
768
-1184
-16
32
-1264
-1088
-1712
-2000
-624
656
160
-1168
-192
-1328
448
48
-1136
-1792
-1616
-1376
-656
-240
336
640
736
736
640
1664
1408
640
1120
1360
704
-16
-432
-704
-1616
1744
896
1728
1952
688
368
64
2032
896
1056
224
-1232
0
-480
-208
-1248
1152
1008
48
176
-384
-592
112
992
304
912
912
-1168
176
960
416
496
-576
208
128
880
1248
96
-1264
-1296
-480
592
160
-880
-1584
-448
544
272
-1104
-656
1872
1264
-480
96
976
1872
1856
1488
288
-288
144
-864
-720
48
-544
-1056
400
1520
1520
1504
1136
1408
-32
-304
224
480
-352
-416
-512
208
32
-352
-976
16
1040
-16
-64
-832
-1152
-1024
-48
-2000
-688
-1264
608
1472
-416
-1024
1968
-816
-576
784
-1136
144
784
672
256
336
-256
0
672
160
160
1008
32
672
912
304
-16
48
1568
1040
-256
-592
-720
592
1904
608
304
960
-96
-688
656
224
-1280
864
960
-624
-192
-128
304
240
960
480
688
-592
-1024
352
-16
1152
496
-1072
-256
-448
160
160
-1936
-400
1024
352
-160
1008
-336
496
-1376
-496
-1328
912
576
-768
544
624
-688
48
-80
-208
1632
320
-1664
80
-1760
-816
544
-912
-432
768
-1952
-1712
-640
-208
-1200
-464
304
736
-368
-1072
-704
-1456
-544
-1696
-16
1488
992
464
512
-496
-720
-1024
-928
-864
576
944
576
-96
-992
-480
-16
-160
-768
-1296
-384
304
352
1408
1264
1216
432
592
1024
800
736
1504
1536
288
256
976
-1536
272
128
32
-32
-240
1024
-80
1376
608
992
928
720
-80
48
-624
-1056
-1408
-1280
0
-688
288
-240
-352
-1680
16
-672
-32
-176
1712
-64
-1680
-976
-880
1568
192
-176
704
1616
416
-1408
0
-736
544
960
336
-496
-400
-800
-1728
-176
-432
96
-160
864
-672
560
1376
912
496
1824
-304
-32
2000
1792
1376
656
-400
-896
-1584
416
384
144
-304
-1744
-96
272
-480
-80
-528
-800
-896
-384
-976
-1408
64
-144
480
672
-1168
-720
-512
256
-1120
-784
1024
-896
-16
288
-16
-752
-112
-704
-1664
512
-288
-1808
-768
1552
336
-224
-1152
880
1472
-688
-416
-384
-1104
-1184
-1728
112
352
-1008
-1776
-784
-496
800
1984
208
-208
-816
-400
-864
-880
-912
-960
-1120
-1632
-1680
-224
256
-512
304
-704
-1008
352
1136
-1344
-752
144
480
-112
-1168
336
256
1376
-832
-816
0
-608
-1856
80
1632
528
-1872
-736
-1344
-368
-1696
-304
672
576
-384
1024
-1424
-1952
-1696
800
-320
32
896
1312
64
-1120
768
-896
-1408
864
608
512
896
-368
-992
112
-1728
-1888
-704
-224
-224
-1808
-1984
-848
368
368
-1392
-1632
-528
144
-464
-816
1216
304
-608
96
1408
176
928
432
-144
224
1136
-496
-16
-176
272
-896
0
1040
976
96
-1360
-816
-512
-1296
-800
16
1232
224
-1136
-1504
-752
1088
80
160
-224
-688
592
1824
848
-64
-800
-1680
32
480
-256
288
-560
-112
-544
176
-528
-1248
384
-352
-464
240
1136
-320
-944
-400
-176
176
-880
-592
944
1072
1760
1520
976
304
-960
-912
432
-288
-416
-560
-320
-512
672
976
-1408
-208
1072
304
-608
736
464
-304
-1008
-48
-224
784
1280
1568
672
-336
-384
-224
32
880
448
1296
-544
-352
176
32
400
1120
544
240
-48
256
-48
960
1232
-416
-1632
-1408
-320
-144
320
-960
-176
-1072
-864
544
1024
1184
1312
-624
-1584
-736
704
464
816
672
672
352
688
1200
992
672
-864
-1280
-736
1328
1456
-640
-1440
-1792
-64
-512
-496
-544
0
736
688
-64
-736
-608
-1360
-688
-112
80
848
880
-256
208
368
1024
272
112
-1008
-448
480
1776
1584
48
-1248
-1312
-576
960
1248
640
-96
-1328
-720
-368
-208
-528
1216
1504
-640
-368
-928
880
1424
112
-896
576
416
1216
992
-576
832
-560
-464
-1392
-1984
-832
432
-128
-576
-1664
-64
-816
-1312
-1024
-736
-368
912
-560
-320
-160
-1552
624
784
304
592
448
160
-576
928
64
1216
624
-480
-976
896
928
432
1808
544
1312
-432
-1712
192
-544
-896
1184
608
-688
-1840
784
-384
1136
1920
784
96
736
1040
144
992
160
480
32
160
0
0
1216
416
-1840
432
512
-832
-1104
-592
320
-1072
-864
-864
-1248
-976
-352
272
112
1488
176
-624
-944
-1184
-480
-896
-128
880
928
1552
416
336
1088
1536
208
1824
1504
-400
304
480
128
768
-480
-800
-1600
-704
1824
1728
80
704
-784
-336
-656
784
-16
-272
1136
496
-128
-624
-800
-480
-224
-1808
-848
-704
-1152
-848
272
-208
-1056
-1184
16
224
848
-112
-1408
-1168
-1808
-1280
-128
-1136
352
976
1264
160
-976
-1664
576
-240
-368
1120
1648
1344
-64
336
144
-528
-1616
-1328
-352
-1184
-1584
-1040
-112
608
-480
-1344
-1488
-1344
-800
-688
-1392
560
832
208
976
-400
80
960
464
864
96
576
784
688
-656
-1504
-928
-1744
-1376
496
-1376
-688
1984
2032
96
-1248
144
448
-160
256
-128
-1216
256
432
224
1472
1216
368
-576
-1008
832
-432
352
304
80
32
-1440
-1600
-192
1760
32
192
416
-64
-176
208
656
1136
672
592
960
1184
-976
-736
-880
688
400
32
752
432
96
-400
-1136
400
1616
-720
592
1424
176
-448
-1328
-480
1808
480
-1072
208
944
912
-672
-1056
-656
992
784
-32
416
48
1984
-48
-944
-16
560
-1168
-224
-1152
848
336
-1344
48
1024
-880
-192
64
96
-416
-592
-128
416
-336
288
1072
1376
592
128
-1488
624
64
352
784
-576
80
400
1520
1488
336
784
256
-1504
1120
576
-208
336
1056
192
-1360
-336
-896
-928
480
400
1184
1424
624
1376
-592
-800
-208
-1824
-1120
800
-448
-144
-896
-656
-608
176
1120
1232
368
96
-832
-976
784
0
-352
-1776
-1488
576
-560
-592
-816
1504
1152
-624
1360
192
912
-368
-1408
-928
960
112
976
1824
-624
-1040
352
-1200
544
-656
416
304
-32
32
-480
-656
160
-176
-640
-1536
-1248
-768
-416
-1280
1152
1744
864
416
2032
-96
-256
-1392
96
848
-272
-1232
1680
144
368
544
368
944
-1456
-832
-1088
-1296
-784
-480
-560
-688
-512
-336
480
-816
32
1584
1856
704
-1824
-1824
-272
-48
-400
464
576
1504
576
-656
-528
-480
-1568
-1136
64
-320
1616
560
-160
-336
16
448
32
576
656
736
-688
1264
528
272
960
128
608
48
928
0
32
32
-784
-640
-832
336
-128
-32
544
416
-944
-128
-176
-208
-832
-1392
-544
-512
-560
-656
80
1440
160
-304
848
-288
-560
400
64
-32
640
-160
-112
-352
-1552
-544
1664
80
1040
272
256
-1088
-432
352
-336
1264
624
768
-208
-304
688
320
864
416
1856
752
16
592
1344
-336
384
448
1024
-256
496
-416
336
848
-1408
-416
1184
1328
1856
1104
992
-336
-1472
-736
-1104
608
1056
-192
1456
896
-992
32
1328
16
352
-1088
1376
656
-512
-1696
304
1200
-752
448
1184
-224
-624
-1120
-720
-880
240
368
0
0
-304
-32
672
1360
704
-352
-848
688
352
-608
1456
1264
528
-784
-400
576
-448
-672
-400
-496
128
160
160
960
1824
224
-272
-64
-480
48
-1216
-1056
-1248
-528
880
1328
-1632
-1312
192
592
416
-560
-1152
-240
1072
1152
896
304
-176
896
320
32
-1088
-1872
-336
272
-304
-32
-704
912
1088
-528
64
512
928
-256
-656
-1360
-144
528
-112
336
-1856
-688
-688
-544
1056
624
608
144
80
224
256
-1072
-1248
800
352
-208
1008
368
464
-96
1664
208
912
560
480
-896
-1232
-1360
-1600
-1808
-768
224
1408
64
-1040
352
368
0
-64
-1136
-720
1104
80
-320
128
464
448
384
496
768
512
-416
-160
-720
-96
944
1552
1024
288
1888
704
-512
-144
-336
-176
176
32
-400
-544
-768
-144
-144
160
-384
-752
192
208
544
-1072
-800
560
864
1392
576
-976
384
1120
336
-320
-912
0
-640
-1024
-752
-928
1232
976
-592
240
1136
976
720
16
752
-976
-1152
-1296
-32
512
1280
1056
944
-208
-816
-192
-1360
-240
-1376
48
1600
896
-272
224
-288
464
80
912
-240
352
1328
272
304
672
80
1440
-1152
-272
-176
-752
544
-720
240
352
-272
352
288
-144
-624
-1680
-1968
-976
640
1056
64
-160
-1008
624
880
-416
-912
-288
-112
-1024
720
1840
1248
-128
-16
-1328
64
672
-320
-912
-608
1136
736
-864
368
-160
48
272
-512
-1344
-1216
-448
16
496
800
784
16
-208
2016
-560
-1008
-1264
-752
-1600
-1424
448
640
-208
-592
-400
-512
-1104
976
1088
272
-368
480
-192
-176
-1552
256
432
-144
1072
224
944
-48
-896
-432
-544
1088
352
-384
48
-1664
-528
-32
-1664
-960
1536
1712
-1376
496
32
816
-400
-448
560
240
864
720
336
-1376
-752
528
1584
-1168
-1488
-176
624
752
464
576
-1024
-208
-464
-240
-96
288
-272
-1072
720
1872
-992
112
-1504
176
-912
-1440
-192
336
-384
-816
-160
720
-1296
-48
-1440
-864
-736
784
128
800
1040
304
704
-224
128
-32
-768
1520
1424
-416
1216
-256
-1264
672
-656
352
-1456
-1088
224
256
1664
-1088
-1264
96
816
64
-1184
-880
-112
1152
192
832
336
160
384
-320
320
896
-1008
320
256
-256
-96
416
256
-672
224
1216
-672
448
1568
-832
-176
-352
384
1184
1344
-496
528
320
-288
-1312
-752
1168
-240
448
272
-496
-1344
-1600
-656
464
-544
-1184
-224
-480
400
144
-48
-496
288
64
896
48
448
-1248
-1168
-400
48
-1424
-400
448
1360
-32
-1872
-1296
-832
176
64
-768
-352
368
-64
-560
-384
-1120
720
-32
-832
192
-1360
-1392
-1952
-896
-1872
368
48
768
704
1632
1760
752
832
-224
-400
352
-320
-1872
480
1632
288
-1312
-640
-224
-832
-256
-272
-1456
-768
-64
32
-48
-1904
528
-48
-304
784
1360
304
-128
-1760
-1696
672
576
256
560
-480
-1536
416
-768
-400
-1888
-224
288
-592
16
256
-1456
-992
160
160
448
816
656
112
416
-208
-1312
-1168
928
-1104
-736
-544
-1712
976
1040
16
1840
816
-1568
48
624
-288
384
208
688
-304
224
1536
208
-1360
-224
80
704
-576
-320
-384
352
1040
16
-368
-144
768
128
784
848
1936
-528
320
720
-320
336
-976
-896
-688
-1040
-400
-176
1168
384
320
1952
192
-1568
-1936
-656
-688
-1680
-544
-256
-224
16
560
288
1296
-832
-1152
-1568
-352
-528
-96
-320
-240
-32
-464
-624
288
800
-576
-320
-672
880
672
96
-512
-512
304
-1104
-1904
-1968
400
-464
-528
-560
-32
560
-1792
-192
-1536
432
-1632
-64
-608
-752
1280
16
368
464
-1664
-1728
1360
32
112
-576
-848
-368
-512
128
1552
-176
-448
-288
-816
-144
400
256
208
-1344
-1376
-528
-288
-144
-272
-1504
-80
1744
1248
1152
-384
-1984
272
576
-544
32
-992
-512
128
496
-368
1552
1520
48
912
944
544
-208
400
-32
1680
-96
736
1312
928
-880
-1568
-192
-320
16
128
448
-1584
-64
1728
784
112
720
-1312
-256
-192
-320
928
640
512
512
-464
1360
-128
368
-576
-96
400
-288
784
112
768
288
-832
976
-1216
-1232
-16
-592
-1088
-336
240
224
192
96
-16
544
240
-1696
-64
-928
-1248
496
1216
1568
976
272
576
704
1216
880
976
48
240
304
752
-944
-1488
-432
64
-608
-992
-400
928
16
-656
-432
-400
432
-352
432
288
304
624
-256
-64
1120
736
112
-32
256
592
-1296
-144
320
-304
-304
-528
1168
-448
-112
-528
-640
-736
560
-848
-752
-288
304
-912
-784
-1568
-496
736
384
-64
784
1504
576
656
304
-96
-704
960
1616
1264
-880
288
-496
656
1424
816
560
656
-1424
-1376
-224
-240
272
96
-1104
816
1776
144
848
0
240
64
-112
-368
400
-624
0
1312
736
-1792
-1520
-672
-720
-848
96
256
1232
496
1408
240
640
400
224
416
16
1696
432
1744
352
160
-800
864
304
-128
-176
-144
-384
-352
96
256
976
-752
-672
-160
736
992
592
-832
0
1632
1616
-272
-576
-1584
-1504
1536
848
784
272
-128
-1808
-1456
-368
976
-384
1248
-784
-800
1216
-288
-128
448
208
0
-1328
-720
-848
-816
-496
-816
-816
1424
336
-224
-1040
-16
-736
48
-48
1936
1184
752
256
0
-64
-368
-624
-416
-416
-464
880
-272
-1312
-1392
-80
-368
192
240
-288
-16
-592
-1744
-1664
-496
1248
-752
-688
-1184
-240
1312
1776
1248
1008
-1200
-160
1376
1232
-672
-96
32
-640
800
-416
-272
720
-256
-768
512
336
-208
192
-304
-1312
96
-208
112
-160
-128
224
1328
-1152
-496
-704
-1280
384
1200
1856
1328
656
384
-528
-320
-96
272
528
-576
-416
-1232
-528
-1776
-640
96
880
1168
320
-64
-688
-720
-832
-992
-128
592
64
-624
176
-1280
-1168
-1648
-992
1024
528
-96
-768
-992
-224
-368
-240
-880
512
-400
160
400
944
-400
-304
208
1184
432
-432
592
192
80
-96
832
-1200
-1152
240
1424
0
-576
-448
752
832
-1040
-736
-1584
-1056
-656
544
112
816
896
992
864
1104
48
304
720
1392
16
752
32
192
928
0
784
160
-1024
80
880
1008
160
256
1440
576
-304
352
688
-496
-96
208
144
-976
-1136
-336
-240
240
-848
320
96
-880
256
2000
-880
-1856
240
256
128
688
16
-336
-1264
-400
1264
-320
-256
-96
-112
48
832
1248
240
496
-352
-96
-496
320
592
1680
1200
-1024
-1088
736
48
-352
-192
-736
-944
-848
-400
-1472
-352
-352
-704
-320
1072
224
-544
-272
-272
16
80
240
-416
-224
1056
656
-928
-416
688
0
-1056
-928
480
1360
1120
1040
-736
-704
224
256
704
448
1584
320
432
1520
592
-672
-976
-1696
-1344
-432
-480
-1600
-288
-384
-1392
1552
1040
1056
-80
384
1104
384
1856
-64
-1248
-1216
352
400
-144
-912
544
464
-416
16
512
-944
48
464
-1488
272
1568
1120
656
-224
1008
320
-976
-560
-1392
-1728
-1568
400
-32
-176
-128
-432
-768
-704
144
-256
-272
-368
-208
1328
1920
1456
-336
-176
752
368
-768
-992
-1200
-1536
-720
1104
1200
-48
1232
1248
-96
48
-880
-1248
64
240
912
1200
-448
-336
-928
-496
160
-800
-64
-880
192
1296
-80
-1024
-1216
-432
-576
-544
-1632
-80
-208
592
-96
1392
208
-496
-848
64
-1296
160
944
128
-880
-512
-576
-16
368
-144
-1664
-208
768
848
1136
-432
-1280
-1568
-224
-512
1456
1168
-1648
-656
1504
1520
320
-240
400
544
1040
480
832
752
1392
1312
-208
-272
-304
400
-224
-880
240
368
-752
-1200
-704
-320
-1680
-176
1040
720
-1184
-1040
1376
1200
1200
688
1008
928
-160
-1984
-1072
-832
-240
1648
560
1632
-1264
-1360
48
1168
1056
1184
-272
800
1536
112
464
560
608
96
896
48
-96
224
1120
-448
-144
1424
784
336
544
-784
-1056
-896
-1760
-1760
-192
224
928
128
112
-416
-304
928
96
672
272
384
112
464
784
-416
368
192
-144
-944
-1232
-480
256
48
608
544
48
1680
16
1584
1504
-464
-1664
-768
-1264
608
224
-288
-432
-384
-416
-64
-768
224
-816
704
624
-864
128
-368
-208
-1536
-1616
-928
-1248
336
448
-1280
416
992
-624
576
144
-1840
-1456
-1232
-256
672
-752
480
1856
-592
1728
272
240
1424
-768
-1472
1216
-240
352
912
-512
320
944
560
816
96
80
256
368
672
-368
-336
-1312
-880
-336
752
1936
1216
144
96
112
528
240
-304
576
1728
1600
528
928
592
608
-448
-1152
608
-48
-1120
560
96
-96
-128
-64
880
1040
-1152
-352
-1984
-656
1104
-704
416
320
384
896
-1072
-880
-240
576
-240
208
-304
-1216
384
1424
720
1488
1072
-144
-1904
-80
1168
-656
-32
-64
672
576
-208
-96
528
512
-1072
-928
-64
-304
-880
-752
-1520
-128
752
-240
-832
576
-480
288
1936
192
-512
-960
96
768
208
960
128
-176
-880
-1136
-432
-624
624
2016
848
-832
-32
80
1552
1312
-1184
-128
176
-352
336
1120
1680
912
-112
1456
640
-1024
160
1680
-48
-1760
-1632
752
480
-816
1008
1344
192
160
320
48
464
-256
240
-272
816
448
736
-64
608
192
624
608
1328
512
-608
-1936
-256
752
-1504
-208
-1712
-272
288
576
-832
-304
608
32
416
-304
576
-112
736
-976
-1088
-256
1360
-32
160
-320
-1648
-1360
352
-1120
112
48
272
208
-544
-384
-288
-1600
-208
-352
-400
-832
-128
-640
-1280
-1392
192
-464
864
1072
-240
-144
80
-1072
-368
1520
1616
-480
-1376
-960
528
928
560
112
-192
240
-944
-96
1440
-608
-1120
-1072
880
-384
-1168
-336
1648
-736
336
80
-1088
-1760
-832
0
-1424
-816
1200
1536
448
128
-96
656
1104
-768
-256
-80
16
928
256
-736
240
1360
1872
-320
-144
1280
960
-336
-64
48
144
368
112
1456
-176
112
-1216
160
-256
-96
112
1040
864
352
-160
64
16
-336
-992
64
352
-464
-1360
816
720
688
96
1104
448
-720
-416
-672
512
-752
-368
768
-624
160
-1200
-768
624
512
-1248
-480
-1040
-160
-816
176
1120
1632
1136
-336
352
1056
224
-384
-464
-1568
-1728
-432
-960
-64
-496
240
752
528
-208
-160
-832
-160
416
-240
-112
1264
208
640
128
832
416
-256
1632
1872
656
-512
-1104
784
1904
224
-224
-1440
16
-32
-912
-1200
-1152
-608
-1584
-512
1136
576
1584
720
752
144
864
512
992
1648
1936
2016
976
32
-480
-128
720
-320
-480
800
1280
1104
-16
-880
64
464
-704
-320
-1184
272
-624
-1280
608
96
16
144
-464
-1024
-416
-416
688
400
-256
320
720
112
736
-544
-1104
-944
848
1136
96
-1216
-1504
-256
624
-1696
-368
1440
-576
-192
-288
-1376
-1872
-32
352
16
-688
208
128
-720
0
320
-64
976
624
1008
-320
336
160
-1696
272
1216
1184
528
1040
256
-176
1664
1936
1248
-1184
208
528
-1024
-368
944
256
-368
-48
-1520
-96
816
-768
-1376
96
-592
-160
-1056
1584
1888
-496
576
-320
-656
336
-160
-512
400
608
-464
-672
800
0
848
1904
304
880
-128
-480
1296
-80
-1216
-1232
-80
-1280
-1424
96
512
1840
384
-752
-560
-480
-368
928
576
-96
288
144
1776
384
352
-272
-400
928
416
208
864
-784
1184
-720
-1056
-672
-1056
-1568
-672
32
1024
-496
-1248
-928
32
1360
-192
528
384
1008
992
-304
-1344
-160
-880
512
2016
1184
608
160
-144
-496
-1120
-880
-416
-1632
-1536
-1168
496
144
112
-608
992
1984
1904
848
-400
-784
544
-960
-256
-32
1600
592
-640
-224
-1136
272
1456
-848
-384
-944
-496
-432
64
-448
240
656
1136
832
448
896
-352
912
-800
1216
256
656
1232
608
-816
864
496
624
-768
208
-672
768
384
208
-112
-1360
128
1088
-176
-128
112
-208
1072
208
1680
864
32
464
-272
-368
-912
-80
640
-640
-64
-464
-208
960
1664
1136
1024
1088
560
480
80
-1872
48
1088
-352
-128
256
1424
1776
688
-1520
-1072
-816
1408
1712
1264
992
-976
608
-1536
-1200
416
1152
304
16
1136
1744
272
160
608
240
-1360
-256
-1152
-688
672
1536
992
432
1424
-144
-608
320
240
-832
-416
832
1856
-432
896
-560
-672
880
-480
-464
-496
-16
-864
192
1392
1424
128
-880
-1296
-480
-1152
48
-544
-1696
-336
-96
-432
672
752
608
544
1280
368
-448
-1936
-1360
592
-432
-1456
-768
-1072
-1072
336
544
-800
-208
-256
1360
1136
880
544
-368
-688
160
864
-704
-1008
288
-16
704
816
-1184
-160
1088
-1152
-576
528
976
496
256
112
-464
-304
-432
128
-1568
-880
-16
1424
1024
-400
384
464
-640
192
-464
-272
1184
416
304
-1280
-16
880
-864
-656
-1984
-1440
96
-544
-1264
96
-1264
-1408
-1984
1056
976
-560
-704
384
192
-464
-1760
-960
-608
144
1088
16
-2048
528
-784
-1104
-128
-112
-1232
-928
-64
32
1584
-160
736
-240
736
960
-768
512
80
-640
384
560
-112
-464
688
944
1216
-304
-560
800
-1040
-160
-992
-192
1312
1792
-736
80
-256
816
-96
-576
-160
-64
-80
-112
-1392
-1440
-880
-1632
-1200
-208
1568
-816
-800
-480
-1312
-2000
-144
864
320
336
-112
608
1440
1632
-112
-336
496
160
-768
-1088
-1072
112
-832
-1552
-1104
-1104
-1616
240
-944
-1152
-480
-1328
-608
1136
928
1088
2032
496
-480
848
-624
-1920
-960
1072
960
688
-352
1280
112
1056
128
-48
320
-1456
-1024
-576
512
-656
-400
0
-256
464
-32
-1872
48
1312
-448
96
-368
-976
160
-640
960
528
928
512
-192
-336
-832
-1680
432
-320
1008
96
-352
-528
720
-256
1088
-1088
-624
1136
352
-560
-1536
-800
-800
-80
-1296
-400
-704
-64
1280
1792
-848
-304
-1472
-1376
240
-1376
-288
1568
624
-112
-432
608
2016
1024
1152
1232
640
80
-1472
2032
1088
-640
-736
-1200
288
32
-208
-1296
-1216
-1184
-1408
-1184
-1952
-992
-1008
-1248
-416
256
272
480
112
1168
1328
-32
-1632
-1760
-400
464
1040
944
224
-1424
-1296
272
1616
-704
-528
416
-736
-1456
-736
512
592
784
320
-1216
-608
1232
896
-1248
-272
64
656
256
192
1168
1024
1264
-1312
-1104
384
128
368
1904
304
16
-1280
-544
-224
-576
-752
-432
1584
576
-1072
-448
-960
-880
-192
192
-752
768
1584
512
128
240
864
944
-432
-784
-416
-1632
-144
-848
-1328
-400
16
128
368
320
992
976
16
-1872
-432
1184
1136
352
-112
-1664
672
1296
1904
512
-352
-496
-976
1872
896
-848
-368
-736
464
-272
-128
496
704
608
1216
16
-880
-592
-368
-528
-1216
-1328
768
464
1360
1920
1296
0
1232
480
-608
1760
1408
1024
544
-1072
-1776
304
1552
1632
464
-1216
448
-320
-1712
-880
640
336
-336
848
1376
-384
-896
-16
-928
-512
-800
256
-304
-608
288
1024
-80
416
624
48
1184
560
-1104
-224
-704
736
224
1424
-1040
1872
288
320
624
-768
-416
1488
1904
-112
-1232
-1040
-976
992
1728
992
1232
976
720
-256
1264
1952
1056
-656
-336
-560
-352
-80
-1536
-160
-736
176
-640
-688
128
-416
-1360
-352
48
176
-64
-112
1008
800
-352
832
144
-720
-624
-608
768
-752
-80
-48
-1392
-800
-512
1104
832
240
-816
-768
0
-688
-944
896
-720
-1856
-1168
-1488
-1664
-1504
896
1392
240
-1264
-320
160
-144
-80
144
-1408
-592
-304
-912
-352
-832
576
1888
944
-368
752
96
-112
-144
688
-208
-1296
-224
-480
-752
-240
-48
-800
1392
640
80
-240
-896
-1408
-176
-1008
-1536
-1312
-1360
-752
-416
304
528
640
-816
976
240
304
336
16
96
1056
224
256
512
-192
1520
608
560
400
-1008
-1424
1136
560
32
1408
-368
1056
1680
-144
-192
-176
-944
1296
464
1040
1152
272
-1568
-1840
1072
576
-416
1024
1344
144
1920
1040
32
272
368
2032
1008
384
-32
576
-848
-1920
-1536
-320
720
-112
672
-784
48
-272
304
256
1216
-128
128
1600
-976
-224
-1632
-80
-544
784
1008
240
-1168
-736
-224
656
624
768
1264
-544
-448
-224
-1456
832
-1088
640
1216
-1136
592
-352
96
80
-320
-432
-912
288
1200
736
0
-592
-320
416
-560
-512
1152
1088
1152
160
-1536
-976
32
1456
1360
16
-1952
-912
-448
-1504
288
-1152
-368
-1488
240
80
416
112
944
320
-352
688
464
-1168
32
1568
1712
896
-1216
-1024
-1968
-1824
-48
544
-1184
-1344
80
-1024
1184
1280
640
1008
176
608
1024
880
1872
64
-1680
-1152
944
-304
-528
-848
-704
16
816
192
-656
-1520
-480
-976
-1488
-1648
-432
-1216
-528
-1024
-896
-432
-832
-768
640
1568
32
192
1264
224
-656
-1312
-1184
992
-112
1136
944
-160
816
48
16
992
-240
-1280
-432
-80
736
880
400
-208
304
1232
-224
128
128
1008
-192
-1184
-672
-1056
-176
208
-192
-144
848
-672
-688
-192
1872
-272
-1744
240
1248
16
-864
-512
-368
-1232
-912
-1072
1376
1872
-736
-1824
-1552
784
512
336
240
560
-736
-432
704
-16
-752
-496
-144
592
992
-592
432
128
-544
1552
-1472
16
464
176
-224
800
-688
-192
32
-640
592
-304
208
-208
560
-800
608
496
-224
-336
-880
64
-368
448
80
976
1312
816
624
-480
320
-48
1328
208
-1824
672
1568
832
-784
-512
1504
272
-176
-1120
-944
-432
1184
432
-544
-1040
-336
-832
384
-368
-1728
48
-640
704
1200
1216
416
-144
304
-1168
-1072
1904
1344
240
768
-1264
-1024
80
-1392
-864
592
32
1200
960
-1568
-560
0
176
1472
896
624
-1008
240
-96
-384
-1104
-704
864
448
-800
-560
496
1088
1536
-1040
-480
-1824
-624
-1152
-432
-1152
80
-576
-384
912
-384
-800
144
-832
-1408
-1824
-1808
-880
-1184
448
672
960
-1840
-1424
160
-1744
-1776
176
1776
496
400
928
608
112
448
1168
240
-416
-624
-976
-352
336
608
512
1424
-208
-752
-832
752
928
-80
-960
-1648
-192
320
224
496
-1584
-944
704
-880
-752
-1088
-32
864
144
-352
-112
-128
-416
288
-1280
320
1552
1680
1552
128
-1280
-528
272
480
384
1392
128
1136
880
-528
-272
-512
1344
16
784
848
-480
464
1888
688
1360
1536
-400
976
240
-848
368
720
1520
-160
-544
-1136
-16
32
-480
1792
640
-688
336
624
-768
96
1568
528
112
1088
944
-1008
608
624
176
-768
352
896
112
-336
928
48
1520
1440
1440
-144
-400
-336
-960
-544
-448
-192
-1488
-704
-944
800
48
1120
1248
-448
-1120
-96
368
-880
-560
-304
-1376
-1584
400
592
-960
-256
688
1008
1392
752
-1664
-272
-208
1584
464
912
816
816
592
-544
-512
-32
16
496
-848
-816
224
1184
672
-592
16
-816
-512
-208
-384
416
-336
192
512
-464
-336
16
-656
1712
-672
-848
64
1152
-192
-1024
176
496
384
-400
-784
-1616
-800
-624
640
336
176
-32
144
176
-1216
-976
288
-128
-1968
368
272
848
528
1792
1376
1168
1136
256
-1440
-1376
-1328
-32
1696
944
-736
-640
-1888
-224
1184
-864
-848
-352
416
640
-432
-1168
-1792
-784
-528
-192
-1840
1088
416
-1280
-144
-1024
-1168
-368
-1312
-288
144
992
320
-1440
-544
368
-272
-1808
624
784
256
1600
-304
-112
320
384
16
1168
336
-96
-80
-1440
1552
-112
1248
544
-1184
-976
464
1344
1504
688
544
-752
-1776
-688
-224
960
1280
128
-992
544
-32
-752
-992
-448
-992
-688
-1296
-272
464
1296
64
-1456
-1344
-1984
-32
-544
-368
-208
-1168
-304
1312
832
-144
-816
-80
784
-112
-1152
1392
1696
-1600
-160
1760
960
160
528
192
352
1040
480
-288
-800
-1888
592
1536
448
-832
-240
1168
672
-176
-256
688
784
-144
-160
1024
-112
-1408
-416
-288
1328
-704
384
1040
-736
320
64
960
224
-384
-976
-1200
-448
0
-608
992
496
-1472
-1632
-1184
-720
864
560
-512
-368
0
448
320
448
-1440
-496
592
160
1232
784
-640
768
2000
704
-192
-64
-144
1152
-1104
-432
560
576
336
544
368
-608
-448
-1152
1264
-96
-720
544
-256
816
1072
1328
-816
-1088
-464
-112
128
16
-224
-976
1264
384
592
-368
-192
304
736
800
176
80
-624
-128
-544
256
800
-48
480
-80
-1744
-944
-912
-128
1040
-736
432
-1024
-96
624
-512
-1040
1136
-416
-592
1760
1344
-560
-1056
-16
224
1472
-240
-1760
-240
-1008
400
1664
208
320
-768
-528
64
96
-1600
-1104
-256
-288
-848
224
1696
640
-1168
-560
-544
-528
-1360
-1584
-784
464
-176
768
-240
-736
-464
1120
512
-432
128
-848
-608
-1808
-528
-1072
-816
128
1376
864
256
1632
1376
976
176
-640
784
-1120
-448
752
496
464
-1632
-480
-160
-752
1200
1760
672
-304
-288
-608
-224
-480
-1984
-1152
-1024
-256
1520
112
160
-832
1056
-176
-224
-1520
496
-256
-112
-1920
-112
-624
-1328
-1264
-448
-1056
-944
-352
-896
1936
1584
-384
656
832
944
608
-384
768
-800
-1200
-224
-1120
-912
-1344
-336
512
432
-1056
-1328
1376
1280
736
-1488
-832
256
1088
-1552
-1888
-1344
-688
-1776
-336
-336
-816
576
16
-192
0
-1648
-560
-752
400
-1296
-384
112
1120
160
1584
-432
-736
-1152
-752
-976
-1088
-1312
1008
-112
-912
-1184
-768
-944
-32
592
816
-160
720
160
336
-864
672
-320
-1248
-1376
-496
-240
-624
64
112
1488
160
768
1440
-304
416
-800
1664
-448
-1744
544
1216
-480
-608
304
2000
1056
1472
560
800
144
1696
-128
-208
-336
448
1248
560
96
-544
-1440
304
-128
1584
-816
-240
-1728
1440
1504
32
-640
-928
944
688
1472
592
1376
1168
-16
-1312
-576
-1968
-1520
-368
-1696
-1056
896
752
176
416
848
976
944
-176
-720
-784
720
320
368
1936
-544
224
-624
16
144
-1216
464
1376
864
-336
-256
464
-416
928
192
928
880
-704
-528
960
1744
1008
272
288
-112
368
1040
-1392
32
-1456
-2000
-288
1344
1328
-1696
-144
-1024
-704
-1040
-272
-864
-32
-1280
-272
1152
528
912
416
400
-1168
-1024
-640
-1296
-1760
-880
-544
368
128
720
-1168
-1248
336
-336
-768
-1264
-160
-368
32
-432
-944
-656
-464
-688
-80
-896
-128
1152
624
1152
368
-16
-352
1168
-368
-624
-144
-1520
-1536
-1328
-656
80
416
816
-640
-1232
80
160
80
688
1104
1280
304
-464
-1744
-1296
80
1168
-240
1024
1616
-208
-688
16
304
-976
-1088
-752
-800
768
-208
-256
272
336
912
1376
1696
400
-64
336
304
1408
-576
-1808
-560
512
-1792
-912
912
288
-496
-640
-896
-48
976
-512
-1856
-544
-304
208
592
-848
-1072
-16
48
352
-1520
-1424
-960
-832
592
400
640
-608
-688
688
1600
624
592
368
336
144
-48
368
-752
800
1040
368
1104
-912
-400
-832
-640
1312
832
128
112
960
-240
1152
496
192
-1248
864
112
1424
1008
112
-704
-1264
-2032
-1248
-224
80
-416
832
1280
-832
-432
1248
288
32
-64
-1344
-1024
-1360
-512
-496
96
256
256
-192
96
-1136
320
-784
1104
480
-1168
1152
1072
944
-448
-64
688
656
1952
32
80
1088
1424
-464
-816
-1280
-480
864
-16
272
432
-960
-480
-880
-592
1488
-176
-320
-848
112
224
-288
-656
1536
-720
-288
48
864
-976
-208
-1616
-192
528
1456
-640
688
1584
992
1488
176
48
-176
-48
32
448
-128
960
304
-160
1760
1056
-272
320
1232
-160
512
48
-336
960
-752
-912
-464
1104
1744
672
112
912
-816
-832
-1760
-992
-1408
-1728
-1440
-1472
-128
-368
112
96
416
-320
384
-400
592
16
-416
-1568
-704
400
-320
624
-112
48
-720
288
368
1744
288
272
-272
464
688
1968
1472
1488
1088
-960
304
-544
-448
208
688
832
464
-624
-976
-960
-464
-464
-128
1648
656
128
1776
1616
752
448
-720
304
784
240
-768
624
496
-656
288
-704
-176
336
496
-800
1344
144
352
304
1232
1712
-1488
-752
-1184
-832
304
272
1696
1344
128
16
720
-768
-1760
-1360
-848
-1424
-672
880
128
-816
32
96
1440
256
-1408
720
880
1136
512
1088
-176
-1296
192
368
848
1424
1184
1360
-304
-1552
-480
-816
-1232
-368
-112
-992
-1040
-1120
-1360
1504
1104
1344
1168
1376
368
-736
-224
1136
1472
96
1136
-192
-1200
992
1792
1648
-464
-1280
-1856
1104
528
544
-80
-1024
-1744
-688
-544
-1120
128
-320
-320
80
-864
-128
-2048
-1840
32
1280
-720
-1936
-896
256
-864
-1232
-288
-368
1136
1024
896
848
880
1040
864
1104
-176
-1520
-1392
-96
1024
-80
-368
-16
-832
864
256
-1264
-752
416
-1312
-272
592
-272
-96
-688
-1088
-944
-80
336
240
-1120
768
96
-1072
800
288
-256
-1600
416
1392
672
656
1088
384
208
496
-1008
-1072
-1408
-800
240
-608
-208
-672
-576
-448
-864
320
1312
1120
320
-128
-368
672
-368
-992
-288
-784
528
-416
-368
576
-144
-336
416
1280
-736
-560
-1248
560
-80
-1456
-288
640
1472
656
320
1856
1360
1088
624
448
-48
192
-656
-1152
-208
-112
-448
640
1136
384
336
-752
-1792
-784
-688
-1504
-1584
176
-256
-1824
-624
992
-176
-1024
944
-176
-1088
-720
272
144
624
1072
-368
-1360
528
928
-144
336
1200
-1216
-320
-256
-1744
-1680
-1168
-240
640
464
-992
-624
-976
32
32
-80
-784
-1088
-688
784
144
304
-64
-1792
-544
-400
320
32
-96
352
1952
1008
-880
0
1024
-1472
-64
720
1216
400
624
-208
768
560
-432
560
416
-1728
-1104
-256
-416
-48
640
144
1872
240
-672
-704
-560
-176
-1424
-816
-1008
-1184
-48
736
1312
976
1440
672
192
1344
-48
-1104
-640
-592
1152
-352
-1696
384
624
784
-2016
-368
-1184
368
992
1072
-608
-1120
-1168
64
656
544
720
1408
224
-528
-144
-1152
-768
-752
384
-112
-448
448
208
160
-1344
80
544
528
-384
-512
272
928
544
-80
1280
-320
-352
304
-1040
-592
944
336
1152
1504
800
256
80
224
-864
-512
240
880
176
-768
832
1616
400
-656
-1184
-1248
32
-880
1760
752
864
528
-448
912
1376
640
-272
1104
-496
928
192
1072
608
224
800
-240
-1120
32
1184
48
352
-880
-240
-1280
-208
-544
-576
448
880
32
1584
144
800
352
624
944
1136
672
400
800
1024
80
1744
624
1984
-1888
-608
-80
-576
16
-464
-128
784
720
688
-240
-864
400
1744
-416
-672
-576
-80
-1056
-544
-368
-1824
-1408
-464
1136
-464
576
1664
-112
-608
-992
-736
944
656
-112
-736
-800
-896
544
192
-704
-992
896
1536
112
496
-128
768
672
1824
736
32
-1664
-144
-320
-400
-1136
-432
-592
1440
240
-768
-1024
-368
-1664
-1264
-1616
-320
-1072
-112
-112
208
336
-1536
-1504
496
-656
-656
-768
-816
-144
-192
464
-1264
416
1168
-544
-784
768
-128
-1104
-528
384
224
288
-304
-1712
-752
-432
512
-480
-832
-496
256
-304
1408
176
-1184
-1504
1056
-240
-128
-864
-96
-1472
-1552
-1840
32
-736
-176
-16
352
64
-656
496
1264
-976
-800
80
1184
1152
1824
-32
-832
-1776
-880
800
960
448
-400
-704
1744
1232
416
1584
112
-192
-256
-1408
-1456
-704
-480
-256
48
1472
1024
-48
-944
-672
-144
-720
-768
-480
-64
224
80
496
1008
-304
-1152
-160
-400
-416
-752
-1312
-368
384
176
608
-1008
144
448
-144
-224
-64
-288
-144
-576
1776
144
80
-800
-1456
-592
-1824
-1072
-1360
-192
-944
656
0
-1376
-1152
-912
-1808
-1904
-1456
832
128
80
-576
640
640
-256
448
-96
1328
1360
496
592
1216
208
-1248
-672
-672
-1280
-640
-416
-1296
512
-256
-864
-544
432
1248
-368
-64
1248
1840
80
976
688
672
-1952
-1392
-176
-1104
-1696
-912
208
1312
464
432
-368
-1216
288
384
-752
160
560
928
-512
-1232
-192
-864
-576
-48
-720
-384
-704
-288
112
-1136
-1088
-1952
-976
-48
1280
-544
-496
-608
-1856
-480
-720
-944
160
1472
-1008
-672
-160
64
304
-560
-528
544
1504
96
48
-1648
-1360
1056
560
576
1872
1392
432
400
496
-656
-176
1056
800
-288
256
576
-144
288
80
-192
-896
-432
-1872
912
944
256
-1072
320
1232
704
352
-1264
-112
-640
1472
1344
432
-1024
-736
-976
656
384
1168
304
112
-880
-240
-16
-800
-816
208
400
-1360
-1232
-528
48
368
368
480
-464
-496
-288
624
-384
1360
288
720
-192
-704
96
-336
-1600
864
1520
192
-272
-1120
-48
400
688
352
-528
928
1968
-592
-1200
-1520
-80
-1072
48
-304
-208
-1056
-96
-1488
-352
-1552
-336
560
1600
832
768
528
-656
256
1152
608
640
1232
-1440
-1056
1088
-608
400
176
-720
-544
-688
-1520
-880
96
-272
864
1024
944
1136
-592
-1024
1232
1616
1056
-784
-1200
-256
224
-80
-1024
-992
176
1488
-672
128
336
-816
-768
-208
-272
928
1008
-432
1600
704
464
176
0
240
-1248
-480
-864
-864
-496
-112
-656
-512
-1008
-1200
-800
288
-80
48
352
384
1088
128
944
-208
-64
224
1984
-160
560
-848
-1440
624
672
64
1904
1728
144
128
-1984
-1072
464
-1296
-944
-1696
-1296
-464
-80
704
-96
-224
448
32
-272
1344
1840
352
512
1664
-624
688
528
-16
2032
640
416
752
-1168
-128
-592
-464
320
592
1520
336
-208
-848
-1424
-448
-1136
-1696
-320
-944
-16
1072
1600
208
64
-1712
-1904
-208
-128
-1248
-432
640
432
1440
992
-544
-352
-32
-816
1296
1216
1632
704
112
1408
1296
512
832
-576
576
752
352
64
992
368
-16
-464
-304
928
832
1248
48
-1456
-544
1264
880
-480
1552
80
-832
80
1088
64
16
1040
1648
-704
-352
1040
-480
432
-976
-48
-464
-64
-592
-416
1088
928
1824
1120
192
96
1200
-1344
-1104
-144
208
576
-832
656
368
480
496
624
-512
-208
-400
-496
-560
-128
-720
-832
480
928
576
864
-336
1264
1040
400
304
-624
192
528
928
1504
-528
-80
-800
-656
-384
1152
-224
-1280
-32
-432
-1136
-1072
-608
-368
-1120
-208
-384
-1088
-144
720
368
256
-752
-640
-496
1408
192
944
832
1488
1536
208
-352
-1024
-752
-1536
704
1328
-112
-1312
144
576
304
96
-1280
272
480
-448
-672
800
-208
-448
-1184
-240
-192
-224
-1040
-1440
-576
192
-352
-480
-864
2032
-160
-1648
-672
-496
1568
944
-992
-528
544
1856
1088
1264
-32
-1424
-48
-1040
-960
-576
1200
368
-768
-224
608
-1536
128
656
784
160
-816
-464
1264
464
640
-624
-1104
-480
1088
-496
-1904
-944
-192
-672
352
320
-912
-1216
-96
-368
-1264
192
768
-48
624
-384
-128
160
576
-112
-272
-1312
-1200
688
880
128
848
512
448
416
-1456
-752
-144
-160
80
928
1328
-1792
-1120
528
-528
32
-752
160
-608
-1648
-768
256
1568
352
-1040
-1824
96
1680
336
-256
224
112
-688
1696
1904
512
-288
-544
-1280
-608
416
-1168
-2048
-720
992
1392
528
672
64
224
880
880
416
-400
-160
-496
1776
-576
496
-400
768
-464
144
-736
-960
-1952
-896
-1056
1680
368
592
-1392
-368
-368
480
1664
304
304
-1728
-1776
64
-160
1328
144
576
528
-368
-288
208
-160
-1808
96
-352
-496
-1408
-848
-1392
1632
0
-112
32
-240
720
320
32
-80
-1616
-816
-816
-48
-1248
-688
144
624
1504
656
288
-928
128
256
-1040
-192
1648
432
1184
-1280
208
416
-592
432
896
1232
1920
576
176
752
192
-96
464
1296
-208
-768
1712
288
1216
-352
-896
80
112
-1520
-816
-1216
-704
1424
544
-256
-192
-1328
-688
128
-2000
-1216
1216
48
768
1328
1040
-16
-320
-640
832
1648
1136
-928
-160
-912
-336
-1392
-1376
-336
432
1088
-384
1168
224
240
224
-240
-416
1360
480
-416
-688
-848
464
-400
-160
864
-224
816
192
-384
-640
-64
1312
-624
-496
480
-256
288
816
96
-48
272
-112
976
1184
560
912
384
-1872
816
576
176
-1792
-1776
-848
-272
-192
-144
-192
336
-320
1040
896
-528
-2000
-816
-1680
-1568
-1600
-1568
-1424
832
928
-272
-880
-1424
-96
384
-608
240
-608
-1904
384
1456
624
-1424
-1200
896
176
768
-336
400
1040
192
-496
384
1072
752
1376
288
-592
144
816
-1472
-1344
-480
-1120
-432
-992
-1088
-1184
-1216
1728
1424
704
368
240
-608
96
-64
-384
-240
-1232
368
384
928
576
1136
1536
1360
-80
-624
-544
352
1136
416
-800
912
-96
544
288
96
-720
-160
1536
384
1264
1728
-192
-464
-96
1248
704
-720
-704
816
400
-912
-640
-912
-48
-368
-704
768
-368
928
1024
80
528
320
1296
1040
-1328
-240
1088
608
-1168
-2000
-112
80
48
192
912
432
1552
992
-1152
-304
224
272
48
-1232
752
176
576
1952
-48
-816
1104
1280
-1248
-1120
-1392
-1904
-768
-272
944
1504
1488
448
-304
128
-192
-336
1200
416
-576
-688
-224
-1392
128
80
1248
480
0
-416
1504
416
-1328
96
96
-960
-1344
-48
-432
-1232
-560
-176
384
688
304
-224
-384
-688
592
-544
-496
96
1248
560
192
-1024
-416
-560
-400
416
752
48
-176
-1008
1376
1168
1536
944
288
1616
352
96
800
-384
1072
1232
-1264
512
-656
-576
-1088
-1296
-1104
-224
-1024
-1264
-560
-624
144
240
672
576
80
-992
-624
880
-816
112
-1040
-32
464
-576
1808
560
128
320
416
-48
720
960
560
544
1152
784
336
928
1344
-512
1424
784
336
560
720
1648
1472
64
800
-656
-80
-448
-432
-544
208
736
480
-416
-1344
-288
-32
-192
-1776
416
1376
832
448
-128
1888
-224
-1248
-464
1808
1040
-1088
-928
16
-368
-432
-784
-64
-1664
48
1360
1424
1728
-80
80
-144
-256
1552
928
1872
944
-592
1712
-128
32
-784
-752
-384
-1424
-1056
128
-288
-1248
-400
-128
-592
-336
1920
1376
-448
624
176
512
-736
-816
-288
240
-704
224
-1056
-1232
-272
896
832
640
16
-960
-1088
-528
928
-960
-528
112
-1008
-1024
-1648
-1456
-272
-144
-48
80
-288
-1296
336
208
960
-80
-960
-272
-1120
608
1488
-2000
-672
-1440
-1872
-928
-1600
-192
-496
672
-944
880
1280
64
-1680
-1056
-896
240
576
-832
-1200
-448
1296
-976
-944
-1200
-1168
-912
-1280
2032
1424
-720
32
752
352
-320
1040
544
-368
-384
-1904
-704
432
-816
-80
1120
1264
208
80
448
-176
-160
-688
-1152
448
736
-1248
-752
-160
-560
-48
720
1216
1776
16
-192
-624
-624
-64
-592
-1056
-112
-1136
-1104
-960
-464
-1152
-960
1024
-752
-832
16
-144
64
-400
352
768
1040
-336
-704
-912
0
144
256
-400
704
160
1168
240
48
1232
272
272
1520
1552
384
-704
-480
-80
752
192
1008
-976
1312
976
160
-304
320
208
720
160
-688
-288
16
240
720
176
944
1568
1456
-384
-256
496
352
-624
-480
-480
208
112
-112
688
992
544
1328
144
1984
-32
48
112
-1152
-848
-512
-768
-1536
672
1248
192
752
512
368
-128
288
-192
-1152
-720
-208
512
704
320
1968
-368
-800
112
-144
544
400
-464
144
-112
496
832
1808
96
-672
-352
1632
-784
-752
336
272
16
1136
-784
-1056
528
176
-976
-160
-656
240
-48
784
-144
-688
-208
0
-752
-1152
-688
-432
-1120
-704
704
176
128
-1984
-592
288
-848
-2048
512
1632
-752
-400
944
1136
816
-128
576
1248
144
128
1792
448
112
208
272
-80
224
464
560
-16
-1344
-1248
-1888
112
1296
1008
256
544
-16
208
1056
1024
1040
-112
-1536
16
800
832
-240
-1392
-960
48
-512
-992
1472
-368
992
-1056
288
-1456
-928
-240
-1104
-16
192
-288
-464
-560
-1392
1984
768
1024
-144
-64
-304
224
-352
-1776
-1200
16
1216
-1248
-1664
672
-208
768
1488
-48
-544
-400
544
-848
-896
-304
80
400
-736
1472
208
864
32
912
-320
-432
-1696
32
-304
-176
880
896
-672
720
384
1168
-704
-80
1552
1312
1248
176
-976
176
-656
320
144
48
-768
-176
-1568
-800
-144
704
-864
-1088
-1168
1360
-448
-560
-608
816
1520
592
352
832
96
208
-528
-1568
-1568
-464
-400
144
-720
-816
-464
-592
-624
-1296
336
512
-1136
304
1264
-720
-1136
-1344
336
736
96
112
-336
-864
672
1120
-112
-16
-240
80
272
624
-768
704
928
1872
-48
-496
416
720
-1760
-1344
-1904
-1056
96
-688
0
864
-752
-480
400
-880
-448
1520
432
176
1120
-448
432
992
-544
144
-288
928
-592
16
-560
-496
-1328
512
224
0
-1856
-1056
-928
-160
1296
-48
32
32
1520
-976
-1808
304
-96
-1056
192
32
-880
-928
304
272
-1104
-1728
-752
-784
-1424
144
1856
256
-864
-496
96
464
880
576
576
-800
-1056
-1216
-240
-176
48
16
-560
-240
-1472
-1248
-112
352
-480
-320
832
-608
1008
-256
1008
608
-1600
448
-320
-1744
-32
-144
352
880
832
32
832
960
1984
848
224
-320
1264
1808
48
-688
1744
-320
80
352
-1728
-336
-608
976
1200
784
-864
-944
-144
-304
192
256
304
-480
-608
-224
80
64
704
1728
592
-304
-1568
-240
-1920
-208
1184
-320
-1488
-352
-752
400
1024
-816
-448
336
464
-208
-896
-496
400
1024
1104
112
384
784
-48
-240
256
1328
1632
1184
336
288
1584
976
-992
512
800
1024
464
-1216
-240
592
-32
576
208
-16
-400
-480
1152
1072
-528
-656
592
-256
-640
-1824
-928
-848
592
432
16
80
832
-1680
400
752
-336
-288
0
-112
-128
-416
448
0
-48
208
-704
880
1216
-512
-544
80
-1216
-496
-1008
720
352
544
256
-640
-1648
-720
-320
-688
560
-1632
-1168
-304
-480
-1456
-720
-800
-288
-1920
-1472
160
-976
704
976
1408
528
-512
1008
1136
-96
-464
1920
1616
1008
-336
192
880
-192
0
-1536
784
-1504
-1488
64
1408
48
144
-784
-592
352
-1312
96
32
-96
-656
272
-320
-144
-656
1440
384
-240
-304
-1184
240
1888
32
-800
-816
288
-592
-1600
-560
464
176
1040
-192
224
800
720
464
736
-352
-1984
-1216
-496
-320
-736
-1216
1344
1120
-880
-336
-784
-1168
272
2032
736
-1328
208
976
-256
-880
1616
1440
-784
-1200
-96
272
656
256
624
1008
-1104
-112
-16
-832
-720
1632
-48
-1648
-464
400
832
-1376
1184
576
-480
-128
1648
144
944
-416
-944
0
512
64
624
1696
432
960
1424
336
224
1152
1200
1296
-80
-1248
352
992
32
-96
-960
-896
-416
800
928
1008
752
1216
480
512
320
-32
352
32
528
96
192
272
880
-1104
-896
112
-768
-1728
-1440
-1936
-176
368
896
-752
-1952
-1168
-112
704
1264
-80
-736
-1120
-640
320
-1584
-1712
-672
-208
864
1952
-496
-768
-352
1696
-112
816
816
144
-112
-848
48
416
1504
1408
1968
336
736
352
1552
288
416
-816
-608
-1312
-1152
352
16
-1008
-400
1104
1072
-736
-1184
944
1776
1168
-624
-528
-800
-752
-880
-48
-224
320
-352
-912
912
0
-320
1760
672
512
-816
336
1024
-1200
1312
624
1424
-128
-1744
-912
1568
384
-672
832
-528
-608
-64
-1088
-192
-1584
-416
-208
144
1456
480
912
-1168
-1200
-32
-1456
-912
944
288
992
1120
-16
48
1712
1440
-784
176
592
-672
-656
-1280
176
1424
400
960
1280
1024
880
768
-144
-272
-1280
-1296
-192
688
-64
-656
-1312
400
1728
352
1232
80
-640
-1568
-848
-704
48
-1424
-1056
528
256
1312
-432
-1360
192
336
-640
240
-336
-480
1136
768
1552
-272
-96
352
432
1264
240
-272
1296
96
336
-272
224
-304
-704
272
-848
400
192
-1488
-1024
-672
-1504
80
-848
-256
416
-2032
-1888
272
-432
-176
400
1968
1040
-16
-384
-640
-2032
-1312
416
-352
-416
512
-528
-272
240
-1056
208
800
-176
1520
560
304
1280
176
0
-432
-1072
960
704
320
752
736
96
1536
224
560
1488
1360
736
608
-112
-1136
-560
1776
800
-1280
640
560
608
-1312
1024
1808
464
-944
-1040
-352
-1504
-1712
304
768
240
-64
-1520
80
512
944
624
-64
1152
1024
816
896
1008
-288
1232
64
-128
224
672
1456
528
880
784
192
-784
48
96
-880
1904
1616
-784
-1344
96
-416
-1328
-672
-1888
32
272
80
-400
-1152
-1520
-400
-464
128
-624
-688
-1104
432
-1552
-1552
112
368
720
-576
-224
-272
-1600
-1696
-1488
-1712
80
1440
-32
-1088
-256
-352
1600
-752
-320
-64
-48
-656
32
928
752
32
-240
-320
-32
-1008
1248
1072
704
-288
608
1168
160
1952
-304
-960
656
1200
-800
288
-96
688
912
880
-400
1536
-112
-1136
-176
640
-432
-32
-64
-384
448
-864
-1200
-320
384
-288
-16
-688
-1488
-1680
384
512
240
-224
-800
-32
624
1312
592
-48
1216
1472
-512
-352
528
-704
-144
-64
-528
-208
16
-528
-1904
-1280
-768
-1600
544
384
-1376
-1088
-96
-608
1584
672
-1328
-1424
-672
416
1088
96
1616
400
-752
752
1232
720
672
-640
912
-128
-944
-320
496
-16
-704
-1600
416
592
-272
560
368
1152
-784
-304
-304
-1008
-1648
-832
-1280
-1280
-368
-1664
-1456
-1600
-272
864
1136
640
1200
336
0
-112
-368
1248
80
-1344
-272
1568
880
-80
736
1056
-112
352
-1552
-752
512
64
480
912
1072
1056
592
272
-432
224
-32
-800
-688
-384
464
880
-288
-560
-128
592
-96
-592
-160
-2048
-48
-336
-1952
720
560
-240
-1456
-784
-432
1072
480
-160
64
1520
1904
1536
240
1792
1824
752
-528
96
1056
-944
-912
304
-512
1328
320
1184
1440
464
-112
-32
160
-1168
-1440
1536
368
-464
1328
240
112
-736
-144
1664
1232
96
400
160
-1440
448
736
-496
1408
64
-1088
-1280
-688
-704
-576
32
-224
-736
144
-480
672
-32
-1168
928
-496
-768
560
-816
-1408
-512
400
-400
-48
-864
368
848
1216
-320
1120
-240
-80
400
848
-832
-1856
768
1328
-80
-496
544
720
1152
816
64
1296
1280
288
128
-928
1376
1408
208
-1328
800
1072
848
-320
-1312
-208
416
-688
-544
-624
-288
-912
-96
1168
624
848
-80
-144
-448
-1648
848
1008
-288
-2048
96
208
400
1200
-1264
-416
1440
928
256
-192
-1120
-144
-448
-672
592
-128
-512
832
1040
1296
688
-384
-1408
560
1520
1280
16
-32
-896
-32
272
-32
1328
832
-592
64
-560
-512
704
256
1632
-672
-1360
1088
448
-128
-576
-64
592
-608
-336
672
-208
-768
-1472
-1424
-608
432
1568
320
-48
-1312
-1328
-400
112
-448
-384
1024
1232
736
864
688
64
1488
880
1760
1792
1296
1472
672
-688
-48
-176
224
-144
1424
336
992
-528
-224
-240
256
-288
-1632
-160
-1568
-1616
-1376
-944
-1680
-1408
-480
-992
-896
560
16
-1552
-592
448
192
192
640
1200
528
-224
608
1744
-848
-608
-384
-1424
-2032
-864
-368
-192
192
-608
-2032
-768
-1040
1392
160
-160
-160
752
-1136
896
944
352
-64
336
320
-832
-1424
-1168
-656
-1040
96
128
-608
-448
-1664
-2032
896
304
2032
880
-144
-1424
-1744
-1792
960
1312
704
-16
-544
64
1248
1840
992
-1216
1328
1216
1360
832
-688
-816
1216
144
112
432
480
1600
336
-160
560
-656
224
-1264
-2032
736
1472
-720
-2032
-288
-512
368
-864
-1824
304
96
-688
240
-336
-176
896
1136
464
-288
-352
896
624
-1344
-1200
96
432
-400
800
1232
1280
32
1456
848
352
560
112
-560
-784
-288
1200
0
-336
-1504
-416
1280
1872
-1344
-864
1968
1200
448
1808
432
496
976
-16
-1040
48
-400
-256
-272
1344
1856
272
1040
176
1088
1760
112
1296
-448
1136
1584
1152
1088
1424
2000
464
192
256
256
176
544
-128
-528
-320
864
1168
-144
-224
-128
-1040
-1888
-464
1104
624
-96
-688
-784
-2032
-96
816
-160
768
288
1232
896
352
-768
304
-144
-464
560
-1248
-976
944
-368
-1184
-2016
-112
336
-16
720
-1504
-768
-944
-672
-1344
-816
-1568
-1072
-224
800
1312
-176
992
-80
288
1552
624
832
1888
1696
128
64
-1440
-32
1776
416
1328
192
-128
-176
624
-336
-224
1424
1008
-1008
-624
464
32
144
-288
-1328
-208
496
-176
496
1904
-1904
-1280
48
-1296
-432
-1920
-1296
256
-768
752
128
1040
1680
-96
-144
1360
1264
48
1088
-1456
-1680
-2000
-528
-1824
-256
-1744
-1344
-400
800
304
-64
-528
416
640
-384
-816
-1168
-832
-496
-1504
-544
-976
-1712
-64
-1936
128
768
-512
576
-96
528
16
320
272
336
0
656
1152
784
496
-736
560
304
64
-1344
-112
160
400
-1312
224
-880
-48
-128
640
-1888
-1984
592
800
0
320
192
1424
-1152
-864
-288
-1168
-1008
-304
-240
-976
-624
-976
-576
160
400
352
-1408
-960
-16
-704
576
-576
288
752
128
448
1792
1152
-352
624
0
-1040
-608
1536
-416
-208
1088
1232
208
-96
-464
992
208
272
976
272
176
-448
-1280
-496
-64
-1552
-96
736
32
32
-592
-320
304
32
-64
-992
1600
1312
-944
-1248
-448
96
320
976
1072
1184
816
784
-256
-288
-256
-976
-1920
-1520
864
128
320
-832
-336
-400
-752
-320
1088
368
-96
-1040
-256
1552
752
1744
-80
-544
-1136
-608
-192
-224
960
1920
672
-288
208
368
-944
-256
-1248
-784
-224
-1296
-816
320
304
-496
1440
384
1728
208
-416
320
-864
-688
240
880
608
192
1680
-160
-128
-384
-768
-736
-256
208
-16
-144
-704
640
1168
864
1840
1344
-848
-944
32
-608
1040
1168
1408
1520
-576
288
-1312
-1072
-800
-576
-592
0
192
-544
-208
0
-752
832
880
1648
-336
160
48
608
-496
-752
976
-240
224
-608
848
-592
-16
176
-928
-1504
-592
-1280
864
-64
32
-208
-1184
480
928
-960
-1024
464
-816
-656
-352
-704
-1808
528
1600
240
320
-544
-400
896
608
1904
1968
32
608
1296
1280
-160
320
368
-32
336
-1840
64
832
-640
-576
-1056
-560
-144
-1296
-1008
32
784
496
560
1184
1216
-1744
-128
320
-704
-64
848
144
1200
-112
-240
-48
-896
-1664
-624
336
-1072
-192
-528
-1440
-304
-384
0
-240
16
-864
-608
-576
320
1408
240
304
-176
720
1120
528
1424
32
1072
1264
1328
1616
752
-32
-800
-96
-96
1440
1600
736
-544
112
-608
-32
-592
-1232
-368
544
464
1792
128
-224
304
64
848
288
1168
-688
-832
1456
-112
-336
-944
80
1392
480
-352
480
512
512
-224
-192
-1360
-208
1232
-144
-128
-176
-16
1584
624
-256
-1360
-208
-192
-944
-144
-1744
-992
608
992
-832
-80
-320
-16
-608
-768
1216
880
1328
-1456
-528
272
48
1648
704
-192
720
96
-416
-432
-624
480
-32
-416
-448
208
-688
-864
-896
-80
-48
480
816
960
-224
-624
-384
-320
368
160
1264
1200
-272
-464
-1536
-336
144
-80
1232
1024
304
-576
144
640
1536
1232
-592
-1648
-1360
1728
80
-16
1088
1648
736
1840
64
-288
64
496
960
1712
1040
1408
720
464
368
-1296
288
480
416
1424
-16
1248
-1024
528
1040
1312
832
752
64
464
-480
-1328
160
528
1392
1232
-352
1248
1872
-336
1616
1024
1216
-656
-1200
-960
-256
1200
880
-304
-1424
-832
-944
-784
-336
-1280
816
1328
-384
416
768
-192
816
-112
336
368
-832
432
448
-1568
-720
-128
-512
-128
-400
512
-1040
-1008
-304
768
800
224
832
592
-688
-1152
-1520
752
960
-1856
208
16
1744
1488
1120
-256
-928
448
832
1360
-576
-464
-1312
-1264
64
-384
-240
896
-576
1648
208
1488
1280
832
768
1552
1216
1088
-752
-432
752
480
-1600
-832
-80
64
-320
-112
-592
304
624
64
992
-512
560
1472
-304
816
848
96
1200
1216
1600
1344
-256
288
32
272
624
-736
256
1776
624
448
-720
-592
544
-1536
-720
624
96
-96
-1440
-352
304
-208
48
-672
-592
-384
832
432
-208
-1616
16
1008
32
-1568
-1584
944
176
-192
256
-32
-1344
-768
-1104
-848
1088
1472
80
-1504
-592
-192
1504
1056
-336
-512
-1328
-1712
-768
-448
368
304
144
448
400
-768
96
-544
1888
1872
1632
208
-608
-1376
-976
368
-384
-1744
1120
1152
-864
-816
848
1248
688
-864
-112
1072
-976
-1872
-320
-1568
-1744
-560
-864
-496
464
-1632
-400
-752
304
-1680
-1296
1072
-688
-512
144
1616
-1632
-1728
-272
-928
560
-1024
-992
-608
624
352
-272
576
-640
1936
1008
-208
1760
352
-976
-192
16
1152
288
352
944
1040
-112
-688
208
-928
1392
272
-16
1104
672
-1424
-656
416
496
-416
128
1536
864
48
240
-480
944
1168
1120
1376
608
1344
1952
1200
384
304
1136
240
1360
128
-560
544
1808
-960
-800
-336
-1056
-192
1088
-912
-1744
-432
-16
-128
1152
-208
-1568
-704
-624
-752
-656
-688
-1168
-352
-720
-960
784
96
-976
-1328
1216
304
1280
-320
512
1552
1616
80
-784
-480
-320
608
1360
1424
448
352
-1344
64
-1712
-416
-144
176
640
768
-1408
-176
1296
-64
160
-64
-1232
-592
-912
352
-608
-1344
-640
976
1184
352
-752
-384
768
480
-32
464
-1360
-16
976
336
288
-1120
-800
48
912
1952
544
400
736
1552
-128
-1520
-448
-912
-1168
720
-96
-336
-1024
-16
144
80
1968
1792
-1680
-1216
800
-688
-288
64
192
-912
-1200
752
288
-752
-1360
1456
1584
-1104
-704
-240
-432
-1104
192
560
1024
1520
720
-64
-1312
256
1248
-224
-32
-480
-96
-992
-928
144
240
-1824
-2048
-128
1392
800
-256
-672
-592
-608
-1152
-1552
-1360
-240
-1024
-1104
-256
-720
-880
-864
-1536
-1488
-688
-400
-1440
-1616
-1088
-1888
-1216
-416
656
208
-624
-592
-128
-656
-1248
-1472
-2000
-304
-960
-1152
880
16
112
1888
1216
304
320
1200
-256
880
1648
1040
432
-720
928
944
192
656
1360
544
-400
-640
-512
-416
336
-1632
-240
-528
1776
1056
272
1296
1952
-1040
-784
48
-448
-768
-208
64
848
-1264
-1072
-416
-336
1024
1856
1392
112
32
-512
-368
-1888
-704
1712
688
-480
1376
912
1072
208
-1408
-1056
800
-48
-784
-1168
-1632
-480
-1488
560
1632
1152
-1344
960
992
896
-736
464
896
-128
-816
-800
-944
-544
-1424
608
176
-1312
-944
496
-640
272
384
-272
-976
784
1072
208
-624
-1712
-1264
-1008
-800
800
-304
-160
-1024
-368
-1360
-112
304
128
16
-912
176
-864
-352
160
-528
-976
1296
-368
-144
-1024
368
-160
-16
-848
-528
-1008
-832
1248
-448
-560
-1008
576
1968
144
-960
-192
368
1104
176
-80
-48
-1152
656
1584
-912
-400
768
432
320
304
736
-64
640
1760
-960
-400
-896
960
-64
-1888
-608
-288
1104
624
896
1360
-480
1040
1792
800
896
-336
-1536
-800
272
16
64
-192
224
384
352
-960
-144
-448
912
-128
-1168
688
1120
1152
416
256
64
-352
352
48
-288
1024
848
1120
80
64
-992
-112
48
128
-64
-352
576
560
112
1280
176
64
-240
1424
1360
-272
-320
688
608
-64
-160
704
304
-592
-752
528
1088
112
-464
-880
-768
96
-1840
-1680
592
512
-1344
-656
-320
-352
1264
-160
-400
-848
-928
112
1168
0
-208
-1744
-736
-656
384
1056
240
720
384
1392
1664
112
864
1136
624
176
-32
640
48
-448
-560
-1920
-1008
-416
576
-256
-336
1296
1008
-1712
-2048
800
-528
-1168
-128
-1312
-48
-128
896
1072
-672
-1072
352
544
896
928
432
336
-128
160
-1104
-800
-544
1008
224
288
432
480
-288
-256
240
-736
416
464
2000
1472
-144
608
1808
1040
160
400
-880
-592
-896
320
1328
-288
-128
256
1008
1104
-32
-1392
-128
-672
-624
0
160
560
1888
1408
-384
-336
864
-448
-864
64
-1392
64
288
320
1376
-1456
-96
128
576
448
-128
-1072
240
1296
192
-544
-32
144
624
944
-96
-208
112
496
544
-48
-752
-480
-272
1008
-656
928
672
80
928
1280
-64
-1072
-1792
-1216
-1280
1184
496
-208
-384
-1152
-944
-1008
-608
-1488
-464
-704
-464
-496
432
688
-320
-240
-336
0
864
1328
384
1280
688
-208
-608
-272
528
608
-448
608
832
1552
1632
784
1232
-176
1072
-688
1184
720
-64
880
1136
0
1312
1056
-304
1488
320
-192
-976
192
720
1040
-48
160
528
-48
256
272
32
-128
624
-64
480
896
1952
800
-1280
-800
96
1424
-592
-528
-496
-1232
-608
-160
160
-1616
-816
160
416
1456
384
896
-576
-1776
-560
-1312
-800
-208
-32
864
-96
-1088
368
-240
304
160
128
352
-448
672
1920
416
-592
-1744
144
64
-1552
-240
-1552
-672
-240
-1344
480
-80
-912
-144
-272
1200
64
-1792
-768
-1872
-144
512
-576
384
1008
800
352
-1408
-448
336
-368
-1744
-992
1856
368
-1856
-1088
-96
1184
1776
256
-1232
-1568
-880
-1008
-208
864
-64
-1440
-288
-400
-48
-832
-448
-880
656
368
320
32
1120
1680
-208
1744
320
-224
-720
0
-960
1680
704
816
-144
112
-1248
224
-16
-240
-1136
-368
-1968
-336
128
1632
1008
384
240
496
112
-496
-688
624
-608
-560
1440
-368
-384
-288
1024
-240
-592
496
112
-560
-304
480
-240
1472
208
48
480
1408
-1184
-1328
112
-144
16
-1232
-432
-1008
-560
880
-16
-80
800
32
-432
-608
-208
-304
-1024
-1440
32
288
-1328
-448
432
240
-384
304
-624
-1632
416
848
256
-1744
-1984
384
-128
16
-32
992
496
-896
-64
-464
-880
704
1472
416
-128
-400
96
928
848
288
128
-96
80
112
576
-672
-768
-320
1776
16
608
-1728
-1648
-1264
-1136
-624
1040
1024
528
-384
-672
-64
1040
368
224
-1072
240
1920
816
1648
880
-864
368
-272
-1120
-1760
-1184
160
-720
-1088
-784
-1616
-1232
-1696
-144
-688
-528
560
640
576
-1152
-64
-240
-272
1088
880
16
224
-240
0
288
-704
-1312
-800
1728
400
1120
464
928
528
512
1312
560
-160
224
-48
-736
-1024
-32
-960
-752
-1360
944
1232
384
240
272
736
-96
-736
-624
1072
1104
-1200
-368
352
1392
-272
-1120
-496
736
-80
-64
0
928
1312
224
-496
288
336
96
-864
288
-896
-1040
400
-320
-1232
1568
1472
-1232
-304
1456
-240
-608
1776
720
-640
0
368
1376
80
-80
256
144
1616
480
1280
-1040
-880
608
-48
-656
976
-1136
-544
-288
-240
-144
656
-272
-1296
-640
-1408
-496
704
-112
-704
-976
-1376
224
704
336
-816
-96
-80
-176
-464
-1024
240
64
-336
-480
-368
672
-528
336
-64
-288
-1504
-208
272
-752
-1072
96
544
-1776
1344
1744
80
-1312
-432
304
1056
240
-720
-1504
-576
-288
-160
1056
-1072
-1888
48
1824
-288
1024
240
304
-736
288
-96
-752
832
1168
-80
32
320
-704
-256
-576
448
-224
160
1312
528
-736
-1104
-1856
-1392
96
816
192
896
-192
-48
-1024
-1600
-864
32
128
-560
-464
-304
-880
-1360
80
-464
144
-448
-400
928
368
1120
656
-176
-1648
-1104
-832
-704
480
-320
944
-272
-496
-1504
1680
1040
-720
-144
-1216
672
400
-16
-464
-16
-304
-1296
1168
848
640
-384
-624
-1024
-976
416
-272
-256
-272
-384
560
928
192
-512
-512
480
992
272
-720
16
-160
-176
-496
-1680
-576
944
1840
-352
-608
-1056
-752
448
560
-336
-1408
-1056
-1808
-208
-1072
-1088
-480
864
1312
1296
880
224
-1616
-1024
-208
-1440
-1056
-16
-1136
-608
1072
672
992
720
1552
208
1856
1824
320
1104
1040
-1040
48
1600
-1376
-2048
-1024
-896
976
1344
816
544
16
128
-768
32
1808
1408
112
-128
64
-480
-352
-624
160
-544
-1008
0
752
-1040
-576
-512
-1232
-1232
-1824
912
624
-432
0
240
848
-880
-432
592
928
96
784
-320
-1616
-256
-112
-1376
1120
1248
-560
-848
-1360
-1120
656
272
-1152
-1440
48
1296
1664
560
-496
-1040
432
224
1120
384
96
-240
-1120
-560
-544
768
1056
928
-416
-560
-864
16
128
1616
880
-336
-288
-96
-48
176
-560
-112
-448
1472
1312
-608
880
944
-208
1024
-288
1696
1024
-608
-528
528
480
432
224
1744
-176
-1152
-96
1616
1536
-176
-1744
-1536
384
1120
-432
-432
-320
-1744
192
-1088
-192
832
608
544
-560
1056
512
-1680
-1920
-64
1248
704
1600
-16
-80
-432
-720
416
960
-16
-736
-1360
-688
-240
-576
-800
544
-64
-832
1536
432
-592
464
208
496
-1888
-2048
1040
-864
-1456
-1280
656
1264
-384
-176
752
1952
-672
-1600
-896
-784
-1280
112
-1216
784
-288
-368
-416
-1120
-304
-1280
-432
192
208
1696
1424
1536
1648
896
336
-432
-640
1040
976
1680
2032
1264
352
-624
-736
0
672
-400
352
640
-464
-336
240
-928
624
1088
560
-800
768
448
576
944
-288
-400
1424
880
-48
1168
784
1152
-592
144
-704
-1616
624
-592
-1120
1216
976
-352
-1216
1232
384
2016
768
-240
-432
-1216
-768
-272
720
-64
-1920
-1840
-624
384
608
1088
-144
-256
-1184
-672
112
1280
688
-1232
-1776
-720
-48
160
-1792
-432
-624
-336
-592
-432
-1984
-1424
-1856
-1184
-960
-160
336
1024
224
1168
-272
-1312
-1216
-1584
-1520
-2032
-1168
-720
-1808
-1680
-848
-1200
-320
48
-704
64
32
-144
-1920
-1040
-944
1104
528
1184
-32
288
-288
416
1232
1952
1760
-1024
-208
-1744
-896
192
320
1008
2032
720
-352
1280
304
896
-768
-848
864
1616
-336
1344
432
-64
-512
1088
560
464
1568
576
-352
-928
-864
496
48
-1008
608
832
-96
368
-256
416
1712
848
-512
-384
-688
-256
-944
-208
1376
224
928
320
528
944
336
48
496
-416
1488
144
320
416
-176
-1632
-352
160
448
-80
688
880
160
-1664
-512
1920
1808
752
1232
800
-224
-944
-320
-880
928
1264
-16
752
128
-1072
-1664
-560
480
-16
32
-896
-592
-1024
-560
48
-512
1888
160
-1008
-272
-912
560
-736
-1680
-1504
-464
1184
1968
-48
-416
-1040
-1968
-208
1120
-784
832
-496
240
144
-208
-1808
-368
1264
752
96
1776
1856
-432
-704
-592
304
256
240
-544
-144
1328
160
336
480
1536
1600
560
192
-880
-272
48
1376
-1168
-912
1152
1520
800
416
-1376
-672
-1024
-464
-560
-64
480
-208
1264
560
416
1840
1200
-976
-1360
-272
-144
-176
320
32
192
1424
-528
1024
1264
816
160
-272
-944
-896
-144
640
592
0
320
-1536
-1280
-464
320
1024
-64
-944
1328
1472
-592
112
592
736
1680
656
736
-688
-896
160
48
1872
784
848
-384
1680
1040
560
-512
1232
432
-112
1328
208
-512
432
320
880
624
-1312
-1440
640
32
-464
496
192
-1136
-928
1680
1088
1856
784
592
1776
416
-1408
1088
-1232
512
1504
-160
-1184
752
192
-624
-784
-1744
-1872
-1280
-928
32
-96
0
112
592
0
-1296
-320
752
496
-624
-208
0
544
624
-16
-32
-1008
688
1392
-96
-656
-1376
-80
-496
624
176
-672
-1776
-1504
-320
-560
496
304
-400
-1136
-224
256
-1216
-1824
80
-896
-480
464
592
-688
320
816
928
-64
128
272
-528
-560
1120
1376
-144
-736
-608
-1056
-1296
-192
-896
464
128
384
-496
416
304
944
240
1152
1136
304
-128
-176
1072
928
80
-1104
528
-128
736
-592
-64
-1328
-416
1344
1184
16
-1712
-832
-1040
-560
-1232
-1424
-64
848
112
96
-96
544
384
-528
-464
336
384
1152
560
1584
912
256
-256
720
816
-496
-336
-32
-672
-992
-576
288
-384
-320
-80
-1232
-64
544
784
752
1152
-80
48
-48
592
-736
-128
192
-256
1280
384
-2016
-1024
320
1760
544
-1264
400
-256
-896
256
0
160
-912
-112
-128
-352
-608
304
96
-288
-896
-1088
560
96
96
400
-768
-624
416
-128
704
-752
-2016
112
1120
320
1360
128
80
224
1040
-96
-64
256
-832
448
-80
-480
-352
464
1680
1088
944
-1568
-1824
1760
1088
-288
512
-832
-400
-896
-496
224
1520
1440
624
800
1008
1008
-1104
-960
-1056
64
176
-144
848
592
-1360
-48
-176
192
-608
-352
800
864
16
240
-1920
-480
-256
-1984
752
1792
1712
1888
192
512
48
912
944
1392
816
-1408
-1840
-320
-656
-976
-528
192
-416
-1120
880
240
-16
1504
1424
-560
-768
-1456
-32
-1296
-208
-256
256
-256
-688
-368
-208
-64
176
-80
-80
-384
704
-1728
-864
80
400
-320
1040
-544
-224
-304
-80
1216
1760
1744
656
832
1056
-320
432
-96
512
1904
1312
704
-1040
-1552
-848
-144
16
-1312
-1120
-1152
-912
0
-1760
-832
-560
-1456
-704
-1616
64
-64
432
752
1648
832
1168
-176
944
-304
800
704
560
-448
0
64
48
720
784
-1120
-1664
-960
-1472
-272
704
-176
-144
-304
1840
1120
1072
496
-912
-592
-288
1568
-496
-144
848
-656
-656
-1632
-976
-1024
-848
432
-16
-496
336
-1104
-1568
976
-1024
-320
560
64
1648
304
-432
576
512
1088
1472
880
1136
32
-1104
400
-272
368
880
-880
-336
896
624
288
-1152
-1344
-1184
-112
784
1104
272
-400
-32
-192
-400
-1152
-1088
-720
-912
-16
496
-1008
-656
-400
-208
528
0
-784
-416
1440
976
-624
-1824
-928
-624
-1280
-48
288
1104
-96
704
-64
-528
944
784
1008
-560
-848
1088
64
1888
-128
272
912
128
-288
-1808
-832
-1312
-912
-1040
-128
432
448
1072
864
-240
0
960
-64
-448
-544
-368
-704
-1344
-64
-16
752
2032
1200
832
976
-448
-1600
-672
-1216
-384
176
-608
448
16
-224
1056
976
-384
-496
-160
2000
-1008
-176
-416
1648
80
1056
1904
-144
-688
112
528
320
528
144
-1408
-1296
-1920
768
1488
-320
-896
288
384
-1424
-496
1792
640
1680
1168
1952
1968
704
1104
-1680
-1456
144
240
704
-384
-272
-1728
-1616
784
752
1856
112
576
1824
240
-544
-304
-1424
-592
1200
-496
496
1872
992
368
-400
-496
-224
-1056
-1216
-880
576
1296
1072
1056
-400
1184
416
1024
368
-848
-576
-1136
976
-944
-1104
-1040
-624
-1536
-368
256
928
-816
-480
-288
-96
-1488
-1552
-1264
-2000
-240
560
-16
-256
-352
-976
416
144
-480
-1136
-1728
-496
352
224
-528
192
-128
-816
-144
560
-448
-640
1104
1376
1232
240
288
-128
1504
400
-144
384
-16
128
480
-1280
-880
-64
-1152
0
-1152
-672
368
-896
-1424
1504
128
-1184
-1776
-1472
-912
208
1088
384
992
32
-1536
-1072
320
1744
1632
1024
0
800
1360
544
928
-656
-1360
-672
0
-736
-256
-48
-1264
-464
544
320
480
-432
-464
80
1264
1264
656
1376
352
304
320
-656
1088
0
-48
-912
-208
272
976
224
-640
720
880
-192
-1344
-240
1424
-240
-880
272
1024
1440
1120
-400
848
-496
-1312
-176
176
208
-1360
-1984
-352
320
16
896
464
-192
240
864
-144
-1536
1376
1872
1264
624
112
-384
192
-1664
928
528
1184
-672
-336
-256
128
1856
496
736
-560
-304
480
1040
576
-288
-928
-608
-32
-272
-240
-1728
-1904
-1616
-480
-496
-1616
-1488
-224
-1152
1008
448
-688
-496
-240
-352
752
1280
-352
-880
912
-368
-400
688
1200
960
1056
32
-2048
-1520
-656
-1632
-272
176
48
-192
-176
560
112
512
80
-64
928
-768
-48
880
0
992
496
-528
-48
128
1472
768
-560
64
992
720
1328
1184
-80
1008
-128
-16
-240
-1552
-464
784
-112
448
960
1728
-112
-944
416
752
-1120
-176
-400
-992
368
1232
544
1264
2000
-320
-48
416
192
608
800
-1056
-1456
-416
-1040
-432
-80
1104
864
800
1392
1136
1216
-352
1728
1376
-208
-752
688
912
192
1376
96
912
256
1008
-144
256
1376
1040
-256
224
1488
1232
-1552
624
-160
-720
-544
496
128
480
608
1824
1344
416
800
688
-896
1312
-208
-448
-208
-992
-400
-224
944
-896
-320
-944
-1200
-1968
-1376
-1088
-496
-16
-1024
-1040
-1888
-1344
-1344
-48
-1568
-848
160
384
-1136
-1968
-880
640
1648
1040
-1248
-272
-1152
416
448
-784
-1552
80
96
16
576
-464
-832
-224
-1232
864
1056
944
-496
-160
192
768
704
-480
-16
160
0
-384
-128
288
928
1008
912
48
1328
256
752
256
-368
-464
1408
-16
-992
-48
272
-1264
240
224
400
-640
416
736
832
-1456
-1200
-1536
-160
-752
1088
1552
320
-240
-96
608
1136
-480
-560
1152
64
1184
592
-368
-416
64
-320
1024
-864
1232
1328
-144
-1600
-160
-1552
-256
-1280
-272
-448
-496
944
-400
288
1296
368
1200
352
-464
160
-1072
-1920
-1792
-304
400
1360
-800
368
976
256
-32
-1568
208
112
736
-1152
-288
-400
-1216
-160
-1632
0
880
400
-208
48
768
336
1984
1840
-288
144
336
32
432
-624
-176
496
256
1504
896
-960
-1776
-1152
-912
-288
-848
-288
-656
-1280
-736
288
-368
368
-560
-144
1088
464
144
656
-640
304
-768
-624
1936
656
-496
768
-880
320
1152
704
-1024
-1680
-464
-768
-1184
-1680
-1312
1184
224
-576
-544
-1120
32
64
640
1632
240
-1200
-96
672
-672
496
720
992
944
1376
176
288
1488
-368
832
480
-976
-848
-720
-384
704
-672
-448
-80
896
304
-944
-704
-976
-64
-1152
-384
-208
-1072
-560
-1056
-1472
-896
-1088
-896
-1248
576
336
848
896
-96
816
1280
1632
112
-960
1504
672
1568
-1168
-976
-1664
-672
64
48
576
1312
-192
-1616
-448
1392
928
752
816
-784
80
-96
656
416
-528
208
-32
-384
-208
656
-480
-1248
-912
160
64
768
-48
736
736
-784
-1312
-1312
160
-528
96
192
640
1360
-48
-784
192
496
560
1312
-448
-672
-1008
-656
-720
1680
1792
384
640
-272
1792
704
-1712
-1280
240
448
-432
-944
80
560
-672
-240
-448
816
768
-192
128
848
-624
-1392
-1984
-512
0
-192
32
-128
672
912
544
-384
96
-1040
-1456
-320
16
-624
-192
-1328
-1344
1488
1328
-496
-1520
1360
-448
-64
-48
-896
-208
-560
-16
-832
-192
448
-912
-528
-96
-688
-48
-224
-176
-192
-224
816
0
176
1808
-1408
-1088
736
976
496
-1056
-800
1008
1824
288
848
432
-896
-1296
912
736
576
-64
-608
1952
1936
-816
-480
912
-576
-1296
-960
-592
-768
-1472
-1664
-1088
-1520
256
-1184
-1584
-1312
256
-656
-512
-288
32
-1488
-240
416
-1152
-176
-240
-1040
-272
-16
-1168
-416
-640
1424
912
1568
-640
-960
256
208
768
-416
-720
112
1072
-720
-560
512
-176
-368
-720
-800
-784
-1216
784
960
-128
1264
-240
-976
-144
1696
1968
832
-672
-784
112
-1920
-1200
1792
528
240
144
-448
-352
-400
-1296
496
0
-80
-896
-512
1808
-640
-672
528
-48
-1984
-592
-1248
-192
-880
1392
448
-512
288
-800
-928
-656
208
128
112
-224
-1072
-832
-96
-1600
1472
1728
-368
96
-1872
176
-672
-320
640
1328
-640
624
240
-768
528
-576
-1664
-560
-16
-448
224
-176
656
1216
0
-352
-928
-112
48
-336
224
96
96
1664
1824
-528
-640
1776
336
-720
-528
-912
0
-576
-96
192
416
1520
688
1648
1280
-400
-976
-48
-624
-416
-848
176
-16
1424
672
-32
-1056
-1376
-192
512
80
736
1440
-160
912
-688
-1248
-1184
-384
208
-224
448
-80
1008
1120
896
608
1120
1600
464
208
32
976
240
-432
-1376
112
1136
160
240
1216
16
944
-496
848
1680
160
224
-1248
-544
80
256
240
800
480
-944
-496
-688
-1072
128
208
832
-48
-1472
-960
-208
-736
-704
-1440
1200
-352
-960
-1504
-464
-1536
-320
1264
1664
1456
-464
-1376
-176
576
-96
1088
-1152
-2048
-880
736
1008
192
656
784
384
-192
272
448
224
368
384
1152
1200
352
560
-576
1072
-848
368
-160
-704
896
1792
896
736
464
-832
144
624
512
-304
368
-16
-688
1008
208
1024
1072
624
48
832
1152
16
-1376
848
1920
848
1120
1680
176
-528
-64
1392
880
608
-448
-160
1312
48
688
560
992
-944
0
-272
-1168
-1184
-1408
208
352
560
272
-432
-32
-288
528
400
704
752
1648
832
736
-1104
-976
-1168
-496
240
272
-720
-816
848
784
1344
944
352
400
-80
1312
736
1248
-1728
-448
672
640
1152
1376
512
-1184
-1152
-352
288
128
1792
1664
272
-224
-1104
-1216
672
880
1264
480
1584
32
16
-720
-320
672
1184
784
528
-784
-1296
1520
144
224
-320
448
-1504
-1632
-512
-416
-96
-800
1616
-464
-1856
-1008
960
112
-112
-352
-976
-1568
-848
608
-400
128
-976
400
-560
-704
64
-544
-1104
-1408
-16
-416
-816
-480
-656
1120
1104
-736
-64
-944
-528
272
-1344
-1008
-448
384
-496
16
-592
1120
768
-1936
-1568
272
528
496
-752
640
-128
-480
-624
624
1728
720
-96
1184
1232
832
832
1008
-400
-896
-880
-1104
-752
-848
512
-240
-224
-688
-480
-688
-544
-672
-256
-1872
-768
-320
-928
-336
192
1840
1472
656
-640
1728
16
144
32
928
736
352
-64
1680
1968
-608
-656
-368
-1808
-1584
1312
1072
1472
432
64
-320
1440
1792
32
80
1248
-448
-432
-464
-416
640
-80
832
624
0
-544
-48
-496
160
688
1728
-224
688
624
192
-800
720
1184
1824
256
1024
-944
176
-400
-848
-288
-752
-1696
240
272
1088
48
-1472
-928
-1152
-576
-304
-48
-624
-1152
-816
-1072
-32
800
0
768
224
752
-704
-528
-1568
-992
1248
-48
288
944
-352
576
192
-432
-1120
400
-1648
-1456
-704
496
1536
704
-304
-544
-1200
608
-592
320
1408
560
-624
992
480
1280
-64
-128
-1392
-880
-624
-1408
-160
1584
64
512
-1456
-768
-1024
1296
-128
144
1328
-688
-1920
368
-256
1168
432
-704
16
80
96
-864
-48
1040
-800
-736
-64
400
16
-96
-576
-768
-656
-1168
-1008
-1328
-1232
-992
-240
-240
-128
-752
-720
-400
2016
1088
1872
992
-48
160
80
-352
128
-400
-624
-816
384
1104
960
112
-784
1632
416
-512
-416
-656
-1152
-1552
-96
1568
1744
1408
752
1088
-784
-320
880
-112
-1008
448
336
-496
896
1680
1712
512
208
256
1152
-160
224
1232
32
1520
1120
848
-496
-944
880
-1120
128
-80
608
-352
-176
-576
48
-1648
-2032
-512
-144
48
-1536
-1568
272
-784
288
-288
-96
800
48
-560
-480
272
-336
-416
-736
-880
-736
1296
992
1264
1424
1456
-336
592
1296
1568
1248
1216
784
0
-64
-144
176
-912
-720
-512
704
736
112
1248
1216
832
1008
1520
256
480
-992
-160
256
-736
-1888
192
-96
-80
64
-352
-464
448
-624
-368
-1312
-288
848
-880
320
464
896
864
-352
80
-1200
-160
-768
128
-976
960
-640
16
-1152
-128
1600
880
-1584
-560
896
576
384
816
-896
-736
336
-656
-1376
-1328
-96
-160
-32
-656
688
1120
784
864
-1120
816
256
-688
-1488
-880
560
-1440
-752
592
1872
1680
192
-496
-128
-784
32
-1216
-272
448
-256
-640
-496
-1296
-1360
368
768
-128
992
1120
1072
1296
1008
1248
416
-240
-384
608
-496
-400
-512
176
1376
-32
992
1392
-864
-720
1296
752
-192
-128
784
-48
-1296
-272
560
64
560
128
656
208
-768
672
848
272
-224
-240
-80
-1472
-1248
-416
-256
-320
224
-128
-1248
-1632
-1376
-1120
640
208
-912
592
352
-848
416
432
-960
64
816
1312
-672
-1488
640
592
736
416
640
-112
-208
928
432
1296
384
2000
208
1456
-320
-1344
-528
1120
-1488
-944
-800
-528
-1088
1472
-464
-1296
-64
512
-240
128
-320
-1168
-1472
1072
688
192
-896
-80
1088
1168
736
-496
16
192
864
-96
-1632
-192
608
-416
-1408
-208
-560
624
1072
-1584
-1568
-1968
-1632
-1280
448
-288
-288
704
1376
-112
-992
-784
-1632
-176
1952
784
256
816
-1248
-496
-160
-480
-864
112
-944
848
-1536
-1216
1056
1472
2000
1280
208
16
-1280
-1552
352
-1360
-768
304
784
-304
-976
-304
-1024
-1280
16
-928
-1440
32
-624
160
384
-128
1152
560
-1296
-1536
-992
-192
208
-672
-928
-896
928
784
352
-464
-384
-192
-576
-1520
-784
240
48
-512
-976
-112
0
128
2032
544
-1312
848
800
288
272
1696
-112
-288
1664
624
-368
-448
0
-544
-1296
-2048
-144
1248
368
1328
1584
1328
-96
912
1040
-144
-1072
240
-624
-1264
48
224
160
656
-512
560
624
1136
-1328
-1040
-336
-160
944
1072
384
448
1024
-896
-464
384
-272
-768
608
640
1248
1280
112
432
1584
-192
624
208
-480
-128
-576
-32
912
384
1376
1968
1920
1600
1552
-688
-240
272
432
384
1152
1072
1616
1616
224
1536
1120
928
336
-1488
560
1024
-544
448
-16
1024
-640
-880
-960
-864
-1984
-1504
-160
-624
208
1120
736
288
48
48
-496
-160
544
-640
-848
432
1232
1104
272
-976
-336
-1824
-640
384
672
-784
-432
-752
32
-512
336
960
-1392
464
48
-1280
-1552
-304
1376
272
1120
-896
64
144
-1776
-1600
-1280
-704
160
224
-512
-912
-112
1136
-656
144
-80
-432
112
-1312
160
-1072
-848
-992
-976
1040
976
-560
160
-1296
-208
-1344
-720
512
1184
176
1040
-912
-1152
608
-192
1264
336
112
-320
-944
496
448
-672
352
-1120
-144
1600
-848
96
80
-64
848
-1152
1376
512
-240
-64
-1552
-400
1168
-608
-96
-576
1312
1440
208
112
-752
480
1744
1088
-1216
80
-672
-960
-656
-96
240
-416
-672
208
864
-736
-160
-1104
-1056
-704
624
240
-752
-352
256
64
208
1472
-880
-288
-816
-272
384
-144
-1808
0
1472
-432
208
192
1728
288
528
1200
848
160
-1280
-2032
-1104
-256
-288
672
-1312
-528
496
128
848
960
960
-848
336
416
-368
1344
1920
848
1344
1632
880
1184
432
-176
-800
-1168
-1408
-368
1376
1600
1696
656
-1248
-944
752
-1152
-1568
-128
-160
-1456
-608
304
48
-80
-864
80
-1264
-1264
-912
1120
-16
-1040
-48
1536
-32
-1376
-112
-704
368
224
1504
160
-144
-928
32
1504
1392
-144
-448
736
560
-80
0
1584
368
-672
-208
160
-672
-384
448
-1392
-48
784
448
624
1744
1472
-848
624
560
832
592
-80
-912
240
-96
-448
-480
-1184
-1488
-128
16
112
-288
-1024
-1936
592
-16
208
-64
-80
-1808
-208
-128
1536
1424
64
1104
336
-272
-256
128
1360
1824
-304
832
192
1600
992
-848
-1520
944
-64
-576
960
1440
0
-896
-1712
-1088
-1136
-96
-544
1456
640
-480
496
1136
704
1728
-464
1120
-320
-752
480
720
-144
-992
336
1344
880
1648
-480
-1040
-368
-32
-976
-208
32
-1648
-1232
-1152
-288
-848
384
1968
16
1984
1936
704
544
-1104
96
-496
32
1472
192
-880
-48
-368
-1264
-384
-784
16
1008
-464
-1104
-576
464
752
1232
1328
368
-352
128
624
-560
-1328
-176
496
-192
-336
-112
-192
-928
-96
-368
-704
-128
592
864
384
-320
-176
-800
-32
-640
1248
1104
-1088
224
-240
-1392
-592
736
416
-304
-64
1216
288
-160
-640
640
-1088
-992
-112
-2048
-448
-432
-752
-112
-208
-48
608
1408
-704
496
-256
256
512
336
-464
-288
560
240
624
432
320
112
-1136
-992
448
672
-304
880
512
592
1232
1088
-640
-128
176
704
-976
-1456
-848
-1216
-1472
-208
-864
-496
272
1632
240
336
-1184
-1952
-176
-272
-1104
-672
784
-464
-1632
-1984
-448
960
-1040
16
224
-256
528
-320
496
-256
-976
-752
1392
1824
1472
352
-544
448
272
-576
416
-432
1072
992
736
1456
1136
416
672
1904
-256
944
976
1152
144
-256
1456
1232
192
-80
416
0
368
-128
1456
32
-64
-784
336
-1232
-1008
48
368
-128
352
736
-1440
368
800
-1248
-816
-576
800
-1264
-880
816
-416
176
-32
80
-976
128
-1248
1232
224
176
832
-640
-224
608
1024
-208
-208
1264
1104
-304
208
528
832
560
1648
48
-752
-992
-32
224
-336
-672
-928
-96
320
-272
-944
-1456
-864
512
-640
-1024
-560
-928
-720
-1376
-1216
1120
1936
656
992
352
640
-112
-464
240
1344
240
-560
-304
240
-1392
-960
-528
-208
-1024
-192
560
1648
-752
32
-512
-416
-912
-496
-304
208
-496
-800
-640
-1120
-1696
-1424
16
1024
1488
-544
672
208
816
-1312
-896
-624
-544
-672
448
656
-112
-768
-80
-464
1472
1920
928
224
1440
384
352
1040
144
-384
-80
944
-224
-816
32
-128
-1264
-1344
-992
416
976
240
352
1552
608
80
-656
976
1376
-16
-400
-1584
-1184
-736
1744
160
-1280
304
896
1296
832
1712
-96
160
-16
-1216
-448
-1568
432
624
-80
-1424
352
544
-128
-224
-400
-848
-144
-96
-1552
-480
1232
1392
176
-1408
-1488
-912
-224
-688
-496
672
160
1456
-416
-384
80
-352
-528
-1888
1488
-272
-544
336
912
1312
-768
-320
1024
448
-48
464
112
-784
-352
128
576
672
1552
656
-480
144
304
-1360
-224
1056
-256
-480
528
-192
-544
144
528
-112
-1328
-1472
-1136
-576
384
384
672
-400
336
368
768
-608
-352
-1488
688
-160
688
320
-240
-608
0
992
-304
-656
-608
1600
640
-256
-768
-448
-320
1040
592
-784
2016
288
-752
64
-112
320
-288
224
480
912
624
960
-512
-1472
-816
-960
-192
-192
-1632
-464
864
-304
-1040
-1024
448
256
-400
-256
-992
1008
-1264
-1600
-1040
-112
-736
-1104
-1360
384
1456
-128
112
880
128
160
-144
-80
400
-352
832
-560
-240
368
-816
-1728
-80
304
944
-720
-16
-720
-784
-128
0
128
-512
-192
-2000
-2048
-928
-1440
496
48
-768
-544
-640
576
1888
2016
-464
-1008
-1152
-736
-32
912
-384
-560
816
272
1584
496
-144
256
752
1312
352
304
1360
1280
1008
1392
64
448
-1200
-16
48
128
-816
-944
-752
-816
0
624
-1040
800
1088
-304
592
-128
64
64
0
1920
640
1120
-1472
-240
128
-208
1248
528
-448
-144
-1008
-1248
544
-128
304
944
112
-384
608
688
496
1136
1136
-704
-1072
-528
32
448
-880
160
1296
864
-1760
-192
-192
-288
32
-96
-304
-752
-560
-608
-1744
176
592
-592
320
-432
-880
-528
-256
384
480
176
112
80
-1248
624
1040
1520
-704
-1392
-688
-16
-304
-576
-992
96
1136
176
1520
528
1200
-256
-1712
352
1040
96
-416
-480
-1344
400
-1456
-1360
1520
352
-416
1840
688
-368
-512
224
512
-256
48
592
272
752
672
-112
-224
-1280
-1728
-256
-1392
-1264
-1104
-288
32
-576
-128
80
-816
-1136
-1264
-304
-64
-464
-128
816
1008
272
592
848
1088
-304
-1520
-1552
-1584
-1088
-1408
-192
768
-960
-672
-1008
-32
-96
-720
-1392
-1088
-400
784
176
640
480
272
-16
-1296
48
1856
128
384
-1456
-1040
-144
-1904
240
496
1792
16
-608
-464
-1296
-1456
-784
-1424
-1040
-400
304
768
80
592
-1216
-1168
-1072
256
176
352
240
-1232
352
416
1232
-672
-1392
-688
656
720
-768
-1216
-1360
-208
-704
-1088
-1792
-832
-608
176
48
-160
-416
512
-624
304
-1296
992
-160
-144
-1120
-496
832
-32
-128
-768
-848
64
864
-448
-1456
-304
1008
1632
1216
608
1136
-432
-48
272
992
1408
1200
320
672
16
1024
-1088
-432
-176
-592
-256
704
864
-128
-528
-224
1312
-528
192
64
1568
544
80
1216
32
-672
-912
-16
-1056
-288
400
-32
-608
48
528
544
1312
256
240
1024
-224
-1296
96
896
-480
-1312
-176
-384
-704
-1760
432
1424
-352
-448
-112
-1072
-896
-256
1744
1840
304
-1056
-848
-672
848
32
832
256
-784
-976
-336
304
1088
448
512
-128
1232
1696
640
768
304
944
32
-928
-304
-720
-32
592
864
256
-400
-1232
624
1008
-32
992
1088
672
1056
-800
-1536
784
512
-304
-1648
-816
960
1792
-704
-32
1872
512
-800
-1008
864
1824
128
-224
-448
256
272
-384
544
-208
-848
-192
-752
-1744
608
-80
-528
896
1072
624
1232
-432
-608
576
-48
-224
352
208
464
1024
1792
928
-2048
-112
560
-96
1184
192
944
-768
-2000
-912
1472
80
-1856
-1200
-848
-1728
16
480
-1200
2032
1904
1072
-64
-400
-960
-1408
1136
624
768
224
-144
-160
384
-368
-1776
-96
800
32
-736
544
560
-944
-432
1264
128
-848
-496
528
128
896
-224
16
-160
-32
608
64
80
144
576
-512
-240
-192
288
-1040
-112
2032
-32
672
32
-880
-1472
-816
-1200
-192
48
-1328
-1056
320
416
672
1072
736
48
768
384
-752
0
-592
1232
1504
496
-352
-480
-976
48
288
-240
-32
-640
1072
1344
1008
-304
496
1392
-352
-832
848
944
1104
-720
384
1184
1024
-64
976
1136
96
-1168
-1920
-912
-912
-1568
720
-1056
-416
656
-864
80
-704
-560
-1536
-720
-544
-240
192
-112
-1696
-944
-1120
848
2016
1088
-560
944
336
-784
-976
-432
192
-416
-656
-800
-1488
-960
480
352
48
496
1984
-736
-1472
-1376
-1136
176
208
1728
1776
512
912
-832
-1728
-1328
-560
-256
256
-224
-144
1280
592
-432
-608
448
16
-176
-1408
-304
128
704
-368
704
800
-352
720
48
384
720
576
192
336
528
-1712
272
-208
432
464
-704
-1920
-1968
-208
-480
-96
960
464
336
-608
-768
-256
-1824
-736
240
928
-160
48
336
720
304
-1056
256
640
1840
48
-224
1152
-144
256
1632
1776
-432
-992
-560
-432
-1360
-784
-688
432
32
752
-144
1856
528
1184
-256
768
128
224
-480
528
-1312
-1280
-1056
528
496
-752
-1776
-16
1024
48
-208
-304
1040
-928
64
640
-1184
-688
-1216
-720
1184
224
-240
1152
208
752
896
1296
-1136
-1056
-512
272
1904
720
-928
320
1312
944
-64
704
224
-400
-576
-416
1568
-80
240
512
-400
672
128
352
-512
-1232
-1088
-1072
1232
368
-240
-400
-720
-592
-1088
-1216
-1136
-1808
352
624
-752
-128
32
928
144
192
-528
-496
-208
-496
944
-32
-320
448
1760
1328
816
-400
80
1504
896
688
-672
-432
-848
-928
-576
1120
-160
-176
224
128
1904
1280
544
-656
48
1712
704
-1200
-784
-384
-1792
-1296
-1504
800
800
-832
-752
1008
208
-864
-560
-1104
0
304
1344
640
336
-400
1536
2000
1344
464
-1648
-1056
-656
-1680
-848
-240
368
384
624
-880
-848
-1232
-528
1344
896
-416
-752
1200
1152
816
1488
1104
1104
128
688
-1792
-1328
1376
176
-144
-912
816
1504
-816
-720
-720
-736
112
448
-640
-1072
1040
1856
688
-176
704
-592
-1552
-1392
-240
704
-1088
-2048
-400
240
1232
-928
-1040
-1440
-48
1200
-112
512
-928
-1920
-1216
912
-144
-656
704
816
1360
1184
1456
896
-384
1328
1904
1680
128
1712
448
-848
-336
-496
-144
-64
-1584
128
0
544
800
-272
336
-720
-768
704
-96
1872
816
496
1424
224
1968
192
800
384
560
432
-768
80
-608
-112
-16
-928
224
-960
-1904
-704
-800
-864
-624
-1488
-672
-1872
-16
48
1264
1104
1680
1360
-1440
-1968
-592
64
-688
320
-832
32
1712
992
1040
432
656
208
-1136
816
-16
128
-896
-768
0
-1216
-656
-480
-752
-960
-80
1888
-352
1296
608
832
928
1984
-336
-528
-944
-352
-1008
576
1136
720
1904
-16
-784
-992
-512
-704
-976
32
432
-1392
976
-608
-720
-1136
1200
48
-464
-1696
160
-16
464
-528
-1264
144
-832
-1616
-1008
-384
960
528
-240
848
-576
-1360
-1312
-976
-352
800
320
-768
-2000
-224
48
192
1728
112
-1344
-1440
432
256
-368
96
720
896
-1040
-720
96
-864
0
-224
-320
-528
-400
832
-192
-1152
-1072
256
400
-1280
-880
752
80
704
1168
-944
224
-480
-1760
880
736
-528
-464
-112
432
1040
1024
-560
-816
944
48
656
-176
-704
-1760
432
-752
368
736
640
-1216
96
240
-768
304
-288
-176
-1120
-1504
-816
-496
720
-256
-416
-400
-832
-528
816
64
352
-1920
-656
-928
-1376
832
-768
-208
1520
144
1424
320
-1856
-1024
-288
-1088
336
1296
-224
-240
-352
-864
1216
176
1600
-768
-640
-416
-1696
-1776
-1552
752
1360
-784
-800
736
-1488
-1488
-720
272
1104
1408
1104
416
-944
368
-880
400
224
464
1888
928
-256
816
544
1456
1664
-208
-560
608
992
-176
528
1216
416
544
688
1120
944
592
96
1744
2000
1504
480
1840
864
-672
-480
-32
-1632
-1456
-1456
-1056
-1312
-1280
-1392
-1600
192
1776
1520
-736
-608
-160
0
672
-192
-880
96
800
-64
1696
-448
96
864
784
1216
-384
-544
-160
-848
-560
-464
672
192
576
288
1808
832
-64
-624
-1760
-288
112
256
1120
-464
-896
1440
1920
656
1552
848
-560
880
1840
320
-1312
624
656
-608
-1360
-208
736
-880
-736
96
384
-176
-1232
-192
592
352
-768
-288
272
624
-1760
-288
1200
192
-208
1120
1376
816
1872
992
176
-144
-960
80
1392
1168
1568
1680
704
1392
1232
448
-304
-64
-656
-1248
-816
224
-16
-672
1456
-1504
-1616
-240
-272
1040
912
-1200
-992
1648
112
-1296
-496
1232
256
592
-672
576
928
-1536
-576
288
0
816
-272
-928
608
1488
768
1216
-1584
-1488
-480
704
256
112
720
-512
-352
-1312
768
-384
-384
816
96
-1648
-1424
608
-560
-272
-592
-640
-480
-896
-1056
-560
48
32
-1824
1808
432
1344
1056
112
-832
800
1888
1536
464
368
960
-208
1680
1152
176
-1040
-1824
-1424
-752
1616
288
208
-256
-832
-784
-896
-1168
128
768
864
944
608
288
-1344
336
-608
-1520
-1616
960
1552
240
784
752
624
-96
-288
-1088
912
-528
128
-944
-1808
-352
1456
1088
-624
-1664
-1568
-816
304
480
-256
-1088
-1664
-1984
-80
-1248
-1200
-704
-624
-160
1680
-128
-224
928
192
1712
672
784
896
496
960
-1008
-848
96
-464
-112
-528
-528
-2048
512
-32
336
1072
1344
48
160
1024
-32
192
-2016
-1344
896
512
1440
1008
1136
-512
-160
912
-688
-784
-320
-928
848
-496
-1872
-992
656
1376
1056
-112
-1888
-256
-736
208
64
-464
464
192
128
-304
1440
1056
400
576
496
416
-1840
-624
544
-608
-848
1856
1344
784
-400
-1168
-496
-400
320
-1776
-1168
-400
-144
-176
-80
-64
-1600
-880
-496
-1456
-896
-864
-464
-320
-352
-784
-1136
-464
1312
-1248
-816
1472
-16
-1520
-272
1040
-96
-1296
-32
-176
-208
624
-336
-1456
304
640
288
-672
-272
736
-160
208
-176
464
-432
-1456
288
1632
-688
-336
-608
-112
-928
-1776
-768
960
-352
-496
-304
-496
1568
16
-704
928
176
-80
-304
-256
128
864
208
-464
112
-256
496
-128
-1296
-1040
704
0
720
-880
64
-112
1424
672
-1088
-736
-576
-720
864
-80
-656
1472
-48
352
224
-768
-112
1360
160
576
-784
-512
-560
-1792
-224
816
240
1904
-176
-592
640
112
-176
-1072
-208
288
80
-400
-1584
-672
736
64
1696
112
-432
16
288
-208
-496
160
1184
1552
1504
-1872
-368
-336
-1664
-960
0
816
-512
-336
-1168
1136
1040
-1568
-1216
496
1168
704
1328
1072
1312
512
-768
288
384
1472
1616
96
-688
-1216
-1472
656
912
-160
272
80
32
-704
-768
-848
-96
768
880
464
-848
-304
-944
-224
752
-704
176
832
320
-1904
32
1376
-176
416
-1168
-576
-496
848
976
32
1312
-96
336
480
480
1376
544
-832
-1664
-224
-672
-1536
624
1744
-64
-432
1152
1488
-352
-1056
-688
-384
1008
224
208
816
-416
-352
-160
1152
160
-688
-656
-272
-512
-432
672
-976
-912
-1648
-832
-560
-656
848
576
1456
-1200
-1440
304
336
-480
-880
-128
-96
-1168
768
-224
-1712
-608
-352
160
-96
-320
-1136
1536
304
1376
1888
96
-432
-304
1936
720
-416
-464
384
-288
48
-384
496
-160
1568
1216
704
1264
128
1712
-1664
-1216
304
-720
-688
-1792
784
480
240
304
-816
496
1216
976
-448
96
-256
-1744
704
-544
-624
784
1280
1216
-752
304
-1408
64
1904
-1024
-512
128
816
240
1264
-208
-368
1456
560
-336
-528
-224
-160
-1984
704
336
-112
-1792
-1344
-1088
-1616
432
-624
304
-688
-832
-1472
-1456
-1568
-144
1024
816
1808
720
-480
208
1360
336
-800
384
736
1120
576
-1936
-1392
928
-800
-1328
-592
192
80
-448
-352
-1072
-64
-240
-480
-720
176
1136
112
-768
736
768
624
-752
592
-528
-128
1104
-112
480
-16
1088
240
-752
-608
784
1808
1328
-976
-432
304
-448
-960
-832
-1280
-544
624
848
-304
1520
752
592
1232
1488
736
-784
-400
-592
624
-208
560
-432
144
1184
784
-192
480
-944
-96
112
416
-208
896
560
224
-96
-752
-144
96
-928
224
80
1296
288
-256
256
-32
-112
128
384
1856
80
1904
768
208
416
-16
656
2016
736
-992
-688
704
-1360
-288
-336
-368
-784
-192
-576
-544
-832
-2000
-32
720
416
144
736
1440
336
1264
368
160
-416
-912
-752
-80
576
1808
1456
368
-144
-400
608
112
112
736
176
432
704
-560
-544
-720
-16
-304
-464
-16
1648
-224
-1680
-80
784
-688
-96
656
-128
768
-224
-16
-1168
-608
-2016
-1536
-1488
-1072
-512
-1472
480
1328
1376
720
384
464
880
576
608
128
368
400
80
-288
448
768
1312
512
-208
-1568
-1488
432
704
-16
-800
-496
-1232
864
1552
512
416
-1616
-1296
176
-1296
-2000
-176
1952
-80
-1408
-16
896
1696
0
240
912
-1568
-368
-368
384
656
-912
-1024
816
1744
1968
768
432
624
1008
144
-64
576
240
16
48
-208
-208
400
-592
1408
1248
-128
1488
816
-784
1088
1344
320
-528
-464
64
-480
-656
-240
-384
1296
928
464
-1808
-336
1472
320
-128
-640
160
-2032
-672
-752
-1040
-1440
112
480
960
48
-128
-672
-1312
-1824
-1616
688
1632
-400
-560
-1648
-1856
-1536
-1216
-368
480
-1424
256
1344
720
576
1280
-64
-576
1488
1424
848
512
-128
-1200
512
48
-992
304
896
96
832
544
416
48
-48
-432
-288
-112
1456
160
-48
-656
336
960
1680
1760
352
-464
-400
144
1392
-416
336
-480
-176
832
1552
-240
848
1856
592
-1376
-1040
-272
-16
-1504
-352
848
192
400
976
80
-288
96
-176
304
848
-1568
-1808
-1520
-1072
32
160
400
-736
-1008
-1024
64
1200
512
-352
-1056
-1456
-2000
-1408
-608
720
-1344
-1536
112
912
224
-1920
-736
576
-416
-928
240
912
-1488
-1440
752
1424
-560
448
-224
-1408
-688
-464
-352
-160
-1408
112
1344
-624
-48
336
-1488
-496
-1296
-560
1088
1552
-1952
-944
-864
-224
464
-80
-864
256
-224
-848
192
-496
-1600
-1056
-224
1264
736
80
-304
-256
288
272
288
304
208
304
816
-2048
-1040
1744
1056
128
384
192
-512
-112
-1504
-1360
-1648
640
528
-256
-1248
-160
-416
-400
1760
512
-240
-1856
-1120
-384
-112
256
1600
-544
-848
800
384
-368
464
-128
96
768
1248
-384
-16
-1568
-224
1120
704
16
-800
-1856
16
320
-528
-912
-448
976
560
-736
-1520
-1664
1472
-944
-1520
544
240
-1696
-1504
-1296
-288
1008
576
1872
1808
560
80
-288
-352
-1440
304
1440
848
-912
-304
1280
992
2000
880
624
1984
1728
752
-720
-304
384
896
-624
-752
-672
-768
-48
1392
1376
912
1504
96
-192
912
1312
784
-64
-128
1664
432
704
960
-672
-1776
992
-192
-912
-768
-560
-1056
-240
-528
-48
768
-2048
-1104
-176
-1664
-320
-176
-1248
-464
-352
-1888
112
-256
48
-688
-896
-1296
-720
-1456
-368
-224
112
-560
432
528
480
304
288
-464
-528
-1648
0
1440
-192
-1280
-1264
-528
1328
784
48
1440
-352
416
-272
-560
-16
-1520
-1024
-48
-1488
-960
-1536
-1088
-272
1120
992
-32
-208
1472
1088
304
448
480
-944
-1680
-256
1056
-448
-1328
16
864
-352
880
96
768
160
1408
-480
976
592
96
-80
400
-512
-304
-688
1328
704
112
-864
-48
-240
672
864
-272
720
-336
-928
-768
-1040
-864
32
-272
-160
-192
848
816
-1488
-720
304
384
96
688
1408
832
240
-240
1168
496
832
976
304
1984
-48
-944
-288
864
-592
-640
-592
-1200
-112
-1600
-992
-912
-1344
-1328
-1232
48
-816
-1248
368
-544
-384
288
-464
-1376
848
416
-1440
-640
464
64
-256
1040
-432
368
320
-656
1584
-640
-944
64
-208
192
-64
-768
-1168
656
960
1248
1232
-128
-16
-592
-960
-448
688
-752
-1392
-848
336
2000
1088
176
-832
-784
-352
-1168
-240
-912
1728
1456
256
688
768
880
672
-224
-416
-976
224
192
-80
144
288
1056
-176
-496
-320
-832
1440
1248
-368
-1520
-784
-160
-912
624
96
-320
2016
1712
1456
720
1632
-832
-896
-1040
768
720
0
896
-1696
-208
1760
1440
976
-288
-2016
-848
-528
768
1488
-992
-64
64
672
-608
-208
-144
240
208
1376
1888
-32
-592
-720
-944
1680
1904
64
-304
-496
-144
-624
-1296
1008
-80
-1216
448
16
-128
-464
528
288
560
-976
-832
208
272
-1056
-544
-160
-976
-1120
-656
592
-1024
-1152
256
-32
-1232
-1248
464
-976
80
-1296
192
-848
928
640
-576
1008
1104
960
-144
768
1024
544
608
352
-704
-832
-608
-192
-1792
-560
640
976
944
0
736
-208
48
-816
656
288
-240
1584
1024
-80
-48
-1168
-704
432
560
288
1408
1280
160
576
1680
352
48
-944
-944
-1440
544
1232
1216
560
-160
208
272
-1056
160
960
1008
1616
480
-928
-1536
-1216
1424
272
1136
1072
80
-544
144
-464
384
816
-1232
-32
-800
-1264
0
592
1040
-1072
336
1888
1296
1392
272
-592
256
176
-320
48
-880
-1616
528
1328
-1376
-848
-1424
-624
-464
-736
-448
1392
1584
64
-320
1312
1536
272
-688
336
1280
592
1184
48
272
-384
544
144
976
96
-1392
-1424
-512
-544
256
-672
768
-576
-1264
480
160
752
-48
352
-784
-848
768
-768
-976
-48
1312
784
720
656
-592
96
-1264
-544
128
-752
96
112
-256
-848
-704
1184
224
176
608
1088
1232
224
544
544
-704
-1824
-1968
-208
-224
-256
368
32
-816
240
496
576
-464
864
800
1168
1376
112
192
544
-1344
-1328
192
1104
976
208
864
-1568
-336
1024
560
-320
1200
272
1328
192
16
-752
752
144
-928
1024
304
1152
368
96
-1136
-896
-576
-1520
-576
1520
112
-1552
928
864
-624
992
-768
-2016
-432
432
720
-448
-912
-1232
1552
720
-224
512
0
-144
1248
-640
-1152
1840
928
-1168
-928
-880
400
1760
-1136
-784
-656
-1600
32
96
864
-608
-1536
-224
608
160
1568
1040
-400
928
1824
1072
352
720
1360
352
-208
-464
-736
592
-256
1200
1088
-704
240
768
112
288
192
512
432
48
-368
64
656
32
-896
-224
848
-80
-1136
-432
-352
-784
-240
1648
-416
-736
-656
-1232
-112
-192
-912
-528
144
80
1216
272
-368
112
192
-1024
496
1360
-128
-80
-16
-176
-1088
784
-432
-1664
-544
-336
384
-544
-1344
-1184
352
592
-752
-912
-272
560
-1008
-256
160
-256
-1520
-1808
-112
1584
0
-784
544
1232
336
-1344
-432
-688
32
-112
-880
352
1824
1104
256
1024
512
-992
528
96
-64
160
-544
-160
160
-960
400
1376
-592
-1472
-336
-688
32
752
1312
240
-256
320
624
256
-48
-1280
-160
-1568
-32
-400
-1072
-1376
144
-64
-496
-1520
-1488
-1296
-800
1312
368
-1024
480
1296
-1536
-1136
1808
1680
144
-16
-800
-368
432
1232
80
-32
272
-240
704
128
-912
-1216
-880
480
-48
-1808
-1008
896
240
-304
-928
-944
-320
368
-672
16
1200
-208
-1152
-336
-1328
-512
256
1216
-864
-688
160
1520
-1232
-448
-176
320
0
-416
-432
-1104
-1072
-912
-1072
-528
1008
-224
128
-400
960
1728
528
-1120
144
608
496
416
-464
768
-16
-992
160
-96
-1392
272
272
-1120
-768
-16
528
720
752
-1184
-640
-1056
-272
-224
416
1424
1616
256
-48
-912
-1552
48
608
-720
-592
-48
512
624
1456
1120
-1072
-592
672
1040
1104
-1056
1024
-576
-1632
-1904
496
-160
-832
-1792
-1680
1392
1984
1712
560
384
-64
-288
16
-192
-976
-400
-1472
-608
528
480
-496
48
320
176
96
-1440
-448
288
1568
-240
-224
1104
384
864
1728
272
-400
1792
-608
-304
864
384
912
1520
1216
-736
-560
-1248
-1776
-1216
-704
-1376
-800
-496
-48
-736
1408
-1120
-912
848
368
144
1744
0
-80
880
112
-736
640
-1024
-1952
-960
944
1584
32
-1344
-752
-192
1632
320
32
-1904
-800
384
112
144
-432
144
272
432
944
608
1696
528
608
1248
528
112
-1056
-944
80
-176
992
448
-368
-640
864
432
1312
1056
256
672
368
368
368
624
1616
1360
176
1680
64
-1216
1184
-320
-16
-128
-448
-560
-176
176
1168
768
-1616
304
1856
-32
-560
-768
-624
1136
1216
224
-944
-1088
-640
368
224
848
656
-48
176
928
176
432
-208
688
-64
144
-384
-944
-352
160
-48
-720
-1024
-1168
96
-16
-1296
-672
1248
-768
-128
416
-896
-1040
-976
-320
992
448
2016
1264
512
688
592
-1008
784
-656
32
720
592
-384
-1008
-928
-1152
1344
1984
-896
336
224
-1744
-560
656
1120
464
1408
608
-640
-928
-368
496
400
1872
-160
-432
544
-16
-368
-1632
-1872
-1104
-1040
-816
560
368
-208
288
1600
80
-784
-1456
-1104
-624
-752
-944
96
224
272
-672
32
-64
-1488
864
960
-1024
272
1088
1776
32
1056
32
416
-736
-1376
384
-368
-48
288
-272
704
0
480
1376
1600
1184
1440
80
416
880
-96
-64
192
1104
1248
496
-1200
-944
-240
-1632
-864
-288
416
320
-208
896
656
384
752
-320
-928
80
1264
512
1520
272
-800
-800
544
0
-1584
-384
-480
-256
160
-1216
-1456
-176
-2032
-384
1568
1456
672
-192
1488
768
1632
1120
-1872
-1664
-832
224
1008
-1248
1744
1776
1360
-1088
-1712
-704
176
1904
800
64
128
1632
704
688
-384
-976
-1360
-336
-352
-880
-1712
688
1472
32
-160
-432
-1648
-176
-128
64
416
1712
960
1392
144
848
736
-976
-560
-272
-1280
48
-144
-1056
-1344
-1520
-464
736
-128
-1632
-704
192
-304
-400
976
944
-336
1120
-320
-528
240
1072
1200
944
576
-256
64
1328
448
112
192
528
432
1296
160
288
1568
1440
1168
-752
-240
-576
-256
-912
-1152
-464
32
-1392
-1024
-368
352
1088
128
-880
448
576
-592
-176
-160
-864
0
-736
1360
1584
1632
1024
944
-336
224
-704
-1584
-736
-320
-736
640
-512
-688
304
832
512
1712
464
-208
-336
832
-816
-1376
-1616
-1360
448
-768
-1168
-352
-320
880
416
-544
-96
-1248
-128
1552
-1216
-752
1824
1120
416
-672
-320
-352
-368
-784
-1056
592
1024
-1056
-1584
464
1712
-656
-1344
-752
-96
432
464
-224
368
416
-896
-384
-944
1136
592
496
-480
432
1504
1808
-272
-496
-592
-1792
-320
352
-384
1168
-1456
-2000
-256
-688
-1056
560
-384
-1760
-1088
-704
192
-80
528
1088
1888
16
-544
-256
816
160
240
-240
-192
624
-352
-128
-1552
-1712
896
864
352
1472
432
-1040
176
0
-256
544
1024
1840
1072
480
608
304
-432
-1744
-16
1712
1568
160
-48
208
112
1184
752
208
-1376
-2032
-272
-368
1264
1008
1056
208
672
800
784
-624
-1520
-1264
-336
-320
192
-992
-208
2032
1200
-1584
-656
144
-1696
-320
32
-720
1536
240
560
-96
-1312
-960
368
288
464
528
-96
400
496
256
560
-384
-96
-480
-240
1200
144
1088
-272
-1936
-240
-1344
-592
-784
-768
16
784
-128
-1184
-1376
-672
-384
1008
1776
-448
352
-1824
-512
448
464
-448
-928
128
112
1296
768
480
976
1024
1248
336
-272
736
-1008
-1872
-1424
-1696
0
-848
656
320
0
464
-960
320
1840
432
-320
192
48
1424
-1056
-2000
-1856
-144
192
704
112
-1808
-384
496
1184
-576
-592
-64
-960
-1536
384
96
672
-400
-720
1216
-448
592
768
-448
-1648
144
-480
192
1312
288
-128
-208
-1680
-576
48
-1184
-464
-160
-336
944
1040
-272
-112
-1744
-224
1264
1680
592
1536
960
-752
896
864
1216
-768
-1248
-1008
-224
-352
-896
896
1136
352
-800
-160
736
1664
1440
1776
976
304
-2048
-1136
1024
-176
512
-1536
-1408
-560
-1104
320
944
1520
1904
64
-416
-1472
-624
-1536
-736
288
560
800
896
832
752
1360
1200
-784
-1168
-80
-800
-384
-368
-80
464
1184
1216
176
-464
512
272
176
48
-416
496
-752
-1744
-16
-1600
176
-944
-1072
448
-480
-352
-672
-1488
416
672
-64
-1024
400
-640
-656
320
816
384
-608
-496
384
784
48
-1264
-512
-880
688
1904
1184
832
944
-272
-1504
80
704
624
384
656
288
-144
-976
-928
528
768
-448
-560
-608
-1264
-256
-1408
-1328
-400
32
320
-128
-1520
-1664
-64
272
-912
-1056
-1184
-528
800
1344
-320
-144
416
-1200
-1232
-320
832
-880
-160
-672
240
1056
-96
432
912
-720
-144
784
768
128
-464
-1008
160
80
-304
-992
-336
-272
448
1248
560
1584
400
256
-464
1056
752
160
240
368
384
-480
-416
1696
1888
944
-1184
-1024
112
64
-1696
-896
-48
-1232
-864
928
16
496
272
-112
-768
-448
512
16
1104
-928
-704
-416
-816
-2048
576
400
-64
1856
800
-256
944
-240
-608
192
16
1024
-1552
-1424
1360
112
320
-64
640
880
-1408
-1616
-1184
-768
-1280
-800
-544
640
1280
448
1008
-176
352
144
16
1008
1152
432
624
-240
-1104
384
240
256
-800
928
608
1344
-1008
-1696
304
-720
-672
-768
-1920
-672
-336
-784
-496
-512
-496
-432
-208
576
-800
576
112
-496
-992
928
48
-656
688
-832
-656
912
624
-1184
256
-1232
-432
1264
320
-624
128
-864
192
160
-368
-480
-1376
1072
-480
-1440
112
-32
-1968
-1776
-1872
-112
-576
1984
2016
32
768
1632
128
176
512
-128
-1104
-512
1264
1280
416
432
1152
1360
208
112
1472
-64
-1216
832
48
-128
352
-608
-704
64
-928
-368
624
1648
608
-1616
-1408
304
-256
-1296
112
-496
1520
544
-96
-48
-1072
-1632
-896
960
1008
384
-1328
240
1904
1088
288
-192
-720
-96
1376
560
-496
624
-208
-304
-32
-1232
-32
1040
176
640
-928
-208
16
-880
432
416
416
64
-416
48
1184
416
80
-896
-1712
-128
384
1456
176
-1376
-640
-1424
-736
224
256
-400
-1456
-272
-960
-1904
-176
-16
1552
528
-528
-1152
1072
1760
1440
768
1776
32
800
736
384
1424
-240
-352
-1584
-832
880
320
-192
-592
32
-80
-608
-1232
-784
-1120
-144
368
64
144
240
-208
768
368
-32
-1216
0
272
-320
-16
-1072
-352
16
304
2032
1504
272
1296
544
512
-368
416
720
1200
-352
-80
288
-1088
560
1792
-576
592
-768
-928
-512
336
880
640
-1024
-1744
-464
32
-1088
-1744
-1840
-1312
384
720
48
-336
-784
-896
512
560
32
1312
384
1152
-352
-896
-1776
-592
80
0
592
896
-480
-2016
-112
1216
1184
576
160
224
-848
-512
64
-64
528
-784
1024
160
512
464
-944
-320
-864
-1680
-512
880
208
-1088
-928
-800
-1392
-1760
-1280
-1840
-528
256
-544
320
544
800
624
592
-320
-672
-1216
-1104
400
-1232
-208
-1552
592
464
1520
1696
208
1520
-624
-352
-560
-1424
-128
944
-880
1744
1280
1552
-80
64
736
-384
144
-1792
80
-672
1488
1008
-384
-1808
-1360
-160
-528
1072
144
-288
224
-432
-1840
-1776
-1376
-576
1056
448
400
-992
-1648
1408
-176
80
-1536
-80
656
-960
1040
688
-1776
-240
816
1248
1248
1248
-960
-928
-800
704
-672
-1264
-752
-784
-1360
-16
160
-48
576
912
784
-1088
-848
800
1536
1248
-64
592
-128
368
864
1504
1488
288
672
400
1584
336
416
-272
-1856
-960
240
112
96
752
-848
-416
672
-896
-576
-1616
-192
1488
272
-288
-384
704
-752
-1696
-1104
-1040
208
-720
544
64
416
1472
256
-416
-880
-80
-368
-624
-832
704
1568
-304
-976
-1216
-1040
-64
528
-432
-288
-1264
112
-1344
-176
720
-1024
-1408
-1248
-256
-224
352
736
176
-640
352
-608
-320
416
-784
-672
-1136
-32
1184
1440
480
656
224
-464
-1424
-1408
-48
1072
384
-208
592
288
-752
-2016
-1456
-1296
-1872
-2048
288
80
80
480
-304
880
1472
720
-368
-704
16
-1200
-576
-672
-80
-16
-304
0
1184
1136
640
-880
-1664
-128
256
-1680
-672
-1040
-112
1376
-944
-1120
-16
-784
-1504
-368
-592
-1456
-304
160
-32
-1472
-1552
-1824
528
1664
1504
976
-1280
-1424
-1408
-16
560
80
-1024
-768
736
528
528
768
-192
-624
-48
768
880
160
-576
-800
-608
560
400
-64
-352
592
1440
160
-480
560
480
96
800
1200
160
-432
-992
-384
-1088
-1040
944
-432
-1280
32
-816
-1104
848
160
-1040
-992
-1600
-576
144
1440
-192
-480
1056
544
576
-400
512
496
912
848
2000
784
-1328
-1104
720
96
1024
560
560
-672
-560
144
736
-448
720
-208
960
944
-912
-816
-208
1408
1008
976
384
1248
1552
64
784
-944
464
928
640
480
912
1936
176
-208
-1616
48
432
912
1184
928
-320
368
-192
-288
704
-1568
-1200
-1888
304
1408
-928
-272
-688
-1264
-368
-400
-160
-704
544
1248
-848
208
416
-624
-160
240
-288
-1360
-1952
-1440
96
-432
-1344
-640
688
32
2032
1056
256
-464
816
48
-352
-1264
-160
-368
1568
400
432
-128
1504
-320
-1248
-1104
752
720
-384
-512
16
176
-640
112
608
-96
-368
-1056
-192
-544
-1264
192
-944
1760
592
-464
-1152
-960
-288
592
544
-96
-1184
-816
-1168
832
2000
80
464
1296
1568
1216
-128
-768
320
544
1248
1424
-176
-1008
16
-208
1120
-848
672
1712
1152
-544
656
720
432
304
-1568
-1536
-1136
-16
-288
-592
-288
896
-464
-896
-1488
-864
-784
-272
-1424
16
224
80
176
160
560
-272
-1488
-832
-144
-592
-112
816
-560
-1840
400
-144
-16
-528
816
-352
-1072
0
304
624
-976
-720
-528
496
944
160
-1232
-672
1504
1696
368
-176
864
464
-896
-1280
-896
272
544
-320
1328
736
176
1056
-1008
-192
288
-288
-1296
-384
-1024
-544
-816
-1680
1424
1472
208
-1360
-1376
-544
-1552
48
1696
848
192
-1136
-1056
-512
1168
1744
432
-1232
0
96
208
-1104
496
-1216
-1600
-368
784
1632
-432
-1936
608
-1264
-1184
736
688
-512
-624
-928
512
1472
1904
1120
576
-832
400
-400
1184
1680
384
320
544
-992
-800
-352
272
1024
352
192
-288
-1216
272
-832
-688
864
720
-272
-224
624
-688
-416
-272
1424
-432
368
1728
1072
-384
-640
-480
-1248
-1408
-848
1616
640
-1136
16
576
-240
48
608
-240
592
-256
-1056
544
1392
-320
-80
432
1104
864
800
-496
-1312
-624
784
640
1360
944
-624
-416
-672
-576
-1664
-624
784
208
-784
-864
-48
1072
1632
1376
320
416
400
1504
1712
1280
160
-240
-704
352
-1440
256
-416
64
608
1952
448
432
-464
-1776
-1008
-160
1248
800
336
16
16
-1616
448
592
-48
336
-16
1024
-576
32
-1120
432
-48
-560
