32
-96
224
-80
-256
208
832
464
-304
64
-144
-368
-400
-352
-368
-368
-528
-608
-272
144
128
320
208
144
272
0
128
192
-32
-272
448
-176
-192
288
208
-576
-464
-432
272
-208
-288
-160
-96
-96
16
-128
112
-224
208
272
-288
-48
32
208
112
272
-256
-448
272
192
-144
160
-160
-96
176
-80
-208
-128
192
-544
-512
-16
48
-112
16
32
-80
-16
-48
640
144
0
64
-192
-256
0
-80
-176
-80
-320
-144
384
192
-80
0
176
48
-272
-512
-64
-32
464
-336
-352
-32
-160
-160
16
320
64
-240
16
240
240
272
336
352
432
-64
-512
-256
-288
-32
-32
-80
-240
64
64
-224
64
416
176
0
-240
64
16
112
-432
-224
384
272
-288
-64
-608
-544
272
-160
-192
160
112
336
-96
-288
-256
-160
368
272
128
192
-16
96
256
-16
592
272
-608
-608
-80
176
496
608
-32
-192
-48
48
32
-16
-80
-224
160
528
272
176
-192
-384
-256
-80
192
224
-320
-704
-112
176
16
160
288
64
592
-128
272
432
-560
208
112
-320
-160
-480
-160
144
288
-208
-240
-96
-16
-288
-112
192
592
208
-48
32
-192
-80
-160
304
560
-64
-160
-16
-80
448
272
-16
112
-32
176
192
160
608
112
32
96
64
-592
-96
176
-48
192
-176
-96
-416
-272
16
368
304
208
272
128
-48
-208
-96
496
208
608
-64
608
336
384
304
-64
-64
-176
-176
-448
-272
-384
-256
-240
-64
48
416
-224
-400
-368
-160
-64
240
-320
-224
96
528
816
432
128
-256
-304
464
656
-128
48
336
240
-32
32
-192
-48
96
-240
0
272
224
288
560
192
80
-320
-96
192
-16
48
-48
-272
32
128
144
128
336
272
352
-288
176
464
-48
-96
0
-160
48
-240
80
-304
240
288
80
16
0
64
-48
-16
-640
-464
-336
224
-16
-368
-272
-48
-192
-144
256
-304
-160
16
96
240
240
-144
352
96
-592
-64
-16
48
-320
-368
-96
-304
-224
176
240
-64
-256
-192
-144
160
-48
-80
-240
-32
304
-64
-384
-32
64
432
576
432
-288
-144
-224
-464
-528
-224
-240
-80
-304
240
112
496
272
32
160
160
-16
0
96
-96
-400
-256
-432
-224
208
-272
48
448
128
-336
-160
-400
-432
128
96
-192
-288
32
32
-320
-336
-192
-48
64
176
320
384
672
-304
-384
272
160
-96
144
144
304
384
-16
-48
0
16
352
112
-96
-304
-496
272
64
-144
0
-160
64
336
-256
-496
-272
-272
32
48
-128
-304
96
144
160
-144
-144
368
-32
-240
-240
-112
-512
-384
-192
-320
-176
368
96
144
432
176
-256
-192
208
96
80
64
64
32
-368
-336
-544
192
96
-368
-176
-240
-320
-96
288
176
-240
528
48
176
144
-448
-272
-432
-288
-176
240
96
208
208
-32
128
-96
256
-368
-496
-112
-320
240
-224
-320
-192
-656
-544
48
64
-544
-544
-416
-304
128
16
-192
-80
304
352
112
-176
-32
416
48
-96
256
560
64
48
288
-16
176
272
64
-160
-336
-192
-16
144
64
-80
192
128
-96
-176
-160
-240
96
224
-800
-496
-128
-384
128
96
64
-176
-304
-144
64
16
80
-512
368
112
-240
32
112
128
-96
-208
80
0
-64
-304
336
-32
-352
400
416
400
736
224
-160
-304
160
-32
-16
432
304
16
176
-80
16
384
-400
-224
-16
352
240
48
32
176
-96
16
-48
336
112
-64
32
32
272
-256
-176
560
512
656
416
144
-224
-464
0
-176
112
192
0
272
400
-96
-496
176
144
-144
-176
-352
-240
400
144
192
-144
256
352
-208
176
-32
-64
16
0
-144
464
336
272
176
448
816
928
304
-16
-128
-608
-112
80
16
624
-112
-464
16
-416
112
112
-352
-288
-256
-48
-400
96
-384
-576
-400
-32
240
144
-176
-128
-32
-368
416
432
-544
112
336
128
32
272
304
192
304
-304
-352
48
32
-48
128
-320
80
736
224
224
-32
-512
-704
-560
-704
-224
224
32
-240
224
64
160
0
-112
-160
-688
-544
256
208
176
304
400
720
240
608
-64
-528
-96
16
496
256
-64
0
-416
-416
-448
-144
64
-192
-304
96
-48
-320
64
448
-112
-464
-144
-16
-80
32
272
416
272
272
496
112
-416
-128
-32
16
48
112
-464
-240
-400
-128
-112
-112
128
16
48
192
288
336
-80
48
400
384
-176
48
-384
-240
-128
-272
-48
96
192
-144
-96
304
176
672
656
608
-32
80
80
-240
80
-96
-336
-64
-544
-272
544
656
352
64
32
304
208
-160
128
-112
400
112
-64
-288
128
-112
16
144
-32
192
-48
16
-304
-400
-80
-48
32
-448
-288
-176
-144
-496
144
112
-144
-192
160
352
96
-192
128
-80
-144
-208
-528
-832
-560
-16
-352
-512
64
288
-208
64
-48
96
-576
-832
-240
176
-336
-304
208
0
-112
-240
-256
-208
-80
-240
-384
-64
160
240
-80
-576
48
240
-512
-304
224
576
208
-384
64
176
-240
-304
-544
-368
-112
16
-368
-448
-256
0
160
160
112
240
-16
-448
-96
-128
-112
16
16
-80
192
-272
-624
-320
-304
-32
-16
176
160
384
144
32
-176
-256
-256
160
-208
-288
-608
-640
-288
-336
32
160
-160
-128
-192
-128
-384
-96
112
-80
-240
208
272
-128
-320
-224
-96
144
-32
32
-32
160
272
128
-464
-336
-432
-448
544
336
-160
416
112
-208
-16
96
128
-688
-272
-160
-64
-288
-64
272
368
176
176
-176
16
-112
-752
-432
-656
-464
-224
192
96
-256
192
160
400
80
80
-240
-16
272
-384
-224
-320
-176
704
352
272
32
208
480
224
576
448
432
-48
0
-128
-96
-544
-256
96
192
-32
-208
-256
304
192
208
240
-416
-240
-16
-64
320
224
368
-80
-144
-80
-240
-48
-64
16
576
272
16
32
-544
-592
-128
224
448
416
48
-256
96
112
-304
-32
320
0
176
-16
-192
-208
-560
-48
288
144
336
16
-336
0
144
-96
176
0
-224
-144
96
608
576
400
-160
-560
-208
-224
96
-48
144
64
-96
64
-224
176
464
384
0
224
624
80
192
-32
-272
-496
-528
-368
-32
-80
-320
-80
-64
-224
-16
-208
-32
0
-32
-96
-176
224
-256
-192
-16
-192
-112
-80
-240
-208
-368
144
128
-224
112
80
128
-304
-352
-496
160
336
32
-48
32
-96
208
352
480
208
256
64
-496
-368
-96
-176
-80
-48
272
272
-400
16
32
-112
352
-16
-160
64
32
-96
-256
-528
-288
16
224
-64
-32
96
-64
336
-176
-304
-224
-32
64
144
128
-272
-448
-80
96
-16
240
-160
-128
-368
-512
240
-144
-32
368
336
0
-384
-672
64
832
208
-432
-80
-336
-560
-416
-208
176
96
-256
-688
-352
-16
720
208
-208
-304
48
320
400
224
528
-32
128
224
-48
-608
-160
-304
-544
-416
-64
-544
-320
32
-144
32
128
160
-48
464
208
128
64
256
-80
-128
16
160
0
0
-192
-496
-656
-192
160
160
416
928
208
80
128
96
144
384
192
-320
-288
64
160
544
112
48
-128
-80
-256
-112
-80
480
288
-192
128
288
-640
-256
-304
-208
-704
-224
-192
-144
368
-64
-144
80
448
240
32
-176
208
-192
-400
96
208
192
192
64
400
144
0
464
80
48
-256
96
-304
-384
-304
-48
384
176
368
-16
384
-304
-352
160
336
80
-160
0
-48
448
-112
384
64
-272
0
96
-480
-128
-192
432
192
0
-288
-384
-304
384
-16
-112
-48
-64
112
-464
-96
592
48
48
-32
-16
-80
512
-48
-48
480
400
80
432
272
-192
-400
-64
112
144
-192
80
336
208
112
64
0
-320
288
80
0
176
400
48
-240
-96
96
-272
-192
-448
-320
-80
112
-160
-208
-96
336
-208
-352
-384
-256
-624
-16
336
-240
-288
112
32
-32
-64
-48
480
528
144
-432
0
64
-96
320
320
32
-80
-304
-160
-176
288
336
64
-560
-256
-304
-256
-96
32
16
96
64
112
272
64
0
224
176
160
-160
-656
-608
-240
-384
-352
-80
384
544
0
-144
-32
-16
624
144
-80
-224
-48
-32
-96
-240
-352
-144
320
288
208
-48
80
224
368
-144
-160
144
80
-304
-16
-64
-16
352
-144
288
512
-48
128
496
208
-528
-320
-256
-576
-752
-272
80
112
64
-64
192
432
608
512
480
560
-48
208
432
-48
-176
-560
16
320
624
16
160
464
464
16
-288
176
32
16
16
-304
592
512
272
384
608
528
224
-32
-112
-400
-544
16
16
240
208
208
192
416
576
208
160
16
16
16
160
384
368
112
-336
224
-272
272
-224
160
192
416
-96
-48
96
32
416
1040
720
320
464
256
-336
64
464
160
-48
-352
128
-64
-256
-480
-176
224
272
176
400
688
240
-64
-112
-48
-80
-48
-176
-16
-144
48
432
240
32
96
-336
-32
272
80
-112
288
160
48
96
320
96
112
96
192
672
-144
96
32
-32
-48
-320
-144
96
336
-32
272
160
320
336
16
32
464
528
-48
-224
-288
48
224
384
144
144
16
48
-240
16
-560
-464
-464
-240
-112
224
0
240
-160
32
304
48
-192
96
624
80
256
272
-176
-496
-288
-208
-208
-208
112
-32
-112
-384
-352
320
-48
64
128
-144
-352
256
48
-288
544
480
128
160
176
-112
-192
224
208
-384
192
-96
-384
-144
0
48
80
-112
208
48
-80
176
-704
-16
272
-544
-256
48
64
688
864
560
224
48
0
256
144
-128
-480
-176
-128
224
176
64
208
-64
-16
-160
-80
48
-48
-160
64
-192
-336
-560
-512
-208
176
368
288
48
-256
-528
-368
192
144
80
-256
32
48
-256
-304
-272
-112
-320
-64
-96
-160
0
224
-96
-448
-272
464
624
160
-336
-448
0
96
-256
-256
-128
48
160
112
128
-240
-480
-448
-256
176
-160
-432
-416
-144
-144
-432
-192
288
224
-400
-128
-96
-16
-368
320
384
528
176
96
96
224
-80
16
-160
-208
240
240
160
288
208
304
256
-16
-448
-432
-224
-384
-112
-112
-304
-272
-272
144
-384
-272
-448
-496
-176
160
272
96
208
368
-416
-592
80
368
272
272
-176
-176
320
576
224
-32
240
256
528
800
352
160
272
80
32
-288
-112
160
288
-96
-784
-432
160
96
-112
336
-352
-656
-512
-240
-160
-64
464
-224
-288
128
448
-560
-272
16
160
128
400
-208
-512
320
224
-128
-208
80
160
96
480
880
480
320
128
-48
-64
160
128
-144
-416
-16
96
-320
-144
320
-64
32
-416
-448
-576
352
560
-288
-512
480
608
-272
-240
-208
-112
-368
16
128
-288
112
-528
-560
-224
-208
48
-80
96
0
-272
-112
-352
-112
80
-32
48
464
512
704
352
128
448
-160
-352
-160
-272
-64
224
96
416
96
-160
-112
-272
288
464
-32
-96
-112
-208
-368
-144
16
-64
272
640
224
528
592
128
-48
-128
-160
16
192
-416
-560
-16
-272
-272
-32
48
-240
-96
-160
-400
-128
240
64
-160
-64
224
-128
-144
-512
-16
416
384
-32
160
320
624
-64
-208
80
256
-16
160
-48
-48
-144
-80
128
64
-160
-544
160
496
224
96
-160
48
432
-352
-240
-208
-64
384
512
240
-32
96
-288
64
-16
-48
-16
-192
-256
-64
-48
-448
-368
224
384
128
464
-16
-160
-96
-144
-432
-576
-112
192
-176
144
-112
192
272
304
64
-144
-32
-208
64
16
16
-64
-336
-544
-512
80
288
-192
64
144
304
192
352
272
-32
-48
-80
368
128
-144
560
224
-80
192
-64
-192
272
464
-96
-560
-96
-64
-304
-96
16
48
144
448
-384
-448
-272
-400
-192
320
-80
-80
16
192
-400
-160
-32
560
592
336
-144
-96
-160
-192
-32
-576
-576
0
-112
256
432
80
256
336
416
-144
256
64
-112
192
336
144
-144
176
-64
-160
-128
-432
-480
-16
0
-112
224
576
288
832
336
-432
-432
-320
112
192
-16
-304
-96
-256
-192
304
-80
-384
-272
32
320
-240
-208
-256
-224
576
720
208
288
128
368
208
224
-32
-368
880
480
-192
384
368
-128
-32
0
-224
-192
-352
-144
-336
112
0
128
-64
-336
-96
0
352
32
-240
160
32
-16
-112
-176
-528
-624
-384
0
0
-112
160
-96
-112
48
304
480
-96
-16
-48
-352
-288
-304
-32
-272
-176
272
-176
-32
-256
-352
-320
-80
704
-176
-416
-768
-320
512
320
-400
-320
-352
0
128
-80
-368
-528
-592
-448
64
-48
-48
320
688
208
-464
-96
96
-144
-160
80
-240
48
-80
128
160
-432
-272
448
224
64
-288
-192
32
-464
176
-16
112
160
112
416
816
192
-512
-464
-480
-160
288
208
32
144
256
64
464
224
-128
-80
-368
-416
-176
-176
-176
240
608
144
-416
-80
16
-352
48
224
80
-32
-336
-288
128
-16
208
-112
-272
-384
-240
384
480
160
112
160
-80
432
-96
-80
48
-80
0
208
48
224
96
288
192
336
-400
-480
400
368
-16
192
128
304
-96
144
128
-32
-272
-288
-192
192
-64
-96
-656
-512
128
144
16
-160
192
112
-672
-736
0
240
288
128
-256
432
-16
16
560
-128
-160
160
16
-640
-384
240
256
336
96
-16
-368
-112
48
-176
144
0
-16
-112
160
0
176
352
112
-192
-320
-224
80
-32
-64
80
16
-336
-496
-576
272
272
-272
-208
-64
32
-112
-240
0
384
400
-320
-832
176
560
192
-400
128
544
48
240
464
352
-368
-96
304
192
48
-32
288
672
112
-320
-256
304
288
-160
-336
-160
0
-112
48
-256
-304
-496
-272
-496
240
400
-176
-112
192
288
-80
-144
96
-32
48
240
-16
-112
-80
144
-336
-112
208
208
-48
64
0
-464
48
816
224
-80
-192
352
-528
-784
-768
-112
112
48
240
-80
-192
176
-32
-224
-128
0
-112
-368
-64
-80
-192
-352
-176
-384
-448
-464
-320
-592
-592
-288
-400
-16
112
-160
80
384
192
256
-48
144
-256
-16
32
48
-176
192
624
640
-32
-272
-352
-240
16
96
128
336
128
-32
0
-64
-64
-16
-80
-560
-432
-432
-192
-416
-192
32
-32
-144
-160
-288
-256
-256
-368
240
-16
-144
-176
-544
-32
32
-496
-224
-464
-432
-544
-512
-128
-48
-240
-512
-64
384
-16
-640
-432
-32
-16
-112
-112
240
224
-176
208
-16
-384
160
368
128
448
96
448
432
208
64
-96
160
96
416
512
-96
160
288
368
-16
0
-80
128
80
-480
-32
-512
-272
448
-320
-48
-128
-240
128
976
592
32
32
-96
112
-160
-496
32
-192
80
80
-112
-656
-192
-176
-448
-368
-160
-64
-176
64
-48
-256
-208
-32
368
464
224
80
-128
-320
-592
-864
160
-128
-128
320
464
0
-480
432
208
160
272
128
-176
-336
-128
-272
64
144
432
448
32
-432
-448
-256
128
16
-496
176
-16
-64
-96
-64
-144
-448
-192
-112
-240
-32
-112
-240
176
-64
64
256
160
-112
-368
-96
224
96
-240
-544
-48
256
-480
-432
-528
-240
-272
-272
-320
-144
-272
-256
176
0
128
240
-16
-64
-32
-464
64
528
608
96
-112
256
112
416
288
-32
48
-32
464
608
-144
-144
272
160
304
-64
-608
-608
0
144
304
112
-256
-320
-176
-224
-64
192
240
320
0
-96
432
-288
-624
-48
224
16
-240
80
112
544
432
512
-80
272
368
-224
-96
656
384
352
144
160
96
144
384
224
-464
-160
320
-336
-112
-96
-352
208
0
96
80
-512
-80
512
0
-16
128
192
128
32
384
736
80
192
320
48
-208
240
48
-144
48
-80
-336
-336
-80
336
192
-208
-576
-256
-208
368
-304
-240
-208
112
0
16
32
32
-160
-256
-48
-224
-64
-128
-448
48
288
80
-96
0
416
-16
-336
-400
-176
128
-48
-240
96
64
192
80
304
352
416
208
144
752
528
176
-80
-80
704
384
-32
0
-64
-448
-288
-96
144
-144
-112
-496
-80
160
-64
-400
-320
-32
-64
-80
-480
352
720
-16
-48
-640
-160
-208
-96
320
288
-144
-528
0
208
96
320
624
64
-224
176
352
192
144
208
288
192
-96
48
128
160
-352
304
816
464
48
144
112
-80
144
-288
-432
128
1104
400
-32
-96
-176
-192
-144
192
-32
-416
-176
-48
288
128
16
64
176
0
-368
112
-176
-304
80
-192
-144
0
448
256
-64
608
480
-336
-288
176
224
400
288
272
96
-112
-176
80
-160
-384
224
304
256
720
400
-288
-176
-192
-96
-192
80
304
464
256
496
144
208
368
-224
-240
-304
-368
-368
-128
224
160
-80
32
-176
-176
-96
352
-224
-64
-64
-592
-176
288
400
304
-208
-288
32
80
-64
208
-176
-160
-480
32
-64
288
368
288
192
288
-208
80
384
112
256
-208
-336
64
160
80
-160
-112
96
-192
-224
-48
160
64
208
208
-144
-208
-64
-128
528
224
-160
-272
-112
-416
-48
208
-128
-192
128
32
-80
-128
-96
208
-160
-128
144
-32
-176
-336
-496
-256
-160
-112
-64
-448
112
432
-80
-176
16
-384
-608
-400
-80
240
144
192
224
-16
-400
-928
-288
-64
48
320
-96
-560
0
16
160
-208
128
416
112
-16
16
-192
352
432
224
416
64
112
-480
320
464
80
-384
112
192
704
800
32
176
-160
80
-208
48
80
-256
-208
-32
192
560
496
688
736
448
304
176
432
96
128
400
-128
-400
-432
-800
-32
96
-608
-320
-64
-80
-656
-240
112
-80
176
-240
-80
-96
-240
272
496
80
-368
-288
192
768
592
688
256
176
816
272
-288
-176
-48
-48
-416
-544
-320
-96
80
608
96
-592
-272
32
-96
-48
48
-64
-48
-32
288
448
224
128
-208
352
592
-400
-544
-224
-496
16
304
-112
-96
176
192
80
0
-368
-512
-544
-192
144
544
480
-96
192
-96
-288
-704
-560
16
-192
-448
-96
128
480
288
80
-16
224
-128
-352
272
400
160
432
80
-64
352
32
-464
-304
-464
-160
288
112
-224
224
-160
-96
32
64
-32
128
-160
-272
16
288
496
400
336
528
-176
-128
-464
-240
-384
0
16
-448
-288
160
320
-80
-448
-144
-32
-176
-64
272
160
-128
0
-224
-336
-240
-160
-160
-224
-96
320
32
32
512
112
-480
96
224
-144
-96
-176
-64
-16
-128
-464
-192
96
400
144
-112
0
-352
-192
-384
96
432
240
-336
-624
-544
-496
-160
160
288
-48
-512
0
0
-432
-432
-176
96
-144
400
496
-240
384
304
-128
96
48
-416
-304
16
48
-80
-224
-336
0
-16
-400
-112
-144
-144
-80
128
464
368
80
320
16
-32
-288
-464
672
432
-208
208
-32
-416
-80
32
208
-448
-448
-48
-112
-48
272
464
688
224
-272
-240
0
-96
-432
-480
-48
-96
-192
64
48
-336
-256
-64
112
48
128
-48
-128
-224
-416
-480
-64
-288
112
432
-16
-496
-272
-16
-64
288
64
-64
-144
48
464
-112
112
336
832
480
-32
64
-400
-176
-64
544
560
432
-208
96
224
144
192
-80
-384
128
-16
-80
-336
160
160
592
96
272
448
320
48
-64
112
656
32
-336
-224
-448
-64
224
-272
-176
320
-32
32
-160
80
384
-96
96
80
96
224
32
-176
-48
-32
32
512
432
400
-32
-144
16
448
-256
-96
224
0
-304
-480
-96
112
-880
-640
-176
208
224
48
-304
-240
-368
-432
-320
112
512
-112
16
112
192
-32
-384
-384
-192
-240
-448
-496
-416
-320
-368
16
176
-160
416
112
-480
-208
176
688
240
-576
-432
-608
-592
-80
112
-112
256
384
-208
352
80
-400
192
96
-192
176
-592
-32
-160
-208
-80
-288
-96
96
256
448
160
-496
-176
32
352
-128
-128
-128
192
80
-32
256
-272
-448
96
240
368
304
192
32
352
272
-256
-608
-128
96
128
256
288
-112
-128
224
432
560
-336
144
112
112
128
-448
-416
-368
96
656
96
16
80
-96
-208
-336
-416
160
208
-64
304
352
0
0
224
0
-256
-528
16
-80
-112
240
-320
-208
96
64
-48
-240
-272
-16
48
-176
-416
208
-160
288
-256
64
416
-288
-96
400
176
-288
-64
304
0
592
640
304
400
112
352
288
160
368
656
320
-16
32
240
192
208
-48
-256
-80
64
128
-208
-240
-128
80
-80
-160
-336
-608
-576
-400
-416
-304
-592
-384
-480
-160
416
288
352
32
80
448
208
-288
-544
-304
-80
-64
368
336
-64
240
16
-240
-432
-768
-160
0
0
-128
-32
352
-128
-160
176
-96
-368
-592
-160
96
544
224
80
-240
368
-96
-192
128
16
-256
-32
-32
-464
-16
-48
128
336
272
-144
-32
48
288
208
-16
464
-32
-128
-112
112
432
576
-48
80
352
224
-272
-80
-144
-32
192
128
-240
-144
240
256
256
-64
-448
-336
112
48
-256
-224
416
48
80
224
96
-432
0
96
-48
-80
-352
-128
592
464
336
336
-32
-112
-320
-480
-208
464
448
96
-352
-496
-256
-48
400
64
320
-144
224
512
64
-336
-384
352
528
320
-240
-272
176
-176
-96
192
-160
-768
-432
-432
352
-240
-624
-112
368
-96
-304
160
-112
-672
-752
-480
0
160
128
352
288
352
432
624
176
-144
-208
288
-176
-256
-592
-272
160
-192
-256
-176
320
208
112
448
176
-160
-288
-16
416
256
432
240
-272
-160
-304
-416
432
16
-384
-96
-256
96
-48
-32
32
80
0
272
-224
-368
-320
-384
-240
-112
-144
-400
336
144
-160
448
336
48
-400
-16
144
-144
-176
-416
-128
240
192
-48
192
448
112
-160
96
320
-80
-624
-496
-192
368
-176
-208
48
-672
-560
-224
-144
48
352
80
-208
-64
176
112
240
560
240
240
-48
-176
-304
-304
-256
-352
0
112
-160
-352
-448
176
320
-160
-432
-16
304
-16
-448
-192
-192
-688
-128
160
64
256
176
-336
-624
144
400
336
16
-304
352
-112
256
144
448
320
-224
-160
-352
256
736
960
448
-416
-48
-32
64
16
80
-48
-80
144
-416
-208
96
112
-64
32
96
-80
-640
-96
416
800
96
256
256
-576
-688
-352
-144
-416
-64
224
368
192
256
-208
112
592
528
-368
-80
176
-48
-160
-48
352
-288
-128
336
-32
-208
-480
-352
-448
-304
272
432
112
-16
-208
-416
-144
16
80
-272
-400
-224
-96
-272
80
496
32
64
-80
816
480
464
624
528
416
-96
240
-304
-400
480
496
496
-208
-560
-160
256
64
144
192
-48
-160
336
16
-320
-512
-448
272
464
112
-96
-64
-432
-432
-208
368
-128
176
320
192
-576
-400
-624
-400
80
320
80
224
-32
-144
-288
0
176
496
208
-256
-128
32
-32
-304
-112
224
400
-224
208
432
384
464
272
-208
96
400
448
480
-32
-256
224
-64
-240
-384
-80
-32
-48
48
32
-272
-272
-352
-160
240
384
464
32
-240
160
16
-32
144
112
176
48
-608
-368
-208
16
464
640
352
224
-192
-144
-192
64
192
48
-208
64
128
-192
-160
16
288
192
-160
48
160
-416
-192
96
-32
-128
448
528
512
304
-48
-640
-272
160
352
192
32
176
304
144
384
400
16
-192
-160
640
736
192
160
112
160
224
0
-640
-416
-544
144
240
-256
48
-32
624
176
768
624
-336
-640
-304
368
160
-224
-96
-160
-160
-48
16
-128
-240
-304
-384
400
336
192
128
16
-208
-320
256
208
-96
128
416
144
-208
-320
48
256
-160
192
-80
-352
-304
64
400
48
96
352
-304
-64
96
-256
-128
-240
-512
-240
-320
-48
480
224
-496
-448
-352
-80
128
256
176
0
-304
-368
-96
48
16
352
736
544
-176
-384
-256
-256
-288
-544
-416
-400
-192
-16
-240
-464
-464
-176
336
224
-224
128
784
96
-16
-224
-160
-16
0
-144
16
-576
-96
528
-288
16
352
144
-224
-176
0
288
-576
-64
544
-368
-368
-160
160
-128
368
192
-32
-208
48
112
-16
-528
-304
-544
-528
-256
-448
-64
-368
-384
-112
192
-448
-304
128
416
0
272
560
160
-160
-208
-192
160
256
128
224
128
-848
-512
-128
-80
-192
-288
-672
-112
0
48
-608
-272
-592
-176
-464
-32
96
544
416
-208
-688
-352
0
144
-80
128
-512
-752
-16
-16
352
752
160
-272
176
176
-320
-128
384
240
720
432
160
-160
-304
-272
0
96
624
544
128
-352
-512
-368
-320
112
-16
208
48
-128
-240
-96
-496
-400
208
160
-272
-192
-304
-144
-320
-48
160
656
368
-128
288
-32
32
368
32
-32
-80
-336
-224
-128
224
624
304
-144
-496
-688
-304
-32
256
432
288
176
304
-288
112
16
64
48
336
272
400
544
208
256
144
336
144
-96
-32
-160
64
208
144
272
176
144
0
0
-192
-448
432
336
448
608
288
64
-48
-80
-224
-816
-624
-208
-96
-320
-64
576
656
80
96
256
0
320
-208
-704
16
16
64
-96
-192
-32
32
-160
-48
-16
-112
-64
304
-224
-128
96
-128
-320
-176
176
-32
-480
32
256
192
208
-48
208
-272
-208
-320
-64
16
192
112
-112
176
-48
-512
-240
-112
-304
-80
288
0
224
304
16
-432
-80
-64
-96
-208
-304
-368
-368
-80
-288
304
-352
48
128
32
320
-176
-240
240
0
-288
-624
-480
128
160
160
48
-144
496
112
-128
224
240
0
-16
-624
-672
-144
32
-192
-304
48
272
0
256
240
368
688
208
-480
-496
-240
-256
-80
96
128
112
208
32
-304
-256
32
0
-304
-32
176
304
416
592
-144
0
-160
-304
0
48
48
208
304
48
-432
-640
-32
-448
256
304
0
96
-48
-400
16
-576
-304
48
-336
80
48
-128
-384
-64
224
-32
128
192
192
-592
-144
560
32
-608
-176
-112
-16
-256
-32
-16
-224
368
336
-144
0
288
288
-208
-128
176
128
224
256
-480
-400
-112
-256
-368
-240
16
96
-240
160
-48
-32
320
144
336
-64
-448
-144
-512
-480
192
304
512
848
80
-320
192
16
-240
-256
-704
-336
0
-128
-208
-160
480
368
-96
-800
-736
-704
-464
-432
-208
128
-144
144
320
-128
-96
-16
0
-272
-80
0
-464
-464
-112
-176
-608
384
240
-80
224
-32
-128
-192
-320
-256
80
-80
-320
-48
480
576
880
752
64
-208
-32
-384
-144
-32
-320
64
32
-32
-320
-304
224
288
304
-272
160
32
-48
-368
-336
208
144
-48
-80
32
0
32
240
352
-208
-176
-272
-64
-128
-288
-384
-48
192
0
-336
0
48
-48
176
-176
160
-192
-224
-256
112
128
-256
-96
224
144
96
-208
-336
-416
112
16
-32
-96
32
-144
-272
-224
112
256
192
208
-192
-128
80
-224
-384
272
240
-240
-64
256
464
-112
-528
-176
-48
-176
16
-176
-128
112
336
160
-192
-112
-208
-96
-224
-176
48
448
288
-448
-400
80
-240
192
400
0
-192
128
496
192
-288
-384
176
-48
-240
-160
32
144
-192
-512
80
-272
-192
272
448
400
208
-416
-352
-80
176
672
176
0
-112
-80
352
368
304
80
80
384
400
416
-96
48
480
576
240
-176
-224
128
80
304
-304
-480
-384
32
336
160
288
288
320
-160
-256
-192
256
352
-96
-256
-80
-80
-224
-336
-400
-80
64
-320
176
528
-192
-560
192
432
176
-16
-64
48
112
128
176
0
512
432
112
48
480
352
128
256
-144
368
544
480
-144
-16
128
224
528
640
288
-192
-720
-272
-352
-80
288
224
-160
-128
-176
272
304
-304
-880
-800
-544
-288
32
256
-128
0
816
-128
-208
192
16
-48
-432
-208
0
-128
320
448
592
80
416
-16
-288
-208
-144
416
800
320
208
32
-112
160
304
32
-128
176
-400
-64
208
-240
320
336
256
400
576
288
-304
-32
176
-16
-320
-96
-32
96
512
176
80
-96
-336
-336
-176
-208
-272
-80
-320
-240
-288
-80
-32
128
-48
16
48
32
48
-256
0
16
-64
-16
-496
-400
-128
-448
-16
32
-16
-432
-256
-16
288
48
-528
-400
-480
32
0
304
256
144
432
464
144
-32
304
288
-32
-256
-320
-128
-352
64
96
-48
-128
-384
-208
-16
-96
-160
-160
-448
-432
-480
-384
0
416
112
400
528
608
144
144
-16
16
32
384
832
400
512
240
-560
-352
-64
96
-128
-16
0
704
384
-192
-144
400
784
272
-288
224
176
-272
-112
-16
-224
-384
-208
-272
-160
416
-80
-240
48
48
112
-272
48
112
48
-176
-272
-48
416
-128
48
352
160
448
560
352
752
384
256
-272
-272
272
320
320
160
384
-208
-112
-480
32
128
432
64
-208
-144
208
-64
-288
-528
-96
-512
-176
144
-512
-400
0
-224
-272
144
80
640
256
32
80
-80
-304
-144
-144
192
512
368
32
-112
32
48
-224
-96
16
112
-112
-176
-64
576
160
64
0
384
112
-48
96
48
-208
320
256
480
320
-48
176
224
-320
-128
416
-112
-144
384
336
16
-48
16
656
192
16
672
208
-160
192
192
-256
-160
-176
368
528
272
160
208
272
576
448
80
-592
0
368
64
96
336
208
-128
144
-112
-80
-544
-176
464
464
-352
-128
464
128
192
-144
-80
-32
-624
-80
96
288
320
368
208
-288
-16
-240
-480
-512
-144
-96
656
736
-432
16
112
-176
-112
544
304
-16
-288
-384
112
-48
-336
-384
-128
-336
32
-128
-352
-352
-32
128
0
-96
32
0
176
32
128
-96
-80
-320
-96
-192
-48
-336
-256
32
-480
-352
-144
-144
-464
-448
64
160
176
32
80
48
-304
256
384
-304
-112
-256
176
32
80
256
224
-224
160
-32
-64
304
-144
208
-224
272
64
-272
240
80
208
320
-272
48
-304
-528
80
160
0
352
224
416
192
-400
-384
-176
112
128
224
48
64
144
320
240
-432
-416
304
368
352
192
-624
-944
-480
-448
-192
-112
-336
112
96
-128
-96
-144
-512
-208
-320
112
192
-32
-144
-256
288
496
-144
-256
-304
528
32
32
-48
528
144
-112
240
-544
-256
144
112
464
64
-352
-624
-208
-112
-240
64
-256
400
480
-16
-80
-160
-96
224
0
-176
32
-80
-64
-128
-112
-96
272
416
-400
-224
368
32
-432
-304
-48
96
-128
176
16
224
496
16
-128
-240
-752
-112
-416
0
-96
-464
-384
-96
-48
-176
-176
-400
-464
-160
-192
-48
-224
368
-176
-224
-432
-304
80
-64
-448
-256
112
224
608
-368
-592
-288
-64
464
384
-80
560
-32
-400
144
288
240
-32
208
272
288
-80
-64
48
16
0
176
368
272
80
272
256
-208
-96
80
336
352
336
-64
96
32
48
240
-96
-368
-640
-128
-208
-128
-272
112
-288
-416
176
16
-304
-480
-608
16
480
80
-96
-240
-16
-176
160
112
320
48
-288
16
-96
464
-80
-288
320
176
-32
64
-32
80
176
240
-16
32
496
0
304
32
144
176
-336
-496
-224
192
160
-112
144
112
-128
-192
-816
-736
-288
144
16
128
-384
-576
160
416
0
160
352
320
-112
176
192
-32
-32
80
-112
-144
-64
624
576
-256
-128
368
-208
-320
-208
-416
-432
-16
176
48
-64
-224
160
240
64
-256
320
224
192
688
-16
-272
-528
-288
-176
384
208
-160
-224
-208
208
256
288
-160
-16
0
592
304
-80
-256
400
400
-112
-128
-384
-384
-336
-336
80
-192
-144
64
-240
160
-576
-576
112
48
-16
128
16
-224
48
-160
-96
400
336
-336
-48
-32
-560
-96
-128
128
-144
-64
192
176
80
-96
144
-592
-496
-16
-592
-592
-16
64
32
-160
416
96
32
-272
224
0
-96
-480
-336
-240
112
16
-240
-112
-32
176
80
-112
-272
-336
-400
-272
-288
160
-112
-32
176
-320
32
384
352
304
112
-384
-16
-240
-96
-160
-32
448
112
208
80
-160
-464
-272
48
784
720
416
320
16
-256
-64
912
272
-480
64
128
-176
0
192
-320
-352
368
368
80
256
272
272
-48
-496
-544
64
48
80
0
-192
-48
288
272
-96
-96
-256
-192
64
-224
-16
128
-320
-336
256
528
64
240
-48
192
-96
-32
80
-320
-352
-144
0
272
112
480
144
224
400
240
192
-16
128
288
368
336
304
80
-112
-544
-560
-352
-32
-160
-272
-32
256
256
256
544
176
288
144
192
224
16
-272
-432
240
256
-320
-480
240
176
224
-96
-320
-304
-512
-224
-304
64
304
-64
-224
-48
-432
16
160
64
352
800
384
80
544
288
-384
-320
32
-160
-464
320
80
96
640
256
320
560
-112
0
-304
-320
1040
576
80
-144
16
96
576
32
-384
240
320
48
176
144
384
-208
-16
-112
-352
160
224
-224
-880
-256
48
32
96
160
-192
352
304
288
240
-224
-192
128
96
-288
144
-112
-160
256
80
-144
-80
0
48
-368
80
128
384
16
-272
80
240
320
288
128
368
800
224
352
496
320
-224
-544
-48
512
48
-256
16
96
-224
-32
112
-64
-112
32
-288
-320
-176
272
-432
-304
320
128
-80
32
384
-96
-208
-160
-304
-32
352
-96
32
208
32
-128
16
240
288
-112
-64
-112
-240
16
272
272
640
-32
144
-272
-336
0
304
-192
48
160
80
288
64
-208
-192
-464
-64
-128
-304
-16
128
-352
-368
-528
-208
48
-64
-192
176
112
384
80
-64
-240
-128
336
192
64
176
144
272
240
-32
272
224
-128
-528
160
176
160
-208
-96
192
160
0
144
224
240
192
160
16
336
160
304
-96
-32
368
416
0
416
-272
-320
0
-240
-320
0
176
352
944
592
-320
-240
400
208
48
320
384
96
240
16
-496
0
192
32
-64
-496
-224
0
-144
208
112
-48
-320
-400
-224
-144
-304
208
224
0
32
16
160
64
240
400
0
96
-640
-384
-432
-448
32
80
-32
-496
-208
-432
-400
-304
-128
-208
-368
32
-128
-176
-64
-480
144
-192
-208
-416
160
896
1008
512
336
-144
-112
-240
-208
-144
160
-80
-368
-96
-496
-544
32
224
32
144
-64
176
-16
-48
-304
-144
48
64
96
-304
-256
-208
128
-160
-288
-16
-16
-272
224
-192
-160
64
0
480
144
208
-16
320
80
-432
240
96
-32
96
208
-160
0
256
272
352
-352
-112
16
-128
-368
-432
400
-128
-496
192
-192
-496
48
208
272
128
-416
-320
-112
560
368
224
384
64
-384
-528
384
160
-208
512
512
688
640
368
240
48
-256
-224
-176
80
-384
64
144
160
304
96
192
0
288
-128
432
496
256
240
160
-272
-272
160
-32
-304
-160
-96
160
240
-208
-304
-192
-64
-192
256
256
480
96
-272
32
-400
-176
-48
-96
144
32
-208
-96
224
-64
128
32
144
480
-48
-96
240
448
-48
-32
224
384
-432
128
544
208
-560
-192
80
-288
144
-48
-240
-176
272
480
544
352
-144
-304
464
512
576
-64
-208
-160
-16
-96
-96
272
-160
-160
32
-128
-320
-288
0
-16
-224
-448
-416
128
-160
0
-64
64
-256
256
96
-64
64
-480
16
32
32
368
64
224
-112
-128
-80
-176
64
-112
-528
-560
64
-512
-400
-176
16
-352
-160
-112
144
-144
-80
-160
-96
-112
-128
0
-256
-512
-176
80
-304
-48
192
288
-272
-96
-160
480
176
192
64
288
-176
32
336
176
48
64
48
-96
128
208
-384
-464
288
-32
-64
176
64
-32
-304
-416
-176
-272
-144
-576
-560
-256
-432
-176
-288
-576
-480
-272
16
16
496
432
80
-528
-464
-128
400
176
64
-320
336
-48
-304
80
128
-272
0
0
64
-496
144
176
-64
-16
96
-240
-16
-144
-240
16
160
-176
-304
96
-368
-96
128
-64
-112
-528
-416
48
176
16
-304
-64
-144
-368
-256
368
-288
-128
-208
-288
544
432
80
-544
-240
-64
272
80
-160
-16
-336
64
16
-160
144
240
688
368
-176
-336
-320
-640
-128
128
256
-48
-320
-368
-784
-304
-672
-432
16
-96
112
-320
-256
-32
208
240
160
352
-400
560
128
304
96
-384
-848
-480
-144
-464
32
-384
-720
-320
160
-304
-80
32
-304
-160
272
160
464
-368
-560
-240
0
112
64
-400
-608
-320
-96
96
-176
16
80
336
512
528
-160
-176
-320
-144
-96
-32
-64
-160
336
-208
336
192
160
-48
-368
208
96
288
112
-224
0
128
-224
-192
-256
-32
224
-96
352
-96
-592
128
496
64
-336
-208
480
512
832
96
48
304
384
192
-160
-304
-304
-304
-512
-272
-304
-96
-448
-256
-32
-48
272
80
464
256
144
112
544
864
160
16
-304
-528
-288
-144
160
-16
-176
128
-304
-336
256
176
-176
160
224
448
304
64
288
304
-48
-96
208
464
288
192
256
176
80
-64
16
320
-112
-64
240
0
-512
80
160
-176
-144
272
-352
-432
48
-224
336
416
-32
-80
176
240
-112
-352
400
288
-192
-288
16
-160
112
176
416
48
-64
208
384
320
336
-128
-464
-80
176
160
80
176
352
368
176
-16
160
176
-160
-256
304
656
128
-64
-176
16
256
-176
-192
192
-80
-128
-192
-32
-224
-240
192
48
-496
0
-192
64
272
304
128
272
32
-496
-688
-464
-256
336
-208
-112
-336
-304
-176
-128
272
432
160
-368
-560
-560
-192
176
-384
-176
-496
-288
192
352
208
192
544
384
272
-160
-624
-416
-384
-288
-128
-384
-384
-384
96
-64
176
48
-192
-560
-160
-208
32
688
400
-432
32
80
128
32
144
176
32
-352
-320
-96
352
-32
-144
80
112
-288
128
304
0
368
288
160
-320
256
16
144
352
-64
0
224
-416
-144
-96
-416
-288
-160
-688
-448
-192
288
-304
128
-64
-80
144
-192
-320
-208
96
-224
16
-64
0
96
-64
-48
144
48
-112
-224
16
-128
-272
-352
-288
-16
-160
-48
384
64
272
704
-336
-48
-224
-16
272
96
-400
-640
96
640
320
-528
320
128
-320
64
-80
-256
-48
96
-352
-560
-672
64
96
112
384
288
128
-496
-240
16
592
176
544
176
-256
-320
-464
-688
-304
-48
-112
448
-208
-240
368
-144
-144
0
-464
-224
-544
-720
-288
-80
176
272
-48
-176
112
0
-32
32
-384
-144
-32
96
224
-304
-32
-288
-272
32
368
608
304
-432
-496
96
-144
-432
-176
32
-96
464
-32
-288
-208
-16
-48
-224
-256
-96
-32
112
-320
160
-320
-64
224
-32
-80
384
224
16
336
400
-224
-160
-64
304
-128
352
160
144
96
880
256
-160
-352
-176
192
208
32
-128
64
-416
-240
-160
-16
144
-464
-400
-512
-192
352
0
-528
-160
352
288
224
-176
-128
-624
-640
32
-224
80
176
-192
-96
32
-144
144
112
16
-144
-224
-560
0
160
16
-240
64
544
816
320
304
32
-80
-64
80
-112
-208
64
96
224
624
416
224
224
-64
-128
16
16
-272
-416
-240
-480
-112
336
640
-192
64
-496
-48
-528
-64
32
0
48
576
320
-432
-112
416
480
48
48
368
16
-352
-304
-160
-240
-272
-48
-80
384
432
192
-464
-64
448
-208
-256
192
80
-288
-112
-576
-48
144
-16
-48
112
-96
-144
-256
320
336
128
272
96
-432
-608
176
-272
-240
-96
96
-64
-336
-336
-736
-320
144
144
112
-368
-112
-128
-176
-400
-592
128
-48
-352
48
-96
336
576
176
-736
-192
32
96
-272
64
-416
-496
-256
-128
176
224
112
-208
48
-144
560
528
624
384
304
80
128
704
-32
128
176
496
96
-144
320
288
-16
-112
192
-192
-144
-192
-416
16
560
256
-272
176
352
160
-480
0
240
64
208
176
256
256
-48
16
-112
80
-608
-128
448
176
-64
304
-32
-288
-16
-96
-48
64
-448
-400
-240
384
288
352
224
336
528
416
64
-112
144
144
-32
-144
-368
-352
-624
-592
-480
-560
-352
176
-176
16
-128
-272
-384
-16
-224
80
112
160
-464
-128
144
-400
-432
-144
-112
80
224
48
96
96
304
-192
-496
-144
96
528
336
32
96
-32
-320
-80
-32
176
-112
64
-112
16
592
816
352
416
48
480
144
160
256
-608
-144
176
48
416
608
864
384
80
496
208
96
160
-32
96
176
-128
-240
-224
-224
-512
-32
400
464
64
320
80
288
256
240
128
-192
256
-176
96
368
208
96
-80
16
144
64
-32
224
448
192
64
112
-368
-240
-80
-384
-480
80
0
-80
-256
-272
-144
144
528
592
16
-320
0
-48
-272
-400
-128
-48
0
224
192
64
192
352
0
208
-608
-112
64
32
512
656
144
32
64
-224
16
-288
-112
-16
16
-176
-80
-288
-224
-48
352
-128
144
-432
-416
96
-64
-592
-112
-16
192
0
64
-480
112
288
-128
-48
-16
-112
16
-96
-96
-272
-448
-32
-192
-176
-32
-416
160
576
-16
-64
-64
192
-240
-352
80
-80
-336
112
336
16
416
400
-144
-448
-32
-16
0
80
144
208
64
224
-32
-112
576
112
-48
-416
-640
-608
-608
-32
-112
288
-32
192
0
336
288
656
416
208
-96
48
-432
-128
96
-352
-384
0
656
304
32
288
448
0
0
272
-16
480
400
-304
-416
144
-256
-80
512
384
-176
160
224
-48
-352
176
32
-16
-368
-16
80
-64
-160
208
-80
0
-128
-16
-240
144
352
432
192
256
176
-448
-288
-416
-160
-304
-320
-224
80
-272
-416
0
-304
-160
-320
-64
208
528
-240
-416
-192
-192
176
416
336
-128
-176
-96
-48
-448
-352
-400
-192
64
192
-192
-32
-288
-288
-144
64
208
-128
96
592
336
128
112
-32
-384
-320
160
144
-64
-768
-448
288
0
336
-16
-304
-192
-528
-480
-256
-80
64
-320
-288
-384
-352
-352
336
272
256
-128
0
-16
-448
-752
-272
-528
-544
-336
-432
-448
-320
-416
-176
144
400
160
-160
-96
-48
272
144
240
272
16
-32
384
-288
128
-544
-432
-304
-192
64
416
-80
-576
64
224
-240
192
-208
-352
-208
144
464
32
176
-128
-16
-16
352
-208
-256
-384
-528
-688
-400
176
128
64
-304
16
320
320
704
96
-128
528
192
-192
-224
-16
-160
288
656
256
48
432
272
-352
-96
176
-176
-48
96
16
-96
272
368
96
-48
-176
-48
352
640
288
80
-320
48
256
272
-32
-272
-144
80
-352
-64
112
-144
-400
16
544
96
-48
160
32
-544
-448
-608
-240
-160
80
-16
-336
0
-48
-64
96
144
-96
-112
-96
-384
224
16
256
-16
16
160
-64
304
160
80
-112
-288
-48
208
128
-16
448
64
16
-384
-176
-16
16
0
32
32
80
32
48
144
48
0
-352
-352
64
80
-16
-128
96
288
-464
-352
224
80
-304
-16
-256
144
368
352
-64
-192
-496
-144
160
464
-240
48
-64
16
240
-128
-64
-112
-352
-336
-400
-64
-272
-304
-192
-368
48
176
160
64
336
128
80
256
288
-144
-192
432
144
720
336
128
256
-176
-96
352
144
-192
-208
-512
-96
-48
80
-16
112
64
-32
176
-32
176
192
-16
64
640
16
48
288
272
160
352
288
144
288
432
384
-32
128
144
-352
192
-48
-64
-272
-240
272
144
-128
-304
-80
128
384
448
-224
-48
-288
624
144
-224
-128
80
16
-176
-176
-304
-144
0
336
544
208
480
672
320
288
144
-192
144
304
64
-576
-400
64
-16
16
-48
336
256
112
336
432
576
32
-176
-368
96
64
-96
-208
-208
272
512
192
336
-416
-304
-32
-592
-592
-336
96
112
-48
160
624
144
48
-128
-240
-48
-144
-208
-144
-176
-144
80
192
-80
128
-256
-368
160
256
160
-160
-400
-112
-64
48
432
-128
-320
48
-448
-224
-32
-112
176
-240
-496
-288
-240
-208
-272
192
176
-112
64
-144
48
192
-336
-304
-192
144
-160
-240
-320
160
336
272
16
-112
-336
-352
-336
304
384
320
240
176
272
-192
-16
672
832
320
-448
128
384
-528
-608
-112
-16
-160
-80
-160
96
-64
192
-256
-544
-240
-272
-176
-480
96
64
48
-192
-400
80
-64
-176
-96
-96
-144
-96
0
160
272
-16
-176
368
208
272
-16
48
256
240
-96
-432
144
176
80
-96
384
-240
-176
784
464
48
-160
-176
240
80
-576
-224
-176
-544
-80
144
-400
-704
-144
256
192
-256
-208
-160
-464
-48
64
-384
-336
-80
16
64
-256
96
96
224
176
-96
-336
96
208
-256
-480
-304
128
64
-48
64
-352
-144
-336
-128
464
-128
-368
-48
272
352
400
-272
-384
-32
560
48
-496
-176
-160
-512
-256
-720
-432
-48
-336
-256
-144
288
192
-368
-624
-16
496
352
-16
-128
0
0
32
112
176
-96
-512
-448
-16
-80
400
-48
-304
-576
-240
-192
-96
448
96
-240
-448
-192
-48
-192
-416
-80
192
-208
-112
368
240
-32
80
256
272
96
-128
-16
96
-32
-304
-112
-144
64
-304
-400
64
-16
416
192
-528
-320
80
-112
80
192
-112
-368
64
208
224
640
496
272
-416
-384
96
544
0
96
80
-80
-784
-528
-672
-128
-80
-160
128
-16
272
-192
48
288
48
528
32
-80
-32
240
-96
-160
192
48
-192
144
208
-160
352
448
48
160
480
96
144
-320
-448
336
288
32
176
-16
-80
-320
-224
-16
96
80
32
-16
-176
-192
-176
320
560
-240
0
128
192
-432
144
496
416
272
-48
-224
-416
64
-80
-128
192
-16
-16
112
-176
-64
-176
176
-192
-144
48
-80
256
-208
-208
-464
-224
128
-80
-48
0
-224
256
464
176
0
64
-48
-368
80
64
0
-480
-192
-48
592
-96
-336
96
-384
32
256
144
272
48
352
656
144
96
16
-48
-320
-448
-64
-48
96
-400
-336
-160
-240
-224
-208
-208
-480
80
432
32
-384
-272
16
16
160
96
528
240
384
416
128
-208
-352
-208
-288
-208
-640
-416
-208
0
416
224
16
-240
-240
-272
-80
304
-176
-32
-112
336
176
-128
-16
-224
-224
-80
-16
96
-128
-96
64
352
-112
-128
-432
-160
-352
0
-240
304
624
112
-400
-368
320
176
320
-112
48
-32
48
288
576
-208
16
448
528
-160
-144
-288
80
224
672
176
-208
144
-48
368
160
-192
-48
-304
-192
560
576
-304
-160
240
0
-128
400
-32
176
-192
-96
-336
-304
256
480
32
16
64
16
-672
-128
48
-64
-112
-64
-64
-192
-64
-32
16
-288
80
-192
-464
192
128
144
256
-176
96
-32
192
304
608
96
0
-512
-576
-192
-96
16
160
256
432
64
-256
-160
896
192
-416
-384
128
-160
-496
-272
16
144
384
-80
-384
-640
0
-80
64
-304
-160
80
64
-112
400
240
-32
352
272
256
-16
-432
-416
-224
496
304
-112
-64
64
-272
208
-160
336
64
176
-128
-624
-800
-144
-496
-448
192
352
384
240
32
80
448
416
160
-224
48
192
-240
-128
-192
-128
176
-112
-48
-464
32
224
-240
-288
-432
48
-128
368
960
272
320
240
304
-16
-432
-352
368
576
368
144
272
-16
-192
64
-48
-480
-368
-432
-64
176
144
-160
144
256
-32
272
160
336
0
-320
-496
-64
-368
-224
320
256
112
256
-192
464
464
-720
96
-96
-144
80
-80
144
176
176
16
16
-208
48
112
64
384
-416
-336
-496
144
112
-224
-304
16
288
144
-240
-80
224
352
336
-48
-224
-464
-368
-208
-48
-336
160
96
-496
-272
-416
176
0
320
288
432
-192
-208
-192
112
448
-288
-400
-224
-176
-496
-256
80
-16
-112
288
400
512
48
208
432
416
-304
-304
-176
-224
-32
160
-256
-352
32
160
0
128
192
160
-224
-96
-288
-288
-272
-128
-288
272
208
448
16
-160
112
0
-16
288
192
-96
64
208
-112
32
288
608
256
224
80
224
240
16
144
480
656
416
96
-32
-352
-192
224
16
-512
-80
0
176
-112
16
64
80
-80
-16
112
80
-64
-176
-16
352
256
-320
-144
-304
144
-304
-608
-416
112
-64
0
64
128
-80
272
320
-240
352
208
80
-32
-272
-96
384
656
-80
-320
-16
208
32
288
-208
320
176
384
304
256
-416
-304
-80
112
544
528
96
-96
288
160
-176
-176
-480
-496
-464
-464
128
256
96
-336
-240
272
96
144
-16
-448
-256
-272
-192
304
224
400
-32
0
240
432
480
480
208
-48
-416
-368
-112
-160
-96
160
64
-352
-544
-608
-1024
-752
304
80
80
160
-240
-144
48
288
352
0
-192
-112
-176
-16
128
112
-128
128
-496
304
240
-224
80
-288
304
-240
-96
832
320
-240
144
-16
-384
-224
-192
160
448
-752
-448
-144
336
176
320
464
-272
-592
-256
-64
48
96
544
-32
-256
192
704
832
80
-32
432
352
32
-16
256
80
256
400
0
-272
-304
-384
48
-336
0
-352
-544
-64
128
272
-32
-224
-352
16
144
240
-624
-768
-32
208
32
-16
96
320
80
400
208
-192
224
96
-16
288
384
-160
32
336
304
464
480
432
-80
-96
-176
-320
-16
-288
-448
304
944
352
224
448
320
240
-32
-16
16
-96
-288
-208
464
592
-352
-416
320
384
48
368
-192
16
-80
-704
32
496
-176
224
192
0
-64
-240
16
-96
160
-96
0
80
80
0
-144
-288
-48
192
256
208
304
-144
-544
-352
192
416
384
576
384
48
-64
-336
-400
48
-128
-480
96
208
224
64
-96
-208
-48
304
240
-48
-304
-32
224
304
144
-240
176
144
-208
-272
-272
560
32
-192
32
64
272
112
-336
-176
-48
-48
-368
-304
-544
96
272
80
-176
-256
-240
176
144
-96
176
272
480
144
-96
-736
-208
-288
-288
176
64
-48
496
496
576
192
-144
-96
-304
-640
-416
-192
-160
96
-112
-192
80
176
304
112
640
416
48
-480
-288
352
384
-80
-96
176
368
64
144
-352
-192
-208
-48
-80
64
-32
-288
-432
144
96
96
96
0
-208
80
48
80
80
-16
384
176
-288
-112
-64
-64
464
-32
-384
96
-304
-272
256
-656
16
0
-160
16
-656
-864
-272
128
352
16
-288
-80
96
112
192
-304
-400
-192
-400
64
304
64
-80
-16
-128
32
64
16
176
160
336
32
-224
-112
-112
112
-144
-16
-240
176
-176
-352
-48
112
384
-160
-528
-352
16
-112
80
-128
-128
320
48
-336
64
208
64
176
144
-304
-400
-112
288
-128
-320
-16
80
-304
-416
-192
224
-160
-144
48
320
64
-144
240
272
0
416
400
480
304
480
528
16
-128
128
-256
-400
304
-176
-464
-464
-96
144
432
0
320
208
64
-272
-240
-32
240
-480
-624
-32
-304
-144
0
16
112
-48
0
-256
112
224
400
112
-32
-240
-176
32
-16
-240
-464
-688
-320
512
480
160
-176
-208
-320
80
384
544
-112
-240
-672
-368
-336
-160
240
0
656
448
272
-160
-144
224
320
80
-96
352
128
-272
-400
-192
64
-368
-480
48
-160
-176
-304
-224
-432
-256
-272
-816
-672
256
288
64
-256
-64
288
208
-432
-304
-240
64
112
-176
0
-288
-192
-128
368
400
416
256
-240
-144
-192
-240
-144
160
-64
176
464
32
-48
0
-208
-160
-272
-400
-288
304
208
-384
-208
32
-224
-352
-480
-496
-128
160
-96
16
-688
-64
176
304
496
256
-112
176
-80
-256
0
608
688
384
384
-16
0
-272
-192
-320
272
240
192
0
-64
-304
-352
96
80
32
208
16
-32
112
224
32
320
112
-208
-96
0
-128
-80
32
368
-80
160
336
544
304
112
32
304
256
-208
192
192
-128
-32
16
-80
64
320
16
-320
-256
-272
-160
560
384
32
-48
-320
-256
-32
-128
-256
-176
464
0
-288
48
736
736
64
-352
-288
-304
-512
-480
-32
-272
-480
-32
32
-32
384
160
-80
-176
-544
-48
352
256
336
128
-96
-112
112
-128
-160
48
144
-80
0
-304
128
96
-512
-240
-256
-80
272
224
176
464
-144
-64
-160
176
96
96
-96
432
352
480
-96
-368
-320
-160
256
192
256
32
-224
-512
-448
-368
-368
-352
-208
144
-480
-432
-544
64
16
160
384
256
304
96
32
-64
-448
144
144
-192
-336
-64
128
-208
-400
-224
224
64
-112
-176
64
16
32
208
-304
240
48
-208
-400
-384
-304
-64
528
512
768
208
-176
352
368
576
288
-176
112
160
208
-192
-288
176
736
448
528
-752
-480
208
-208
-288
208
112
144
-48
128
528
0
-448
-128
0
16
-384
-64
-144
-208
-96
16
160
48
80
464
816
112
-80
-384
-384
-64
-80
32
-304
-48
176
64
160
64
544
-112
256
432
64
-224
16
-160
208
512
176
304
-256
-64
0
112
272
-64
-128
-320
-336
192
416
48
112
48
-160
-80
384
-16
96
-352
-304
-368
-96
32
160
96
448
480
848
1056
656
144
-80
-528
-224
-240
0
-192
-576
-528
-256
48
-352
-336
288
288
32
0
-176
-32
-400
-96
-128
-48
432
-144
-272
48
-304
80
416
256
32
-64
-16
48
-32
-320
-128
112
32
-272
320
96
-272
32
-112
256
-48
352
416
-112
32
0
-288
-352
-16
80
-192
240
-16
-32
-32
-448
256
448
288
352
240
-368
16
64
-208
160
-384
-544
-592
-224
208
-176
64
272
112
-80
-512
-192
272
112
-64
-80
192
400
-352
-512
-512
-112
384
32
-384
96
-288
-64
448
144
128
416
480
-96
64
288
48
-544
-128
544
368
-288
-304
-32
144
-48
-400
-496
-208
0
224
336
-352
32
-112
-464
0
16
128
-128
128
-176
-192
-272
-208
96
224
-32
-704
-480
-128
-304
-432
-832
-112
160
-48
-272
-384
400
352
112
64
112
288
304
368
96
-512
-304
-320
-320
64
160
640
48
-80
-288
208
0
112
384
112
-96
-160
-32
-48
-336
-224
64
112
304
560
320
192
-176
-32
256
256
-432
-656
-304
368
240
-48
-144
-752
-240
-48
48
-224
-144
80
-400
-16
128
-160
64
176
288
368
-144
-496
16
-144
-320
-208
-288
-304
-464
-48
16
-640
0
160
304
-16
144
-144
-144
528
112
176
-224
-112
-448
-592
-304
-96
496
-224
-224
-208
320
400
-128
-480
-528
-224
-16
80
272
256
-16
16
32
64
-368
-176
-64
48
32
-192
-48
-240
-128
-256
-304
-32
-256
-48
0
176
-16
-112
32
-144
80
464
144
384
64
-208
0
-96
32
400
400
-240
-160
64
560
336
544
384
-144
-48
240
112
32
240
160
64
-48
400
-32
-192
-432
240
368
480
64
-352
-448
-160
160
576
-16
-240
-576
-480
-240
-48
240
-272
-336
-288
144
160
160
96
48
-112
-192
-144
-240
-496
288
416
208
-496
-144
16
368
-32
-48
-32
64
160
528
-336
-272
-288
16
192
80
272
304
176
-320
-80
224
-32
-224
-176
16
176
32
-160
-592
-16
272
480
656
256
144
784
800
192
576
272
-256
-144
0
-528
64
528
400
-96
32
64
-112
336
448
544
176
-176
-192
-512
-176
-48
384
176
-32
-176
-96
-16
416
256
-144
-528
-96
112
-64
48
160
176
80
-272
-688
112
528
-560
-320
80
-192
128
-16
-112
-288
-192
0
-448
-400
-304
-80
192
-336
-384
-224
16
48
-176
-368
-224
192
288
336
32
160
-416
128
544
320
80
64
-128
-384
-448
-256
16
16
160
-336
-192
256
320
80
-224
-224
-192
272
96
368
384
-272
0
32
80
48
-128
-176
-192
-448
256
256
-144
-48
-112
96
112
128
-352
96
160
144
144
432
-560
0
352
-304
-80
368
144
-96
-560
-384
192
-416
-304
416
192
80
128
336
352
112
192
64
-208
-368
416
64
176
448
128
16
208
208
96
-464
-368
-464
-608
-128
32
-480
-32
240
-16
0
544
624
-64
288
-192
-176
-272
-432
368
-176
-272
624
368
336
-144
160
208
-160
-304
-528
-304
256
224
32
-352
-208
-160
160
352
224
-64
-272
-112
320
112
-288
352
464
-240
-64
80
208
-16
-240
128
128
272
224
-304
96
32
224
0
96
-288
-512
-560
176
672
-96
144
400
288
-288
240
96
-80
432
384
-304
16
-288
192
336
0
-16
-16
-192
-400
-464
64
560
-112
-160
-80
16
176
-16
-192
-32
-320
-48
-224
-480
-64
224
128
-160
-64
64
80
-256
-48
-96
-48
-192
64
288
240
192
32
-576
-304
-32
-16
224
-128
416
368
-64
-432
-128
656
-192
-208
352
592
96
96
-304
-64
-224
448
224
0
-80
-288
-896
-224
336
640
208
0
-48
192
656
304
-16
112
64
176
112
-368
-112
16
288
-144
-48
-496
0
80
-64
-64
-112
336
-224
-112
-144
336
0
-416
128
240
-16
32
-160
16
-80
-368
-352
-464
-432
288
-16
-224
-288
128
672
512
16
272
32
128
-416
-512
-48
272
320
0
-32
-96
-240
208
288
-192
-96
128
112
-160
192
160
144
112
0
432
544
784
224
-48
160
176
272
432
64
-176
-144
496
256
-96
0
112
-128
-272
-224
-176
560
160
160
112
208
-192
112
128
-240
128
224
-256
-288
-496
112
-224
128
496
576
576
288
304
592
-32
-384
-496
-384
-256
-560
-240
32
544
112
-48
80
368
-160
240
0
-464
-208
-16
416
304
112
80
-192
-384
-256
304
160
432
208
-144
-432
-208
32
432
-96
-416
-464
-960
-48
-128
656
960
320
192
-144
64
-128
-304
-96
-96
64
256
-32
-144
-208
176
-48
-144
-96
144
-352
-400
-80
304
-80
-48
-128
-480
128
64
-16
-112
-128
-608
-688
-496
-64
-64
-368
-208
272
16
-272
-80
80
288
240
-144
208
-144
64
32
160
64
-256
-112
0
560
-112
-48
128
368
688
320
400
272
-16
-144
144
64
-80
-144
16
288
-144
-48
224
32
64
304
192
320
-16
-48
336
96
-352
-320
-432
-256
176
-368
128
320
96
-208
-528
-304
384
80
-64
-128
-576
-80
272
-288
-160
-272
-576
-336
208
32
-96
-480
-208
144
-288
80
64
256
80
-144
-144
-16
160
-624
-656
-224
-336
-384
-304
144
448
144
-64
-544
-32
256
-304
-240
-512
-336
-224
-208
432
816
144
256
144
48
-560
-688
-336
-144
192
192
-96
160
176
272
544
-128
-64
336
112
-112
-352
-336
48
48
384
-96
-48
48
112
96
496
448
160
-128
-208
-400
80
192
-160
272
0
208
176
80
160
16
-176
544
448
192
-144
-144
-16
-224
-336
-208
-224
-432
-496
-400
96
16
-368
224
368
128
0
-736
-400
64
400
0
-256
-400
-64
-192
-80
176
-64
-240
80
512
352
-112
-336
224
480
240
176
-320
-32
144
-48
144
-224
-256
-80
112
-448
-528
-288
96
-48
-160
-336
-544
-544
368
432
272
-208
96
-80
128
192
64
368
-160
-496
-96
80
112
224
448
496
480
-400
160
-32
-80
320
-32
176
16
-176
-128
-592
-432
480
512
336
80
-160
-32
432
352
64
192
528
128
-688
-672
-128
608
272
400
864
800
512
336
384
32
-80
-16
-80
0
128
592
48
80
-48
176
496
432
176
48
272
-64
-256
176
48
-528
-272
-160
-144
656
288
-672
-128
112
-64
-48
16
160
96
224
32
464
48
-48
272
48
-448
464
304
-416
32
-272
16
-256
112
96
-16
160
-80
-80
192
-256
96
192
448
368
80
-272
-352
-336
-560
160
-48
-32
-224
-560
-80
-400
-304
160
-176
-288
400
64
-240
-160
-64
192
416
-336
-432
-208
-48
336
176
192
-64
512
368
-80
-112
48
176
-288
-304
-352
-112
160
64
-64
-64
-368
-176
272
-144
-128
-144
208
-208
128
80
80
240
128
-320
-32
528
256
48
208
304
-304
-272
0
-448
-80
64
-48
-80
176
256
-32
0
-64
-96
-464
-144
16
416
288
-64
-80
-320
-80
-304
-192
-320
112
640
336
16
240
144
160
352
-112
-496
0
176
-64
96
272
128
-176
-160
-64
-208
-272
-80
0
96
-352
-128
0
176
48
400
240
-192
208
368
688
176
-624
0
80
288
96
-80
-336
-176
-288
-448
-224
-192
112
224
192
-128
48
16
256
64
208
-368
48
208
-576
-400
368
16
80
48
304
-112
112
-64
-96
-448
-192
128
-112
-176
-96
-176
-96
-224
-352
-16
304
816
112
-48
16
384
304
208
-272
80
112
32
64
-96
-544
-144
144
256
80
112
-320
416
240
32
-208
96
-80
224
640
272
-368
-320
-48
336
16
16
-400
-224
-64
-320
-464
-752
-288
-64
32
80
80
352
-128
-144
272
96
-80
-208
368
864
0
-480
-320
32
-48
-752
-800
-48
-16
32
-16
-80
-272
176
32
144
144
-336
448
256
48
-208
-256
-256
176
-176
-48
16
-272
-416
-160
384
640
-96
-528
-480
-128
336
-16
64
-256
-48
224
368
96
160
192
-224
-208
-112
432
1056
576
96
224
96
-272
144
48
-144
176
432
224
128
-208
272
-176
48
32
112
320
240
112
272
-144
112
32
-352
-480
48
-128
-80
464
544
240
448
144
352
544
-144
-592
-368
-240
-352
96
480
304
208
128
0
-112
-224
144
160
176
-128
-400
-176
-128
-16
304
544
384
-208
-160
-480
-240
80
64
-128
352
320
336
384
400
-512
-144
144
80
-96
-320
-336
160
-32
-16
-224
-80
32
32
-288
144
688
-48
240
-272
-224
16
-144
0
-80
-288
-864
-656
-336
192
-320
-208
64
-160
-112
-240
48
272
-288
-320
-272
-80
-16
256
192
-176
-160
0
176
16
-64
-176
-128
-80
256
-32
576
288
-112
-272
144
176
656
400
-208
-272
-192
-144
-208
528
304
-96
-96
-544
-432
96
144
352
272
384
464
160
-256
64
80
-416
-288
-160
-240
-288
-80
-144
320
112
32
480
16
-448
-400
-496
336
192
384
176
224
816
352
16
32
224
-208
112
-384
-448
-432
0
-240
-688
-240
-64
48
272
-96
-96
16
672
-160
-336
-272
16
32
-304
32
560
368
-192
-304
32
384
256
0
-160
32
16
112
-16
-16
160
-128
352
160
128
144
272
-288
-368
-432
-336
0
240
160
-368
-384
-320
-208
-320
-288
-32
-64
48
320
128
-176
240
208
64
64
144
-608
-112
-512
-32
272
144
384
96
176
16
-384
-720
-128
-80
-320
-96
-96
112
128
-64
-96
208
32
-48
-336
240
176
160
96
96
-112
144
416
256
464
560
752
736
-64
0
0
32
-192
96
-208
0
-48
-208
-96
256
592
80
528
160
-240
-336
-304
-240
-208
-288
-464
-224
16
-208
-272
-272
16
112
-464
-112
-96
-240
-448
-320
80
128
-304
-240
-416
-272
64
400
208
-80
-640
-560
-224
496
-416
-448
368
784
240
-176
-160
-320
-160
-336
-320
-240
-512
-448
-32
576
256
-208
368
240
-32
304
-208
-608
-240
-176
80
448
-336
-288
-144
-32
176
32
-48
-512
144
80
-272
-208
-288
-272
0
240
432
528
144
208
256
-240
-208
-96
48
288
-16
-16
64
-32
-208
-128
112
-176
-128
32
-192
128
256
528
560
288
-112
-128
304
128
-176
-240
-96
-96
-272
-256
240
272
-128
-208
-560
-624
-432
-16
112
224
336
-240
-192
512
720
320
160
64
48
-272
0
192
320
64
80
-608
-464
-416
-48
208
112
-48
-48
-480
384
-336
-272
-240
-416
80
192
-16
-480
-64
240
544
16
-16
192
256
-304
-288
-288
-160
-304
16
32
496
576
384
368
-96
-288
-80
208
-32
-464
192
448
-80
-80
-48
-32
-32
272
176
304
160
96
-112
-192
304
320
624
480
-336
-400
-160
-224
-80
80
64
-128
-112
-528
-496
-80
16
96
-96
368
800
352
-96
-80
208
432
-16
-448
-464
64
-64
-336
-352
192
480
192
48
80
0
192
336
480
336
32
-224
-352
-144
-32
720
448
112
-64
-448
-16
-112
-144
-288
-384
-240
288
96
416
416
224
-32
128
-608
-528
-112
-400
176
336
112
-352
-624
176
400
416
576
0
-480
-128
-64
-64
176
272
144
400
-16
-704
-304
-160
-368
32
384
-176
-384
-416
-512
224
-448
-720
-1232
-784
-192
-16
192
896
528
464
128
-352
64
320
64
64
-112
32
256
-96
-624
-320
-352
64
128
-192
-208
-240
-368
-432
-256
0
-80
-112
288
544
192
304
0
-64
672
0
64
-240
-736
-64
96
192
-32
-272
-256
80
-32
-416
-80
144
-48
-208
-176
0
352
240
-80
-416
-144
-144
-576
-704
0
-128
-336
-144
384
272
-16
-288
48
-256
-288
-16
208
288
272
-64
-176
-272
-192
112
-64
-288
-192
80
-192
416
640
160
-112
-112
160
-96
-80
-48
-32
-464
-480
-256
-592
-384
0
-96
96
-192
48
0
80
-96
352
-240
240
96
-304
64
160
128
496
-128
-144
128
-32
288
544
-176
-624
-128
-144
-128
-256
-400
-512
-496
-176
96
-112
144
144
320
-64
112
144
256
288
64
144
48
192
400
-64
-48
-48
-240
-176
-224
-176
272
144
32
-128
128
-112
-208
208
96
0
-160
64
720
320
-96
-384
32
272
320
560
112
624
656
640
0
-336
-416
-128
176
96
96
-256
-464
-256
-112
-144
192
-144
-304
48
-304
-320
-384
-144
-64
224
416
160
160
0
-144
-384
-176
112
96
80
0
368
-64
32
-336
-208
112
80
400
512
-16
-128
512
304
-240
-544
-576
672
1024
496
-544
0
48
208
-32
-224
-96
352
48
-240
144
416
-80
-304
-192
-48
240
-16
96
320
96
-96
-144
144
-64
-128
-64
240
48
32
480
-416
-96
-16
96
432
400
-112
-128
-48
-256
-224
-224
-464
32
64
-144
-208
-80
-304
-128
144
-320
112
-128
-48
-208
-480
-144
464
-224
-16
-176
-80
192
-112
-560
-528
-352
-224
-448
-288
-208
32
32
-240
176
-144
-608
-704
-464
-304
-496
-224
288
368
384
-352
-288
-64
-192
16
-80
-192
64
0
208
560
288
-144
-336
-368
-144
0
-192
-80
-112
0
-224
-528
-192
-112
144
-64
-208
-48
-544
-704
-288
-144
304
-192
144
416
384
464
-272
32
-368
64
112
-272
16
192
-464
-336
160
112
-336
-192
304
176
-256
-64
160
-368
-176
-256
-80
-160
-144
-112
-640
-384
-64
-32
64
80
48
-32
384
-208
-224
-304
-336
80
112
-384
-176
-272
-96
-32
240
224
-240
-32
-336
32
192
-80
-64
32
-160
48
-48
-64
128
272
96
48
-368
448
528
-208
16
-192
-384
-592
-144
480
304
400
112
-112
336
432
32
-256
-128
224
448
-48
-240
224
-144
-208
-160
112
-208
-432
96
96
224
112
-400
-336
368
192
208
416
16
-240
48
-448
-192
-64
-192
272
80
16
-128
-336
240
496
-80
112
64
-272
368
176
64
-96
-304
48
-112
352
672
64
112
192
240
368
368
-96
-176
416
576
320
-144
-144
-96
0
-224
-144
16
-304
432
400
256
96
336
224
-128
32
64
-592
-224
-176
-128
112
-96
-208
-80
272
-96
-416
-336
80
-112
0
368
352
16
-80
48
-400
-304
352
336
176
496
592
192
272
32
-80
-128
-16
-48
-160
112
48
112
-144
80
-32
48
512
-144
-144
112
-304
-128
480
240
-448
-192
-352
160
-224
-240
-608
-288
-336
-384
-480
0
112
144
16
240
352
-224
48
-368
48
-176
-48
-368
-16
160
-96
16
-256
-272
-64
-400
32
544
336
304
240
144
-80
480
320
-464
-560
-288
112
176
-832
-304
-192
-64
-96
-304
256
-96
-352
-80
-48
256
112
256
320
-272
-416
192
-16
-256
-336
-64
-32
-176
-64
416
-32
0
752
-32
-288
-224
-256
-208
432
512
-48
224
-32
-48
-144
176
544
32
160
272
128
-32
208
-256
-960
-176
-320
-384
208
-224
0
48
-352
-128
400
64
96
256
-32
-16
-544
-256
-48
-352
-112
16
-96
-192
-16
-96
96
128
-304
16
-224
-32
-432
-224
16
-288
-32
96
-224
-160
304
0
-304
80
32
512
240
32
368
128
-240
-64
368
320
272
80
384
608
64
-160
-96
48
448
144
176
144
-80
-656
-144
464
32
352
16
336
464
-64
-96
16
-16
128
480
240
32
448
-80
32
64
32
-80
-176
-416
-672
-320
-64
400
-160
-384
-768
-96
-48
80
-160
-48
576
-32
-608
-96
528
176
256
384
352
-64
16
432
400
384
-144
-64
96
176
0
-192
192
48
-208
-176
-112
-48
112
512
304
-16
-384
-192
128
560
-48
-160
-144
-64
96
16
-272
272
32
256
304
224
16
432
-144
-64
80
544
448
48
-256
640
192
48
192
176
640
352
-112
-288
-16
16
-32
-144
304
272
-432
16
656
-64
-512
0
448
192
144
96
160
160
-128
-128
-272
-400
192
-208
-32
272
-192
-480
-176
-480
-432
-560
-192
-304
208
-32
-400
-192
96
-160
-224
-256
-16
-192
352
48
-496
112
-80
-64
48
160
96
-368
-416
-704
-192
-64
-512
-112
-352
-448
-432
400
-352
-688
0
80
80
-96
-240
-160
-336
176
272
208
224
-64
112
240
96
-112
208
-176
-448
-288
-48
-16
64
272
32
-272
16
0
416
176
-144
400
-144
16
144
64
-656
-160
464
384
224
128
144
-16
-112
-304
-128
0
-320
-64
80
-256
-208
-48
64
-336
96
128
-592
-672
-112
-304
16
320
16
-240
-496
-144
272
-112
-352
-208
336
-144
-80
-80
-400
64
48
112
208
32
-176
80
-176
-464
-48
-224
-224
-128
-96
-176
272
128
0
112
-208
-32
-288
-432
-112
-96
-336
-80
-416
32
352
-80
496
944
560
64
416
288
-240
-320
-144
272
560
-160
-608
-288
208
544
864
496
128
48
-512
48
-512
208
384
-96
-320
-272
32
-176
16
-64
-96
-336
-304
192
48
-160
-304
-384
-336
224
-16
-64
-176
-144
208
-240
-48
288
320
384
32
160
128
400
240
-160
-224
128
32
144
-80
128
-16
-448
32
112
64
32
-112
48
528
672
448
64
-256
-64
144
496
240
112
208
-64
-304
0
608
432
656
304
0
464
224
224
224
-144
-128
80
-80
-32
32
-128
-160
208
304
0
224
464
-112
-32
-272
208
-352
-448
-176
-32
224
352
-224
16
352
80
-80
-384
-528
-288
96
-160
-64
64
192
-224
128
160
272
80
480
448
-48
-144
144
128
-432
144
80
32
-144
224
336
-32
160
128
32
432
336
368
160
-256
-48
-480
-320
192
128
368
144
336
272
-96
224
96
-304
448
16
-176
-80
400
48
-528
-288
160
192
-64
176
-336
16
-80
-48
0
208
-96
352
0
-528
-416
-224
-416
-208
-208
64
-320
-128
-80
-176
-432
48
-368
-688
64
304
-112
-384
112
32
-160
-48
-208
256
352
64
-352
-368
-80
480
272
0
-192
-304
-128
-48
208
304
-80
0
400
448
480
560
304
-144
-128
0
-336
-560
-32
-80
16
208
256
-80
-80
208
240
720
80
-832
-800
-144
144
240
224
-352
-48
-304
112
-384
-336
208
-208
-448
192
224
80
176
-528
-512
-560
-192
32
112
464
64
-192
-160
-16
-192
240
448
0
80
80
432
336
80
96
144
-128
352
192
464
704
176
-256
-80
64
16
-288
-448
-176
-80
-208
-304
-224
-96
-16
208
128
-224
-32
-32
-352
-160
-112
128
16
352
144
0
160
560
-16
64
-384
-112
32
-224
-208
224
-176
-128
-192
-64
32
-400
-80
96
592
160
-32
96
32
80
-304
-384
-128
-16
160
-384
-576
-416
0
-352
-400
16
-112
80
496
304
352
96
-128
-256
-304
-656
-288
-192
-304
-192
240
320
320
-400
0
384
208
0
-144
-160
-448
-112
-288
-752
-656
-160
-144
-80
48
416
-400
-672
16
224
272
-80
192
-96
-384
-320
-160
-144
0
-368
-784
-176
-208
64
16
-224
-96
-512
-592
-432
-64
288
-176
-48
-128
-320
-176
-400
208
48
-240
64
112
96
-224
-16
208
400
-48
-48
-288
64
448
-160
-48
80
80
48
208
-80
176
0
-80
-208
-160
80
-128
240
144
320
560
0
-304
-288
-416
16
256
-176
64
32
64
96
368
-32
-384
-128
-32
-272
-96
272
320
-352
-592
-480
336
384
320
144
-160
-128
-432
-80
-432
-528
-16
-384
-32
-128
-288
128
-32
288
176
160
48
-496
-208
-192
224
-192
-224
544
272
-48
-480
-272
-688
-560
-384
-400
-352
-128
400
272
336
304
-288
-432
-448
-144
-48
112
320
496
16
-160
-240
352
304
160
-48
416
0
-64
112
768
448
-208
-288
-256
192
320
64
0
-80
-240
96
-112
-192
176
256
-288
-96
-416
-272
128
416
784
192
400
368
-320
272
176
96
-64
48
544
128
16
-16
96
576
320
0
592
768
496
-192
0
256
48
-80
64
336
144
208
48
112
176
16
80
128
-32
-16
-384
-288
16
64
-352
-144
-208
-352
-368
-336
-144
96
-160
48
752
32
-32
240
-32
-96
144
-176
-816
-608
112
-224
48
192
-16
64
368
368
128
16
-240
-16
-176
-80
32
16
0
144
144
32
256
80
128
48
-480
16
80
144
208
-16
-336
-128
-112
-304
-240
-448
48
-208
-240
-96
160
336
16
496
160
-768
-464
-368
112
16
368
-32
-160
-208
-128
224
16
256
272
32
240
64
16
-240
-352
-336
128
-224
-320
-464
-272
288
336
-272
-160
-560
-48
-112
-48
304
192
176
0
16
32
48
32
128
416
64
-288
-352
-528
-80
-224
-128
144
32
32
-176
-352
48
640
576
-128
128
32
-224
16
32
64
-432
-576
-304
-176
80
224
144
32
-128
16
288
512
320
192
400
176
16
-336
-96
32
128
-176
-96
192
-96
-32
-336
-544
-272
96
-16
-96
64
320
576
112
-64
272
176
96
-32
288
384
304
368
112
-176
112
112
240
272
176
160
160
-400
160
112
-128
208
-320
400
496
464
368
96
16
-576
-672
-144
240
-144
-416
-272
-208
-48
-128
-64
240
576
320
256
208
-160
208
448
-192
-48
176
416
256
192
160
-304
-224
352
624
448
-208
304
-32
-384
-400
-304
-80
-512
-128
496
384
48
-240
320
160
-352
-128
256
-208
-112
-272
-64
-288
-848
-304
160
64
16
-240
112
112
0
-48
128
256
144
160
-80
16
368
-96
-480
-160
80
80
-544
32
-464
-176
-416
-208
-288
-144
176
224
-128
-128
176
-112
-144
-96
32
-144
-384
-480
-448
-448
-96
112
-64
304
224
160
80
-16
80
192
112
112
416
400
144
464
240
160
224
384
432
0
-80
80
-256
-496
400
576
16
-128
-176
32
272
-336
-368
-224
176
16
-32
96
128
272
144
-400
-80
-400
-128
-48
256
256
-224
-160
-256
128
592
272
48
-352
80
192
-640
-848
-320
32
16
32
-320
-448
32
-80
-576
-304
-64
-176
-336
304
400
160
32
-464
-208
80
528
272
400
464
176
-688
-416
-224
-208
80
-464
-800
-352
160
-96
224
-16
288
-176
-608
-608
-304
240
48
-192
64
320
96
144
16
-32
-160
-224
16
48
160
80
416
0
-32
448
256
-48
576
320
416
-16
16
48
-128
384
208
-272
-608
-528
-272
-160
-448
-416
-304
160
-144
160
304
-64
80
-32
272
560
48
-336
128
448
16
112
-304
-624
-256
-208
-368
-752
-64
336
64
-192
-400
-16
16
-80
80
176
-96
-416
80
208
-160
80
16
288
-176
-480
-80
416
192
-288
-592
-272
-224
-128
0
-96
48
0
256
176
-240
-992
-768
-144
144
144
608
80
-320
-336
-80
-352
-560
0
-48
112
160
208
-448
-224
-112
-128
-512
-336
16
-128
16
-560
-784
-128
80
192
272
-112
0
-224
256
80
-464
-368
-592
-176
96
208
432
64
96
-128
-112
-272
-64
-272
-336
-160
-256
-208
-208
32
160
272
192
-352
-80
16
16
-144
80
256
448
32
-96
-96
-208
-320
-256
-96
128
272
-144
-192
80
32
240
432
0
144
-128
-464
-224
336
192
16
-320
-720
-192
320
192
32
-384
-160
192
-192
-176
320
160
480
576
64
-272
16
-64
560
96
-624
-464
-320
-352
-336
0
0
-288
160
464
-240
-448
-96
-32
-304
176
-96
-336
-256
48
528
480
336
0
0
32
-288
64
48
112
-384
-448
-48
-400
-256
48
-144
-224
224
-80
96
208
-96
80
-208
-576
384
336
336
16
-112
-800
-320
-528
-400
-64
48
256
384
96
-32
-320
-256
-128
-208
-48
208
-432
-848
-384
-32
0
-144
0
-368
0
272
80
-640
-816
-448
-528
-224
-272
-64
64
-112
-112
-80
-96
-240
-384
-48
-432
-256
-144
-176
-96
-368
-192
-608
-128
-240
-112
-432
-336
-16
-544
-384
-480
272
-16
176
272
-48
-16
-32
-176
-192
-64
240
32
272
496
-224
-288
32
432
480
288
0
528
-416
-336
-208
-256
-400
-272
-112
128
288
112
96
-272
-448
16
-112
-96
-304
96
-112
-112
-80
-224
-432
-384
224
272
-384
-224
-176
48
48
208
112
560
752
208
544
160
-320
-288
-688
-96
128
176
-272
64
-160
320
448
48
112
48
32
352
96
208
192
-32
368
160
-160
-160
-80
-656
-384
-224
-240
240
208
144
224
-32
272
64
64
112
208
240
-48
-96
224
96
400
-80
352
272
96
-272
-128
64
528
400
48
-256
-288
208
624
160
64
-64
-96
-288
-240
0
272
208
80
-112
-48
272
-96
-80
-464
-96
-304
-288
-32
368
320
-32
-16
-144
16
-464
-624
-32
-240
416
480
-96
-368
112
-256
-320
32
288
-48
-304
-80
-304
-160
-112
-368
-272
64
400
-64
-32
32
208
-304
-752
48
-80
80
112
-192
-32
144
144
-352
-64
128
160
240
64
-528
-288
160
-16
-448
-432
-416
288
272
16
64
-480
-64
-192
144
-304
-256
-384
-176
-480
-128
-208
-304
48
-32
240
144
-224
-320
0
-208
288
464
224
0
-624
-160
-112
-80
-16
416
208
-192
16
-320
-80
336
-112
144
144
-432
-432
-320
-48
-208
496
368
-416
-208
-64
-416
-496
-288
-112
576
688
240
-160
-144
-80
-80
-48
176
48
272
288
160
576
720
192
528
64
-432
-320
-144
-80
32
0
-256
432
112
-16
208
-192
-400
-176
224
64
-96
192
448
816
160
64
288
-208
-96
16
-704
-448
-160
112
-112
-240
160
176
-544
-464
96
336
-288
-288
448
384
80
-272
-144
-432
-64
-352
-288
-32
256
304
272
-112
0
176
-80
-48
-160
352
704
432
-112
-464
32
512
-32
272
160
-272
-224
-64
176
-80
0
0
-16
160
80
368
544
-80
224
128
128
64
64
224
464
352
64
640
544
288
48
320
-352
-448
-656
-64
400
112
-112
208
384
112
16
384
224
464
224
224
384
320
-48
160
288
-288
-384
-16
-96
32
-512
64
240
-208
-320
-16
-224
-592
-224
-96
48
-160
352
-144
-448
-208
272
-64
-64
320
16
-464
-80
272
368
192
-16
-192
-112
-256
-400
64
384
640
176
-272
-192
-128
-320
-64
208
144
-16
-432
-16
304
16
-592
-32
256
-176
-48
320
112
32
-320
-240
-144
32
80
-128
112
464
-112
-896
-368
-160
-128
304
304
80
-160
-16
352
96
32
-64
-208
416
-160
-496
288
32
-256
32
-224
432
208
-256
288
432
480
-400
-176
-224
-80
-160
16
-352
-272
672
576
-48
176
176
384
304
400
128
-128
256
112
112
-80
176
-576
-224
368
-208
-176
-336
-16
-496
-288
400
-160
-224
-64
80
-112
-192
208
64
-304
-112
480
432
144
448
-320
192
-208
-256
208
-160
-160
32
-96
-400
-176
-496
-80
128
16
-304
224
336
-64
-400
-368
-80
128
112
-64
-256
0
560
352
-224
64
0
160
112
-96
-160
48
-240
-192
-80
-192
-64
112
240
48
32
224
528
400
560
160
-208
128
368
16
-272
-256
-80
-256
-352
-416
-288
-368
-352
-32
192
320
144
-528
-384
-272
-208
176
160
496
-80
-384
-48
480
80
-176
224
48
-288
-240
-96
-240
-304
176
384
32
-224
-176
-720
-208
-256
-256
176
208
640
656
-80
-304
192
384
176
-368
-528
-240
48
192
-144
416
80
16
304
256
-64
384
576
-80
-224
-64
48
176
128
224
224
368
272
-64
144
-464
-288
-176
464
32
32
-528
-144
400
272
144
176
-144
80
640
192
32
-16
-608
32
16
416
96
208
368
-144
-160
0
-224
-400
-368
-304
544
384
-320
64
240
-48
0
64
80
-32
272
288
96
384
192
320
464
-16
272
112
336
224
16
-32
64
144
-64
320
400
400
144
-32
-128
0
-64
-96
-304
-80
256
416
288
0
48
272
64
-240
0
48
224
320
80
-64
96
208
-112
-160
-192
-16
432
-240
-496
-144
-288
-320
-560
-336
-32
32
-48
-64
-32
288
432
224
288
-352
-176
112
128
48
-448
-336
-384
-240
96
-192
-224
432
-176
224
1264
944
-192
-320
-224
-112
-48
-48
-144
-32
-32
-48
208
64
-144
128
416
-32
240
80
448
288
288
320
400
128
-32
-32
-224
-48
-16
-96
0
-256
320
112
-240
-48
-896
-320
-304
-592
-48
128
80
-224
-16
320
304
-80
-720
-384
0
-64
-128
-160
-256
-32
-128
-288
-144
-224
0
-48
-208
64
-144
448
704
128
-448
416
304
-528
-208
336
208
-32
320
-112
-288
48
-32
128
400
48
64
160
-208
-400
-368
-512
-16
48
288
-32
368
-32
224
176
0
160
416
128
256
288
304
144
-352
-192
112
288
-64
64
64
192
-176
-336
-160
32
64
-512
-512
-368
-32
-128
224
32
-48
80
-16
48
-192
80
-336
-16
-64
-48
176
-112
-32
352
288
-496
-240
-304
-272
64
16
128
272
-544
-32
208
288
144
-480
-416
-96
352
-448
-320
-192
-304
-224
32
432
-256
-256
-16
160
-96
-304
-144
32
176
272
32
-80
48
272
64
-368
16
-48
-336
-128
-16
128
-96
192
96
144
48
48
112
-160
-16
-288
-272
-496
-416
80
496
-352
400
176
320
32
-256
-80
-272
-32
-336
-32
-448
-16
128
-640
-240
64
-176
-224
-128
-800
-560
336
496
832
224
144
224
-96
208
-288
128
640
576
576
80
-64
-144
-112
112
-16
-512
-704
-256
-80
-336
-224
-32
176
128
320
720
-112
-576
-224
160
224
240
-192
-224
-192
-32
240
-80
-304
336
256
224
-192
-80
-112
64
240
-352
-272
-112
64
-16
320
512
-208
-96
304
224
-128
-400
-208
176
480
-112
-304
48
-16
48
128
-112
-16
432
-32
-96
-96
-32
-144
-304
-576
-32
80
48
-16
96
176
416
48
-496
96
144
-128
-208
-240
-96
-80
144
-288
-16
0
368
304
-96
-240
-32
400
416
528
192
-128
-352
64
-16
-64
160
-128
160
304
-368
-352
240
64
-96
240
-176
-368
-208
-240
-80
-96
0
128
112
448
-112
-80
-272
-336
-448
-160
-176
64
320
-128
96
160
304
336
224
-400
32
144
-112
16
208
224
-160
48
64
192
176
208
-272
224
304
-144
0
336
976
320
-112
-240
32
48
336
256
208
-128
-208
176
256
224
-32
-208
32
352
-160
-512
-144
256
-144
-224
256
-336
-80
-64
-128
112
240
-96
304
256
32
-432
-176
-512
-320
288
272
192
720
432
-416
48
-304
-64
48
-176
-208
224
304
-112
-688
-816
-208
240
208
160
-128
-80
96
128
-336
48
-208
-256
-160
176
240
-288
-272
480
48
-144
-32
32
144
192
80
320
-32
-640
-384
48
224
544
288
320
-64
-32
0
496
528
16
-192
-272
320
272
160
112
448
528
400
-80
64
416
240
16
-32
64
-96
-144
240
352
112
160
256
-432
-416
-464
-272
-224
32
-416
144
448
176
-16
-16
16
-48
-128
192
-432
128
416
-96
-304
64
-352
-112
64
0
-112
-256
-448
-144
-32
80
-272
-400
64
-224
-240
144
128
-256
48
320
336
-112
112
-112
256
-32
32
-352
80
-96
-80
128
48
624
176
64
-208
-496
-64
400
64
-112
-192
-288
144
80
-224
-160
-464
-368
0
208
64
-192
-128
-48
-288
-560
-128
64
192
128
-288
-384
80
48
-144
192
-224
-432
-160
-64
48
592
96
-208
416
96
32
-96
-160
-208
-272
256
192
-464
-32
112
-80
80
768
352
-208
-144
224
160
-48
-336
-272
-112
-304
-320
-432
-464
64
384
224
128
-32
656
192
208
-208
-560
448
128
128
64
-16
16
240
-32
32
-64
-208
176
368
128
96
-32
-448
-512
-384
-448
-176
-192
-64
-448
-240
144
336
-384
-256
192
144
432
272
-96
416
80
-240
-16
400
720
-112
16
-432
-16
48
-592
-368
128
-304
368
320
160
-16
-80
-144
-144
144
384
48
-288
240
-80
-416
-240
-224
-64
-224
-304
96
208
560
272
240
-160
-400
16
448
368
-208
-544
-320
-400
176
480
-80
336
304
432
48
-96
-128
-128
80
112
-208
-224
-272
0
-80
176
384
160
352
-464
0
-96
-112
144
-80
-192
-288
-288
-96
-96
-304
-384
-224
272
224
-224
-192
-272
-240
-144
560
256
-48
224
176
528
480
128
-176
144
-16
448
640
368
352
-160
32
256
-128
-256
-400
-240
256
32
112
64
-416
-144
288
-64
128
80
96
-240
112
352
144
-160
32
-240
-384
48
128
160
176
-288
-480
128
16
-32
-192
-48
0
-272
-224
-192
-656
-208
144
-160
48
320
-80
-64
480
80
-384
-432
-352
-112
192
176
-320
192
48
112
0
-400
-176
128
-528
-368
-416
-448
-160
-320
-416
528
-240
208
272
0
-352
-336
-80
-240
-272
224
-256
-496
-544
160
208
176
-288
-272
128
160
672
688
384
-400
-768
-624
-144
-32
-16
-208
144
208
288
-96
32
-192
224
736
-96
-576
-720
-96
368
96
464
288
-16
-48
-240
192
-352
-336
-320
112
-272
64
336
432
496
48
-160
-368
-160
128
224
384
-224
448
240
672
768
0
-432
-160
16
-144
32
64
432
-208
400
560
544
-176
400
336
-16
-48
-112
-80
-368
-352
64
96
-16
240
480
160
-320
-560
-32
80
-64
16
-368
192
416
320
-336
-48
304
720
736
192
464
592
384
176
160
560
-64
176
-64
-64
80
16
-256
-16
-144
-384
-112
-400
384
320
192
-544
-176
-176
576
1024
-48
-224
144
32
-224
-144
416
240
32
48
-80
-176
176
416
256
16
-208
-160
-432
-272
-32
-272
-640
80
-80
-240
144
-208
464
240
-400
-64
320
304
-448
-432
-320
-160
368
-48
-128
-16
-272
-320
-208
496
80
-224
512
-288
-256
-256
-48
-96
-176
368
272
208
272
-256
144
-672
-384
256
208
288
192
-336
-416
-416
128
-224
-16
-608
-208
256
48
-80
240
-464
176
496
160
-128
256
-320
-720
-432
-288
-80
-768
-608
-208
272
336
144
-80
48
-320
96
-160
-176
96
224
-112
-288
-576
0
368
192
-80
-16
-608
-832
-336
-352
-256
48
-416
-64
-48
-176
-256
0
32
16
432
-240
-96
448
304
64
32
-112
-208
-48
-144
-48
496
208
-112
-272
-224
-480
-544
-480
-272
96
512
-16
400
512
-112
-144
-128
-336
-160
-160
-256
0
528
256
208
112
0
-304
-208
16
96
288
-288
208
544
160
448
272
144
368
192
64
256
0
352
272
48
-240
-464
-192
432
432
336
432
288
144
128
80
-32
-48
144
64
-16
-272
-208
-144
48
384
240
-432
80
896
320
400
-112
288
-240
-272
512
176
-368
-672
-352
-32
400
-80
-144
-96
144
176
-336
-96
64
32
400
-240
48
32
-576
112
80
32
288
208
128
320
-272
-160
-464
128
-144
-64
288
480
864
192
-256
-176
-80
128
-16
-128
192
48
-96
-144
-96
-192
-96
80
336
-112
-192
-272
-272
-240
-176
-608
-464
-480
-432
-560
-608
144
48
224
128
-480
-256
-96
-576
-784
-688
-432
-192
-128
-624
-640
-544
-160
-32
-192
-160
-512
-176
32
-208
-48
272
432
448
224
256
-272
-80
224
64
-64
-32
-400
-48
448
-128
64
96
-560
-128
-112
464
320
-96
-272
112
512
400
32
736
-16
-144
-416
-384
-144
80
304
112
224
448
144
-176
144
128
304
-320
-208
-64
-240
-16
-160
-176
-320
-288
208
-128
-272
-80
240
0
-256
192
608
128
0
-32
-496
-576
384
192
96
160
64
480
400
48
-32
-176
-240
64
80
304
96
80
96
-432
-352
-224
-512
-784
16
-16
-112
-96
-336
-416
-256
-32
-80
272
480
64
128
656
176
560
-128
-336
-192
96
-272
-784
-496
16
448
112
-176
-192
128
0
512
288
96
-320
80
512
640
48
-288
336
320
432
624
496
240
368
-160
-224
-112
-304
160
-320
-96
-416
-32
160
-16
128
48
32
-432
240
-48
240
16
112
-288
-112
-192
-240
208
128
80
-320
-512
-176
224
-176
-176
208
160
-384
-224
-240
-16
272
0
416
-32
-288
-304
-368
-320
-448
80
-16
32
16
32
48
320
800
784
576
256
-64
528
192
128
160
-64
384
80
512
112
-176
-272
-336
288
416
208
336
96
-192
-16
528
320
-320
-176
112
-544
80
-384
-288
48
320
368
528
208
-192
112
112
-224
16
80
-160
-192
16
16
368
336
-288
288
96
-736
-224
624
144
-48
-32
80
208
-208
-304
-192
-176
-96
-384
-48
64
288
352
-464
80
256
-240
288
-112
-384
176
320
0
224
320
624
368
640
144
272
336
208
-144
-112
-528
-112
272
16
128
-48
-64
32
16
-64
-16
-80
-272
32
112
-240
-400
-240
-144
-224
-256
80
240
0
64
16
176
256
-160
-304
-160
-208
-112
-464
-112
-592
224
944
528
-256
0
112
48
-304
32
96
128
-368
-272
160
-208
-464
-96
352
208
368
-336
-256
512
464
400
80
112
16
-208
-48
592
-176
-16
-240
-800
-32
352
-336
-64
288
560
352
-16
-176
-480
240
-112
-304
-64
224
160
192
176
-64
-160
144
-144
128
208
512
-32
-368
-192
32
16
-640
-16
-224
-48
-288
-272
208
-176
-544
-432
-80
272
400
560
464
224
-256
-336
-240
96
368
288
272
-176
-432
0
320
-240
-256
80
272
-160
-240
-80
-80
-176
16
144
-64
-176
-192
-288
224
48
544
464
544
368
272
272
-288
32
-304
-496
-96
-32
128
-96
-80
-176
-192
352
400
144
192
-144
304
-144
-528
-256
-352
144
160
-224
-128
-160
16
16
256
-96
96
-496
-192
144
-160
160
-176
-208
144
256
512
320
464
400
208
-16
-352
-448
-512
-272
-176
336
176
-48
144
112
-48
224
208
-160
-304
-240
-128
-176
-528
-528
-16
352
224
32
-208
-576
-32
80
-272
336
32
48
-48
-64
-304
272
-224
-800
-144
0
-64
176
96
-160
-224
-464
-256
480
432
-112
128
560
-64
-624
-480
-368
144
816
224
224
144
-592
-224
-256
112
48
-272
-96
-288
-256
0
560
368
-384
-384
-48
224
-480
-464
-528
96
320
112
80
64
-96
-688
-336
0
-112
-336
-448
16
-480
-192
-336
-80
80
-64
48
160
-352
-272
32
-480
-192
-48
-656
-64
-112
-320
-144
256
576
192
-352
-144
48
192
208
-208
128
176
-192
-32
48
48
-32
-112
-544
-656
-512
-288
-192
-144
224
176
-64
-64
16
-224
-304
-192
-128
-544
-128
-320
-256
-160
-336
32
-176
-432
-368
-336
-464
96
-352
-144
160
160
624
656
576
-80
112
-48
16
416
-96
-48
464
144
96
-144
-336
-176
80
-80
-256
32
-288
-576
-464
32
480
256
-144
48
-384
-224
192
48
192
128
352
208
-160
-16
832
528
192
128
-496
-96
-96
-496
-256
256
-320
-192
-160
112
-224
0
-224
-96
544
96
-256
160
208
32
400
416
144
32
208
-96
144
64
-768
-416
176
432
16
16
160
112
-336
-416
-368
-80
96
-96
-160
128
-240
-208
-48
-176
-96
128
304
-80
288
320
176
848
272
-368
-208
-336
496
176
16
368
256
-336
-144
-352
-496
-352
32
32
-48
-64
-80
-48
-240
112
96
128
384
224
112
48
-192
-512
-576
-192
-576
-368
-192
-272
-96
-720
-352
128
112
-240
-64
-352
-320
-48
32
32
224
320
400
224
400
240
-128
-144
112
224
-240
-48
288
80
400
96
144
-32
-368
-64
240
96
-224
-448
240
128
-256
-96
272
592
-144
-576
-48
-96
-80
-16
-224
-352
320
304
-304
-240
48
272
96
-368
304
384
-208
352
672
128
0
-256
432
432
-272
112
192
640
464
384
32
-528
-256
-32
-80
176
128
688
112
480
352
64
-272
-384
112
32
-336
-128
-192
176
320
48
224
480
304
144
336
-288
-272
-192
-224
-240
-384
352
192
16
176
112
192
160
-16
-80
-176
-48
48
-32
0
448
224
-144
-496
-416
-240
480
112
192
-176
-64
-80
-304
16
160
160
144
96
-336
-304
-160
368
176
336
336
192
-256
-160
-128
0
-224
-304
176
304
176
-48
80
464
176
-304
-400
96
160
-16
-144
-128
-304
-464
-384
-48
-32
-16
-336
0
448
-96
-96
-160
-128
-16
-560
-464
-368
112
-112
-192
96
-112
-128
64
464
272
176
272
240
96
160
64
192
592
464
512
-160
-800
-320
208
48
336
112
-192
0
-144
208
-48
-48
48
48
-224
-368
128
-208
-64
-64
272
-512
-432
224
224
-464
-592
-320
-560
-224
192
272
48
-720
-96
-160
-464
-352
-80
-288
-112
32
-112
-128
0
496
400
112
64
224
80
288
32
-672
-112
-336
-304
-96
224
320
336
256
320
64
48
144
-112
-112
48
-128
-48
-48
-336
-272
352
208
-96
-256
112
160
80
-96
-384
176
816
208
-272
-512
-400
-48
224
304
0
224
368
-160
64
80
416
368
-48
400
560
368
-96
-416
-480
-352
192
352
144
64
-192
96
64
112
-512
-272
128
-80
-368
80
320
-160
-160
-96
-64
-192
224
-32
272
-16
-592
-112
96
-16
-64
-320
-336
-432
-224
128
160
-208
-336
192
-240
48
672
160
-176
192
288
0
-304
-96
-272
-208
144
16
-208
-144
0
336
496
304
400
-208
-528
-304
16
272
0
16
32
-400
48
208
32
416
-64
192
-176
-448
-240
-64
32
384
352
-208
-320
-672
112
80
0
448
272
-32
-272
-64
96
848
576
0
368
432
512
160
192
-128
-480
-368
-336
-416
112
96
48
-496
-496
-176
144
-16
496
240
-272
-112
-304
-240
-256
112
-128
192
224
400
-112
0
32
64
-160
-208
-384
-336
-80
112
208
-384
368
-128
-128
192
-16
272
-112
-336
176
0
-32
-288
-320
16
256
-80
208
448
480
240
-336
-368
-128
-352
80
-352
-496
-256
-144
48
80
176
-96
336
432
-192
-432
-336
-240
208
608
560
-224
-368
304
320
512
736
544
80
144
176
-160
128
-352
-496
-496
-464
-48
32
448
272
400
176
48
736
256
32
-272
-240
-32
-176
-80
-96
16
-560
-720
-144
-32
-336
-48
272
160
-80
-224
-464
-128
-176
-160
-16
-160
96
-16
-224
384
96
-256
272
-80
352
176
-240
-112
80
48
144
-416
-256
96
64
64
-128
-240
-128
96
208
-304
128
-320
192
-32
-80
-128
-320
-304
-160
32
-80
64
592
256
-304
288
144
-176
128
-112
0
-64
128
-256
-592
-192
0
304
624
48
160
-32
464
352
384
-384
-336
-224
96
576
272
-112
-288
-528
-496
-128
-64
-272
128
160
-272
176
-96
-432
112
-176
-304
-160
192
-48
0
-16
-368
-288
-368
-128
80
-16
-208
32
-352
-16
80
-32
-256
-256
-272
80
352
160
-224
384
32
-176
-48
-48
32
96
-192
80
32
-240
-144
160
32
144
240
-16
160
-64
80
304
96
624
80
-144
-256
-480
-272
-320
112
96
-576
-528
0
272
-608
-384
-224
48
-224
-80
496
656
544
336
-128
112
-96
-336
-32
-192
-560
-208
-192
-192
672
704
320
-480
96
128
-176
-160
288
112
-80
-416
-320
432
144
0
-224
144
560
448
48
-352
-112
-192
336
48
-256
-128
96
480
-288
-336
-96
-64
336
-208
-208
-208
-208
-736
-800
-416
-240
240
-224
-96
256
-240
112
736
288
80
128
-64
-16
-80
-176
608
272
-128
-192
-224
-240
16
-96
16
224
432
64
16
-16
-288
-384
80
-16
-320
-208
-32
-32
-96
192
-144
-192
64
48
96
96
-240
-64
-320
-320
-384
-352
176
176
288
-16
112
480
304
48
416
368
-48
-112
-64
432
528
432
80
80
128
304
208
768
480
-272
-368
-48
-48
-112
96
304
336
192
96
-224
-272
-64
160
-208
-112
256
336
240
-176
176
-240
-576
-144
176
176
128
32
144
-96
-256
-48
0
-176
-16
112
-96
-208
256
0
32
-384
-192
-240
112
400
208
48
240
48
-400
-544
-672
-320
-240
416
416
432
-128
-224
208
-368
-336
0
224
112
-32
-192
-384
-384
256
336
-96
16
608
528
336
464
448
112
368
208
144
80
-384
-288
-128
-144
-208
-288
-672
-128
448
48
-144
-432
-720
-464
176
-320
0
-64
688
512
320
240
-256
-48
-32
-96
-240
-288
64
464
528
704
432
-48
-16
240
352
-448
-544
224
272
288
16
352
64
0
-336
64
416
0
-192
16
16
144
-336
-256
-144
288
0
528
368
320
-128
80
-528
-224
144
32
592
-48
16
-64
-320
-48
-144
16
-128
-176
336
144
-352
-80
304
160
32
-48
96
144
-16
240
-208
-224
160
-400
-288
-32
240
144
32
288
80
-16
-96
16
128
32
160
-144
128
-32
-224
-112
64
-304
128
48
144
560
96
528
656
272
-48
352
400
-48
-80
-16
-64
416
128
-144
144
80
-224
-272
-112
256
176
-240
-240
-48
-144
-448
-608
-448
-288
-480
-320
-272
-352
64
-48
96
176
240
192
160
-176
-704
-464
-112
-208
80
80
-96
-96
240
400
-144
-224
-112
-464
-240
112
-224
-272
-272
64
-144
352
-720
-256
336
192
-64
-128
16
-240
288
80
-80
-48
-80
192
112
-176
-16
576
272
-160
80
-288
-256
-576
528
336
-128
-160
-32
-272
-208
96
688
-48
-64
576
48
-288
176
-480
96
80
240
416
-48
224
128
-32
64
576
336
48
-288
16
-336
0
-32
-112
-448
-256
32
224
-368
-208
-224
304
-48
-16
64
16
-16
-16
-416
-752
-464
-128
32
240
-16
384
96
16
64
-144
272
256
-192
-304
352
608
32
-240
128
272
-32
112
-144
-272
-240
32
-240
-112
256
48
-96
-192
-672
-144
-16
400
208
-160
240
272
448
112
-192
-160
432
80
-336
-224
32
-192
464
480
96
96
32
96
-80
-64
-256
-272
80
304
288
16
192
-96
272
480
32
32
-192
160
416
256
-64
96
-48
-224
-320
-96
0
320
176
224
-496
-368
-784
-768
-160
112
544
320
240
128
448
256
112
256
112
-176
-464
-80
320
144
-176
432
176
-528
96
0
-352
-528
-176
48
-544
-368
-32
-128
-176
304
112
-288
64
32
160
-288
224
464
-736
-224
-32
-256
-656
-400
224
384
208
48
144
368
352
240
224
-304
-256
-624
-432
176
400
528
368
208
-112
-32
-336
-208
-320
-448
-544
-192
-304
48
656
-32
288
352
384
-16
240
272
-128
-288
-304
48
336
-176
-112
80
224
704
320
-256
160
304
48
-96
-48
224
-112
16
160
64
-304
32
-32
-384
64
480
-128
-144
-16
-80
112
464
240
-112
-112
-16
112
-144
64
288
-256
-256
-384
112
-352
-192
-48
-256
80
-576
-160
32
-128
-128
-288
-160
-256
-112
-16
144
496
528
704
176
352
624
48
0
304
176
48
0
128
144
-560
-336
352
240
-16
208
176
-144
-576
-608
288
80
-32
-48
64
-448
-528
16
48
160
320
608
32
-176
-320
32
0
-416
-208
336
240
-480
-256
-32
-96
400
256
240
240
208
-176
256
528
512
448
-112
-352
-176
80
80
80
-16
128
16
16
-32
-96
-512
-512
-176
160
320
288
-336
-112
-96
-208
-48
96
80
-96
480
480
-112
-256
-640
-896
-304
-48
0
-48
-144
320
96
-320
-576
-416
-112
368
256
-160
-704
-512
-240
192
288
416
368
48
688
-80
-320
-176
240
-192
-48
208
-96
-128
384
352
304
16
432
0
-176
128
-96
-656
-400
64
-128
-432
-208
64
-128
-544
-352
96
16
-80
-432
16
272
64
-160
-48
-64
-592
-112
384
32
-32
-304
-32
48
-320
112
848
528
144
-32
-240
-256
-336
192
384
288
32
-256
0
-64
0
-64
80
0
288
272
-272
-576
-384
-208
96
0
48
112
96
304
-288
-112
-208
272
256
-128
-304
-128
128
-128
-624
-384
496
432
32
-608
-112
464
64
272
-128
112
32
-128
-64
-176
16
-80
-400
-400
656
544
544
272
-96
64
-208
-80
160
32
208
288
144
432
384
480
32
288
352
144
32
-368
80
-48
-80
432
48
-16
96
-304
-288
-400
-32
-224
208
0
80
144
272
128
-16
-576
-544
112
-544
-304
128
-128
-256
-240
-176
-304
-176
-288
-224
-336
240
0
368
-32
-272
16
-544
-144
-16
64
208
-416
-192
224
-48
-320
-288
-208
-320
128
352
240
144
48
16
-176
-112
112
160
272
-32
0
48
-368
-272
160
320
-64
-416
-144
192
96
-32
-64
0
16
-224
-192
-416
-224
-160
-320
-80
128
-288
48
-256
-336
-448
-32
-16
48
-336
-256
-96
-112
-96
256
240
64
160
240
112
-320
-32
32
176
16
64
160
-416
-432
-112
-80
-640
-208
-384
-384
224
80
160
-128
224
160
-32
176
-16
-48
-144
80
304
-128
256
272
208
112
-112
-128
320
32
-336
-208
128
432
272
256
48
-176
192
-208
-112
416
80
-336
-48
-544
-576
0
-320
-112
160
96
-656
-208
304
16
240
352
368
336
32
-320
-128
32
-16
-144
-224
208
112
-288
-320
-80
304
160
192
320
144
96
128
208
80
64
176
240
-320
32
96
192
-224
32
720
368
48
-16
256
-464
-144
96
-176
-144
-16
-480
-32
352
400
384
-160
-592
-112
112
80
-128
-384
-128
160
-272
-352
144
-80
-416
-192
-240
96
160
-576
-240
400
176
32
48
-288
-432
48
96
-336
-112
-208
272
208
-352
160
32
192
16
-144
32
272
144
-192
176
144
-64
464
272
-64
112
48
-96
48
176
-64
-144
64
-288
48
320
-128
304
0
-160
144
304
112
512
560
672
368
272
240
-16
80
752
368
80
128
336
-128
-544
-336
432
336
176
112
96
32
160
128
-256
-464
-208
-32
-224
-416
-304
320
-288
-160
48
-304
-256
96
576
384
-304
112
464
-272
-272
-128
-336
-336
-80
208
-320
-336
128
112
-160
-112
-512
-336
-272
-592
-480
-464
-224
32
-240
-112
-288
-176
416
16
-256
256
-48
112
448
208
112
400
192
-224
-368
-384
-240
32
560
-96
-512
-272
-304
-160
-96
-16
-64
-112
256
272
-112
64
-400
-144
-320
0
-224
432
272
96
-176
-512
-480
576
672
0
-160
0
16
112
-496
-304
144
-16
144
320
704
224
-352
-288
272
368
80
64
80
48
-160
0
-64
192
368
112
128
128
32
-48
-240
-160
48
-352
0
-48
384
304
-176
-128
560
432
544
144
-192
-816
-400
48
-16
-288
16
16
-16
64
144
-112
256
-176
-80
-288
-320
-272
-400
256
464
352
416
112
-64
-528
-368
-384
-336
96
144
-224
-400
-352
272
464
272
416
-416
-272
-80
128
-176
-192
128
432
128
-432
-192
-96
-336
-80
-48
-160
256
-416
-944
-176
-64
-96
16
-304
-304
-272
128
144
-448
-16
32
-192
144
160
320
224
528
-32
-336
-80
-80
-208
128
-224
-640
48
-176
-304
-368
-272
-384
-176
-304
448
256
-128
-208
176
448
144
80
-352
-16
48
-48
-352
-416
160
-192
-144
64
736
368
192
272
128
-32
-64
64
-176
-224
192
240
80
80
-208
112
-176
-16
144
208
192
288
208
32
-192
0
368
-192
-80
-336
-112
-256
16
288
432
0
-160
-272
0
48
64
224
256
128
80
288
112
272
704
416
-96
-400
-144
544
464
144
0
-32
128
-272
-288
176
464
272
112
224
144
592
576
32
320
416
-288
-96
32
-48
528
128
-144
144
224
144
-160
176
80
-16
-384
-384
-416
272
-80
0
112
-64
-64
-320
-448
32
-176
-752
-592
368
16
448
528
144
160
-32
0
112
-256
-464
224
320
176
336
256
160
-176
-432
-64
-128
-304
-160
32
704
688
16
320
-32
-144
368
-48
16
-16
-192
-304
112
32
-64
192
-160
-144
240
-112
-144
-112
336
416
-112
-16
208
208
-384
-544
-448
32
272
624
208
-256
-368
-64
-208
208
-208
304
32
-688
128
1248
976
-496
-544
128
-16
-336
-672
-384
-224
64
-112
-48
-96
0
-80
208
176
-48
208
432
-288
-192
-208
208
32
-192
144
-160
-288
-176
-48
208
-128
0
-176
-304
-32
-192
-48
336
80
176
48
-240
560
640
512
32
192
-64
-224
-16
-336
-16
-416
-272
-32
32
-112
-80
160
96
-592
-560
-288
-144
-352
48
288
320
-48
-192
-64
16
-16
-160
176
-224
-224
128
-256
32
432
320
128
208
32
-224
-144
656
224
-320
-544
-512
-16
176
16
304
-208
-128
-256
-304
240
-112
-272
-48
-48
0
-16
-192
-48
-176
-544
-48
-112
-48
144
64
-416
-464
-416
-400
240
176
-304
144
-416
16
176
-224
-80
-160
-304
-704
-272
-480
-352
-16
64
192
480
400
560
176
208
208
240
352
32
176
176
-256
640
160
672
64
-320
112
-192
-256
-368
-64
-160
112
-304
-352
-656
-368
-80
-368
64
-416
224
0
304
368
-288
-192
272
176
-32
-208
464
240
-480
-608
-96
-16
176
96
224
416
64
208
144
480
560
-208
-416
-352
64
-32
16
80
336
144
256
192
304
112
0
80
-224
304
320
80
16
112
-224
-112
-80
480
-288
272
-96
-16
400
304
384
432
-48
80
-128
512
736
480
592
-16
-224
-272
-352
-272
32
-304
-304
64
16
-64
-336
-48
-336
-576
-464
-704
-288
-48
-304
32
-160
-400
-192
-96
-512
0
0
16
320
96
-96
-368
-304
112
-288
208
432
-320
-64
16
64
-160
-176
272
640
208
32
288
-48
448
464
496
528
400
432
416
256
112
16
208
-192
-288
-320
416
416
208
64
384
352
160
320
192
-144
-208
0
112
-320
-112
-176
-192
-144
16
688
144
-160
-48
224
208
-320
-320
-128
-432
-224
-96
352
208
-112
-128
32
192
256
-32
-128
128
-16
-48
-48
96
288
48
160
448
-96
-304
128
-304
-208
-48
-176
-80
-32
128
-432
-448
32
144
352
208
-128
-336
-352
-64
0
256
48
-464
64
352
240
-240
16
-144
240
560
896
448
288
-16
496
-48
-176
80
368
-48
288
848
-192
-416
48
176
496
160
-208
-144
-432
-176
-48
144
144
-208
-512
-224
0
-160
-336
-224
-32
416
528
432
272
464
96
-128
-176
80
176
272
384
-160
-160
-48
-16
224
-144
-64
240
-32
-464
48
272
16
176
-112
-320
32
80
-240
-432
-48
496
320
-80
-176
-64
-288
-160
672
608
-160
-16
128
-96
-224
-464
-480
-128
-528
-624
-256
240
272
240
-368
-256
-400
-192
-112
-224
-176
416
656
752
240
448
368
96
-48
256
288
256
-128
-480
-240
-288
-128
-288
-144
-400
-256
-112
-96
-144
-96
-128
-176
-256
32
-128
-64
-240
-176
-304
-256
-448
-160
-272
160
592
-352
240
96
-80
-176
-16
-160
-32
-448
-688
-1120
-432
-128
16
-224
-48
80
-352
-528
160
448
320
96
-464
-144
16
-128
-480
-384
-304
320
352
192
-64
32
-96
-208
16
48
-64
-192
-256
-80
64
16
-352
-176
624
368
-32
-272
-16
592
624
352
-176
352
-208
-608
-416
-704
-768
80
80
336
448
-16
-208
112
368
-432
-512
112
144
-224
80
-224
-480
-64
304
496
112
-272
-80
448
304
80
-128
96
0
-352
-400
48
-240
384
416
0
-112
-624
-208
-320
720
544
416
96
-96
64
208
352
224
-32
96
-128
-224
240
192
-16
-240
240
192
0
-368
80
448
208
-112
-544
-416
-64
0
256
144
-64
208
-208
-560
-32
336
576
144
-96
-432
-384
32
-32
176
176
192
496
752
416
112
-272
96
448
-96
-272
-272
80
-16
32
144
-320
-384
-128
-432
80
-288
-576
-144
288
192
480
144
-32
-272
-112
368
-176
128
112
32
96
256
-256
-208
-176
592
160
160
112
80
-144
-384
-320
-112
-160
0
112
-32
160
-160
-352
-160
176
-208
16
-160
304
144
-80
-272
-240
96
96
-352
-240
-256
-224
80
240
-480
-176
64
96
-112
-224
-48
128
-336
-448
208
256
480
192
208
528
240
48
192
464
240
-48
-464
-640
-512
-432
0
128
-256
-256
-704
-176
96
48
-64
-272
-192
336
16
-96
112
576
144
0
-96
-80
-272
-560
128
576
528
-32
-48
-384
-48
80
-352
-272
-432
-272
-128
-176
0
-416
352
112
48
-320
-400
-144
32
496
96
-48
112
208
240
-128
-16
352
-224
-672
-64
480
80
0
192
496
-16
-32
96
-48
-144
-96
192
-112
-336
-448
-224
224
144
-80
-208
-480
-32
96
160
-480
-16
192
-208
-32
304
656
496
32
-304
-80
304
-368
-272
32
160
144
-96
32
-288
-576
-208
64
-112
-48
64
144
48
-336
-128
-272
-224
-208
-192
-192
192
496
-80
-80
640
128
-304
80
16
-272
-144
240
656
208
192
128
608
0
192
352
96
-96
-144
-176
0
-128
-176
528
464
96
-80
-336
-400
128
160
32
-112
176
576
320
736
128
-160
-64
528
512
256
-160
-544
-256
48
-128
-288
-32
-80
0
272
-176
-416
-592
-352
-320
-192
-160
-304
-144
-144
-96
224
48
-16
288
160
336
160
0
-320
-368
-112
240
-272
-208
-608
-304
112
0
-144
-272
-32
448
784
352
128
128
336
320
-320
-336
-176
256
-176
-256
-32
-112
32
-32
544
544
-144
-384
-96
128
48
-80
-176
176
48
224
128
-112
208
128
0
48
-144
304
-160
48
-112
16
128
32
80
96
352
-192
-384
208
-176
-448
-272
-272
112
368
-416
160
32
-16
-144
-384
-304
32
0
256
624
528
176
320
208
336
0
-224
32
-256
-80
64
224
480
544
480
-96
-544
-224
-432
-544
32
208
336
368
48
-208
32
320
-96
192
464
432
528
288
-112
-48
-32
288
112
-160
64
48
0
224
32
48
-128
368
192
32
112
-96
-272
-432
-112
144
96
-560
160
80
352
-64
32
-176
0
272
32
80
400
576
-144
-352
416
400
96
-96
224
112
112
-144
-112
-224
96
-128
112
-64
592
624
176
16
-224
-96
-672
-272
320
224
-176
80
80
-304
-336
160
-208
-256
-176
-144
128
432
-16
-128
-48
-112
528
240
-64
272
224
96
96
352
-16
32
80
-320
-288
192
608
-96
-32
176
-272
80
96
336
-16
320
432
-16
-16
-64
80
-176
-256
-240
-656
-448
-80
-144
-528
-32
64
48
-16
-16
192
160
-144
-512
224
416
320
-32
-144
80
-448
-240
336
-144
-464
-272
80
-256
64
80
32
160
176
320
-48
-160
208
144
-192
-608
-560
-608
304
-144
-256
-32
128
176
16
-96
-160
80
-48
-112
176
-384
-528
-48
64
-368
368
-32
-80
-160
-128
-176
-608
-384
-352
224
432
80
112
144
-112
0
-128
128
-80
-16
-32
-288
-304
-128
-208
-416
96
192
112
256
-288
-432
-144
-128
-432
-256
-112
48
-80
-160
336
352
464
432
-192
-448
-48
-96
160
208
48
192
192
272
16
0
-112
96
48
208
416
752
208
208
16
-176
-288
-368
-224
-16
-128
-128
-368
-320
-560
-528
-592
128
-112
-368
-144
-304
-304
64
32
16
-16
-176
-304
-192
-432
-400
-208
-16
-192
128
64
96
-112
144
-400
-288
-272
-48
-272
176
-384
-304
512
160
192
192
-192
-416
-176
-96
112
80
160
592
-48
-656
-224
32
-96
-304
64
224
112
16
80
352
352
176
-80
-256
-256
-448
-128
160
416
32
128
0
-336
144
272
-48
-528
-592
-592
16
-48
-256
-48
-368
96
608
272
224
-496
112
144
160
272
64
64
-96
-448
-608
-128
16
-128
-192
-240
-320
-208
-224
304
624
208
-80
-240
-64
448
-144
-96
64
336
640
336
-32
80
320
192
-384
-208
-416
-512
208
304
288
-48
160
224
672
32
240
48
-528
-144
-176
-336
112
0
-112
80
288
240
-224
368
224
112
64
-256
-384
-336
192
-496
96
576
416
-272
-48
-496
-704
-144
-320
-592
-64
16
80
-320
-544
-272
-320
-512
-352
-240
-176
-336
-592
-80
-16
-96
-208
-96
-176
0
688
32
-288
-64
128
-336
-80
-192
-304
32
-304
112
-48
-352
-48
64
304
544
288
288
-320
-256
-400
-448
-352
272
128
-400
-48
32
32
-288
496
704
272
48
-48
-544
-144
176
-48
-16
384
-80
-160
304
288
256
16
208
240
-48
-112
432
-272
320
-192
-464
-144
288
-80
-16
-144
-112
-80
-160
112
-112
256
512
240
-224
96
-16
32
480
672
496
160
32
-32
160
576
-112
16
128
-336
16
-32
-224
-272
-416
-96
128
-240
-48
64
-176
-400
-560
368
48
176
240
496
368
64
208
-32
240
272
256
64
-320
-96
64
448
16
432
720
336
48
32
304
64
208
-48
-192
-80
-416
-320
16
-64
-48
0
-240
-320
-432
-16
496
496
560
0
-208
-480
-32
160
208
112
368
-128
320
-240
-112
160
144
368
576
144
272
0
-208
288
128
-144
-416
-240
208
48
-128
400
272
16
144
64
64
-144
48
-208
-160
160
-128
-400
16
-144
-640
-112
272
304
256
-112
576
144
48
336
128
80
80
-352
-384
-256
-272
224
224
128
208
16
-176
-416
-176
32
-352
-656
32
96
-48
0
208
320
-64
-144
-96
-96
352
448
336
32
-48
-480
-288
-96
208
-160
-400
-400
-96
-496
-80
544
208
-288
96
80
-512
-512
-144
64
256
32
-240
160
240
208
704
-240
-32
48
16
-400
-336
-112
-208
96
-160
-240
-416
-608
-16
512
112
-736
-576
-32
-144
176
-352
96
352
240
16
-176
224
64
-128
64
0
80
-288
-320
-48
-80
-64
48
-96
-64
272
-176
-144
-16
-288
80
224
-80
-160
-80
736
960
16
-496
-144
-32
-288
-144
-192
-64
-336
-448
128
-16
-128
-352
-544
-64
464
192
16
112
-624
-672
-432
224
496
-320
-96
128
224
-368
-256
400
464
112
176
368
592
752
208
-496
-320
48
48
352
-48
-240
-176
-240
-32
320
32
528
128
-352
32
192
-256
-80
48
-128
-144
288
16
272
416
720
352
64
368
752
128
128
48
-176
-432
-576
-176
-304
-176
-672
-560
16
-64
32
-448
-384
-32
96
-224
128
-16
-656
-304
112
-400
-208
-64
-240
-32
32
144
368
112
-240
208
224
752
624
-96
-656
-704
-240
-272
-480
-288
-288
288
96
208
288
80
-288
-208
64
352
448
-304
224
144
496
304
-144
-352
208
112
-128
-272
432
32
192
-320
176
560
16
128
400
-128
-64
432
480
16
-112
-544
-384
-32
-304
-592
-336
-144
576
624
-224
-768
-528
32
-240
0
48
-32
48
64
-384
144
288
368
224
32
-32
80
32
240
640
384
-624
-448
160
-448
64
336
240
608
784
64
384
560
-336
-480
-640
-368
16
112
16
128
-96
-400
-64
-224
0
48
-32
320
480
-112
-400
-272
224
512
480
240
272
-288
-416
64
416
32
0
-496
-176
176
-736
-304
-112
288
288
32
528
384
304
784
800
352
-48
-160
160
288
-48
-368
-560
-176
432
240
-96
-240
-208
-192
-16
192
-144
528
-80
80
-320
-304
-464
-384
336
80
-112
-304
64
160
-112
288
448
64
-160
272
-224
-704
-224
48
-288
-160
-32
-128
48
112
256
-304
80
256
272
-128
80
-352
-368
96
-304
-528
-496
-288
208
-288
-64
80
352
-80
-336
32
-80
-256
-16
112
128
-32
-16
-384
-80
-304
-480
-112
-16
368
64
-240
208
608
-144
-576
-256
-240
-16
-192
64
496
-128
-48
-336
-192
-192
-496
-336
-160
32
-208
-96
-64
336
-96
32
-448
368
544
176
-32
272
336
336
0
0
144
320
320
-352
-16
-160
-144
-144
224
320
784
368
-128
-416
-112
144
-192
336
224
144
-64
128
-96
16
368
-96
-400
-256
-144
272
240
224
176
0
-448
-16
32
208
224
352
-96
-272
-464
-512
-256
-576
0
112
16
-208
16
-64
48
-256
432
464
688
224
160
224
240
352
304
-176
-640
-400
-368
-80
112
-352
-576
-272
128
176
-160
-368
-416
128
64
-304
-336
-64
64
96
-544
16
-16
-432
-160
448
-208
-592
-64
32
128
176
160
-448
-672
-848
-672
32
496
-112
-80
-240
-368
-160
144
176
560
128
112
-128
-288
304
512
176
-272
160
320
-96
160
272
320
416
112
304
80
0
336
256
528
32
-400
-64
-160
288
144
48
576
-16
288
336
656
352
192
224
432
-208
-240
144
624
144
-176
128
-256
-272
-288
-96
304
160
-576
16
-112
-560
112
-448
-16
544
464
-384
-592
-192
-16
-80
224
-176
160
288
192
672
16
352
304
336
688
448
-80
224
448
336
288
80
416
-144
-112
176
224
-64
96
384
256
-80
80
112
-16
-16
224
432
-256
-256
512
528
384
80
-96
-16
-48
-32
304
128
-224
-464
-656
-560
-384
-64
-16
-48
-416
304
384
96
224
-96
-192
160
0
176
464
-208
176
464
416
272
272
176
576
160
160
-96
-16
-48
-112
0
-256
224
160
304
224
496
336
32
-80
-144
-128
-368
-112
-288
-192
-16
656
496
192
544
576
288
80
16
96
16
256
416
272
-336
-368
-160
464
96
-112
-336
-304
96
192
-432
-384
-96
192
448
304
112
320
112
240
224
96
-352
208
416
-80
-48
-576
-480
0
560
640
-48
112
-32
224
592
512
96
-64
224
208
-16
-256
-48
-704
-512
496
-96
-160
-160
0
144
112
-96
80
80
-160
112
-112
-240
64
208
32
336
-416
-384
256
272
96
144
-144
32
160
64
224
-64
16
-128
160
240
-528
-400
-256
-144
80
272
-160
64
176
96
208
-64
80
320
208
-64
64
544
336
720
608
784
672
32
208
0
-128
-160
-320
-128
-320
-352
-208
0
144
320
80
48
176
-288
-16
336
288
-16
208
480
432
-64
240
-16
176
0
-32
-400
-32
-32
-96
-112
176
-80
-336
-272
-496
-192
320
416
-240
-144
-112
-304
-176
176
592
16
-144
0
-224
-48
-416
-192
96
256
-48
-448
-160
-16
192
-304
-352
16
560
96
-240
-176
-32
-64
-176
192
192
112
496
624
96
-160
80
192
32
64
-64
-128
64
-432
-16
-208
-544
-368
-32
112
320
-272
64
352
-80
80
-320
-400
160
-272
-352
-288
-32
-192
336
960
480
-160
64
352
192
16
-256
-656
-352
-288
192
192
-400
-64
304
-16
16
48
-304
-80
96
32
480
336
832
384
368
32
-560
-144
-144
304
-32
32
304
400
96
128
176
176
-432
-112
-288
-448
-496
-192
544
544
192
448
240
-128
400
-160
-144
32
-192
-320
688
496
-288
-288
176
192
-384
80
272
112
-96
-48
16
-368
192
32
-224
320
-112
-624
-496
368
176
-192
-448
352
480
336
-272
-288
-336
240
672
256
64
-48
-320
-256
-448
-144
32
-96
-112
-240
-64
144
464
320
-352
-464
-256
-528
-304
160
-64
-480
-272
-16
352
-80
-432
-544
-560
-272
80
16
-176
-112
272
432
-368
80
400
32
-336
320
256
-320
-368
-16
-368
-464
-128
16
96
-256
-672
-480
160
192
-176
-336
-112
48
-240
-240
-224
192
16
496
368
368
-208
448
16
160
304
-144
-48
368
528
-112
-304
304
-272
-528
-80
-480
-160
640
16
-608
240
688
688
112
-272
-384
-128
-400
368
-784
-80
-160
-208
80
-16
-96
-64
-112
64
224
496
144
-464
-464
-320
160
-128
-416
-608
-320
-48
64
-128
-176
192
-112
-512
256
160
144
-112
64
112
-208
-176
-288
-240
64
64
320
16
-48
-96
224
320
-80
128
16
-432
-288
672
432
528
432
96
112
208
224
96
272
208
-288
-336
-416
-96
192
336
272
16
-384
-464
-336
-176
-32
64
0
-320
-48
80
112
496
-432
-640
-320
128
576
-64
-480
64
-160
304
272
-128
-32
128
-128
144
-272
-128
-144
-368
464
320
96
-32
112
48
272
-368
-400
-304
64
-32
-320
240
160
480
-16
16
208
-80
80
224
160
336
-112
368
496
224
448
-640
-448
-16
0
368
304
208
-112
224
0
-32
144
208
-112
-144
-144
-416
-112
0
-208
224
-464
-1008
96
-16
-624
-208
160
304
144
32
-512
-704
-176
-176
32
48
80
368
96
64
256
-32
256
32
80
992
144
-272
144
160
32
-208
-288
320
336
400
416
192
32
16
-192
-672
-16
-64
416
480
160
-320
-224
-64
0
-32
-144
64
-208
96
32
-48
48
160
112
256
240
208
224
-592
-432
-64
-96
-336
-192
192
288
-288
-528
-64
-176
-64
176
128
-128
224
112
160
-240
-80
224
32
128
240
240
304
448
240
320
272
-336
-240
-256
144
-448
-208
32
-304
32
32
-432
128
624
352
16
336
304
-32
-144
-352
160
-16
-96
16
-160
-416
-256
-96
256
80
-64
16
-176
-80
-288
304
-48
48
400
352
-16
304
592
768
160
0
-272
-544
-432
-176
64
720
-144
-160
560
240
272
80
-544
80
432
208
-144
-480
-176
0
16
192
-64
16
256
544
304
416
128
-400
-384
-608
352
256
-336
304
96
-304
-464
-80
-176
-96
32
176
224
-256
-128
240
576
128
176
64
-64
-240
-288
-240
-368
160
224
336
-64
-240
-480
-496
32
16
96
80
0
-208
208
208
128
-64
192
-224
80
176
464
256
-16
-80
-160
-336
416
48
48
336
256
-320
-288
-624
-16
128
-112
-80
544
160
880
528
16
-144
416
560
208
208
320
160
-96
0
-144
-64
16
48
288
400
384
128
-16
128
272
336
-80
-256
0
-48
128
-528
-336
-16
192
-256
144
400
128
48
304
-112
-400
256
64
256
64
64
496
720
-272
-192
-432
-208
96
-496
-208
208
96
-320
-304
-144
-32
352
96
32
304
-48
320
-112
96
80
320
80
144
160
-256
-144
96
224
-16
-80
-128
-80
-176
-16
336
400
144
-112
-160
-176
-384
-144
-256
-400
-720
-336
-272
224
-176
-288
-288
176
368
368
-112
-368
-352
-208
176
320
16
-384
-80
256
-80
-208
288
-16
16
-48
-640
-560
-32
336
144
224
624
256
-304
-496
64
144
528
176
112
272
272
-48
240
304
224
192
112
-48
-256
-496
-416
-240
80
208
144
256
48
304
-224
-240
-64
-144
-304
-32
-160
-416
-96
224
128
0
16
336
-48
176
-208
80
32
112
272
240
32
-256
-224
-96
896
304
192
-272
32
-144
-192
-368
-224
-224
224
96
-368
-352
-160
368
480
624
304
96
400
672
288
16
-672
-240
-144
288
48
-16
-96
-160
272
384
64
192
208
-320
-208
304
-32
144
80
96
0
-48
-608
-176
0
-96
-336
-32
-32
-272
16
-80
80
192
48
-528
-288
192
112
-64
160
-320
-368
0
176
-96
224
-16
-144
512
736
304
80
-160
-128
-432
-80
-32
0
-288
-112
-256
-128
-288
-32
672
272
160
48
-112
-224
-240
-416
-256
-240
-64
112
48
288
320
96
32
128
272
240
128
-256
-160
176
-160
-400
-32
32
304
48
400
256
16
0
16
-48
-672
128
416
-512
-256
464
512
-160
-352
320
-96
-272
-112
-48
192
-32
-48
-64
-224
832
336
560
384
704
352
-112
288
176
-192
-272
-96
-496
80
160
-48
-448
64
272
-304
16
96
-240
-656
-432
-656
16
144
48
48
-64
-64
-272
240
272
544
16
64
-528
-192
128
240
176
288
304
224
128
0
240
176
-144
-112
16
96
-224
-32
368
-64
112
-80
-96
160
368
64
0
304
112
-160
160
640
-48
-400
-448
160
352
0
256
416
112
240
-192
-32
-80
-48
224
0
112
-96
-320
0
256
384
-64
-608
288
592
464
64
-304
256
384
640
-208
-432
-672
-176
48
32
-432
-384
288
64
-144
-32
-16
512
-176
-608
224
512
64
80
64
-352
-176
192
128
64
-304
-176
-48
-336
-160
-368
-176
-416
-224
-160
208
-32
-208
352
-96
-400
-336
-496
224
304
0
256
432
-400
-304
-112
-144
-512
192
80
-272
80
-256
-96
176
-352
-256
-160
80
368
464
336
512
416
160
0
-112
192
-240
-352
-432
-304
-80
208
128
112
176
336
-144
-528
-48
48
-192
-192
208
112
-368
128
-208
-320
-112
-240
-144
48
-240
-320
80
-64
176
48
-208
-704
-272
-544
-208
-240
224
-64
48
128
176
176
432
32
0
-96
-192
-192
-160
-48
48
-112
208
512
32
32
-176
-560
-144
112
128
-48
-176
-432
416
336
-304
-480
-656
-288
16
400
-128
112
-368
-528
112
272
-96
-288
-480
-240
-96
-64
80
144
-96
-384
0
192
336
416
-112
-144
416
16
16
64
-272
-176
-192
-64
-16
-16
144
256
272
208
224
96
416
96
-128
-304
528
544
112
432
0
-672
96
48
-400
-272
-448
-16
-96
0
176
256
-448
16
224
-192
-368
-160
-208
-64
-432
-368
-96
-560
-368
-160
384
32
-80
48
-96
112
608
80
160
-144
-288
224
-128
-480
-272
-592
-160
160
240
-208
-640
-432
-288
-48
-16
192
64
-416
-640
-80
256
-128
-96
-64
48
256
208
48
96
-16
-624
-192
112
-512
-64
-16
256
224
-112
688
128
-304
-400
128
128
-16
-64
-544
-16
224
320
-896
-304
-112
96
576
176
-224
-128
-256
160
352
-144
-336
352
288
-208
-320
-336
-192
-352
-448
-320
-384
-128
64
256
608
32
-192
96
112
400
288
176
32
-128
416
16
-192
112
16
160
416
-176
-464
-208
-128
-144
-480
48
-112
544
208
752
-32
-256
64
384
336
-96
272
16
-160
0
80
-208
32
192
240
-400
-272
-480
240
416
336
-272
-320
-256
32
320
-224
-272
-400
48
688
-48
-352
336
304
-224
224
432
704
512
128
-480
240
624
192
-192
-80
448
0
-160
96
240
-224
-384
144
-112
-432
160
-368
-464
16
224
-128
-112
272
304
336
288
592
160
-224
208
176
192
48
-96
-144
-176
-96
-384
-400
-128
-352
144
96
-144
480
160
336
0
-208
-112
336
224
224
-32
416
464
336
176
368
464
-48
16
-288
-848
-304
-112
256
256
-336
-496
-128
-16
432
368
-48
-96
-288
-208
176
32
-224
80
-144
432
384
-16
-624
-384
-32
112
32
128
-240
-384
-384
32
-160
-144
96
208
-144
-128
-144
-256
256
48
-80
-448
-112
-352
640
592
-192
96
352
256
-608
-672
-624
-480
-464
-240
128
-464
-288
208
320
-384
-448
-384
-48
-16
304
64
-48
-128
256
704
336
-80
-208
-144
368
176
-112
144
-176
-256
-256
304
144
272
-176
304
0
-16
-352
-224
448
352
144
-80
-288
-80
-208
-528
-464
-64
16
96
80
-16
-48
272
512
336
48
448
304
-64
-160
-224
-96
-16
80
-208
-128
-160
16
-16
-224
-240
-256
96
-224
-272
224
-352
-272
-432
-192
-400
-224
-64
-256
0
64
192
32
-32
-32
80
-304
96
-176
-480
-304
112
48
-336
144
-496
112
48
240
16
-192
-80
80
-80
224
-288
-432
-304
-448
336
0
16
208
528
288
240
352
608
544
0
-96
-368
-480
-160
-384
-32
176
-208
-176
96
576
256
-480
-112
528
-112
-144
-400
0
-352
-352
-112
-240
-240
-480
-176
384
208
-96
-464
-512
-144
128
128
-64
-352
-416
160
112
-160
-224
-640
-432
-352
128
176
272
32
240
-384
-464
64
128
-176
336
176
-160
-224
176
-544
176
400
-144
-48
224
224
0
-144
304
-64
-176
-288
-336
432
528
-192
-256
528
320
256
640
640
208
96
-160
-560
-528
352
208
432
96
-480
-496
48
144
464
-192
-144
-48
352
384
-112
464
-160
-304
-464
-192
-256
-304
-624
-352
144
320
144
-240
-144
-64
-64
-208
-144
-160
-64
-320
-240
-128
272
144
-48
96
240
-256
-352
16
-64
16
-160
-192
368
544
208
-400
64
80
96
176
-112
80
-48
-96
-192
-32
-128
-112
-480
64
32
128
-288
32
528
368
272
576
416
-128
-32
-144
16
16
-112
-32
112
592
352
112
688
352
-384
-368
32
64
672
192
-80
-240
-256
288
480
272
-32
-336
96
80
480
96
-576
-96
32
-32
-64
224
-240
-288
-80
-560
-352
-32
128
-16
-432
-272
-64
96
-448
-464
112
256
-112
-64
288
208
-144
32
-160
-144
160
208
-160
-112
64
-208
-448
-448
0
304
0
64
224
432
704
320
16
-224
-48
640
288
-64
-352
-160
-368
32
256
-112
-176
128
48
208
144
320
160
-48
-32
-224
400
-256
64
128
-160
-176
592
272
240
80
16
-144
-16
304
80
-368
-384
464
208
-464
-256
-176
240
528
176
400
-256
32
-304
-32
-400
-400
32
64
432
176
512
64
480
144
144
240
-96
-192
-288
-176
-336
-528
-144
224
-80
-544
-384
-336
336
48
176
-112
-240
-288
-240
240
48
64
656
208
256
528
288
352
-32
-176
384
-48
64
208
-160
-208
0
-64
-32
-96
-208
-416
288
288
96
160
16
288
32
400
64
-64
272
576
-80
-240
-80
112
48
-80
-432
-112
176
128
272
144
-128
-272
-544
-560
-144
288
272
-64
96
-400
-176
-352
464
512
368
96
-192
-144
-64
128
-368
32
-48
-128
80
48
-48
-64
224
336
-224
-192
-336
-352
-64
80
-272
32
48
-144
48
-64
32
-48
-128
-32
480
-240
-96
208
96
-224
-48
-48
544
208
288
192
96
0
64
160
-16
-256
-32
-16
-400
-144
-96
-16
-320
-352
-352
-144
208
240
320
256
336
0
-480
-560
208
-112
-64
-304
-592
-64
16
-16
-192
64
80
-80
192
144
-368
-288
-320
-192
-352
-16
208
592
192
-16
-208
-704
-896
-80
320
-176
-112
320
208
-224
-32
-160
-64
256
-64
-32
448
-16
-304
-272
-16
16
16
16
-288
-256
-48
-208
-288
208
-128
-288
-528
-160
-128
-176
352
128
-240
-528
-704
-208
144
-176
-384
-336
-160
-144
-208
-272
-176
-224
-160
-80
272
-320
-192
64
-336
-304
-416
-144
-224
304
400
336
-240
-304
-416
-576
-128
-16
-80
-352
-192
-112
432
144
-352
240
-64
352
352
32
352
576
384
-112
-192
-80
192
64
-512
-544
-48
144
32
448
416
0
-272
48
64
-48
-400
-496
-240
0
-32
464
80
208
48
-160
64
-32
96
336
208
-112
-240
-384
-16
-256
384
144
80
400
48
-208
-224
-480
-256
-128
16
64
-112
-336
128
240
0
-48
48
16
144
576
-112
-368
-176
-480
32
64
-16
-176
336
544
272
528
0
-144
160
160
160
48
16
-272
336
224
-512
-400
-112
272
-224
16
176
272
368
112
-176
-592
-560
-336
160
-192
-144
176
-192
-32
304
-352
-624
-496
128
480
-192
-752
-160
16
96
384
448
48
-160
96
192
-64
272
-160
144
160
-208
304
208
80
96
384
32
-432
-496
192
64
-64
448
-144
-160
784
-64
80
32
224
-32
-272
112
-144
-704
128
128
-112
-496
-288
-48
48
-128
-160
-496
-512
-64
-576
-448
-352
80
0
-80
-448
-304
-272
-128
0
416
336
384
-96
80
-256
-336
-192
-144
-16
320
-224
-320
304
400
32
-96
-544
-624
-416
0
176
-64
-784
-384
-144
208
208
128
0
-144
-240
-448
-624
-48
192
592
-48
32
48
-128
-720
-160
272
112
-64
-96
0
96
64
-352
-64
640
368
112
-272
-416
-624
-544
-80
-160
112
48
-432
-64
48
-944
-128
48
16
32
160
-48
-176
-144
288
-336
-256
-400
-64
112
0
-256
-176
-384
-64
640
288
256
48
-160
-256
80
256
192
-112
-48
-128
-128
-112
-48
176
288
-464
208
208
368
448
-240
320
240
-128
64
-128
-128
192
544
96
-192
192
256
352
-208
-176
-48
-128
-544
240
32
0
224
288
-320
-496
224
-128
-448
-128
768
-32
-32
48
-64
320
560
288
0
-64
-272
-96
-336
128
64
-464
32
-96
192
-224
-144
-192
-112
32
-16
-16
96
-128
-32
352
-224
288
432
-224
-128
-304
-352
-144
480
752
96
0
80
256
224
128
-464
-240
288
32
-192
-336
176
592
48
-80
-112
208
-48
64
48
-80
176
-224
96
608
400
-128
-64
-144
0
-128
-304
-528
-64
560
288
-80
-128
224
-256
64
-144
-128
-16
32
-688
-352
144
-256
304
192
544
272
-112
-96
48
160
352
128
-16
-32
-192
16
448
336
16
-16
416
496
288
-48
-208
192
208
-320
-624
-192
528
448
-128
-448
-592
-208
-288
64
48
-112
-48
144
192
128
-352
160
400
32
-272
416
256
16
48
0
432
608
96
-176
240
80
-784
-480
160
224
320
368
192
48
-96
-144
-352
0
0
0
416
240
-16
-368
-720
64
304
256
-480
-336
176
-48
-176
-128
400
144
320
240
96
288
-32
-192
128
-368
-304
16
-64
128
192
96
240
304
-480
-320
-208
288
0
-48
-368
-320
-208
-384
-144
-336
-80
416
-176
16
-16
-256
-368
-464
-560
-16
-64
128
0
48
256
384
688
144
0
-112
-496
-144
64
-544
-176
432
256
288
112
96
208
336
-160
-160
-192
-592
-496
48
-128
-288
-48
432
-48
48
32
-768
-176
-192
96
48
208
-128
-480
240
-496
16
272
-80
-304
-48
-176
448
448
-672
32
592
368
-48
-256
272
400
656
784
-96
48
-304
-176
-576
-512
-224
272
496
-48
-128
256
240
-224
-320
-16
-480
-368
336
192
16
-224
-128
-96
-272
432
688
-16
608
320
-80
-224
256
128
-208
64
224
-96
-64
-144
16
-32
416
-48
-160
-544
-240
-272
32
128
208
-128
-112
96
-48
128
-336
-400
160
-480
96
272
208
-304
-176
-176
-64
-112
-352
-144
128
-144
-656
-592
-32
48
80
-128
-240
-656
-432
-400
80
224
48
400
288
112
-336
-448
-240
272
224
-240
-496
-128
448
528
-16
48
144
608
192
576
800
336
-256
-592
-192
-96
-112
-64
432
16
144
48
288
368
48
224
368
336
0
176
304
-16
432
832
112
-352
-304
176
256
272
640
640
448
-192
-400
-368
-384
256
1008
304
96
336
672
-272
-240
416
320
-464
-32
-32
-400
-128
496
544
32
80
-304
368
336
-208
-48
-304
-272
-16
-480
-112
304
416
192
16
288
368
-32
-496
-80
192
224
48
-336
208
208
496
752
96
16
192
-448
-112
0
400
320
-48
176
208
128
0
-240
-352
-160
-176
256
-160
-48
128
-80
240
320
160
288
656
560
80
-80
64
496
224
-256
-192
-416
-256
-96
608
560
416
-64
-464
-304
48
336
144
-304
-576
-208
736
48
-448
-64
352
0
-224
-208
688
48
400
-80
32
112
288
64
288
704
304
176
192
-96
80
240
64
0
96
144
32
-208
256
256
-256
-304
-272
-96
-688
128
464
576
480
-400
96
240
-176
-112
400
288
-48
80
128
320
560
-240
-272
0
-16
-480
-608
-32
272
-112
64
80
128
240
96
368
304
224
208
256
176
240
-416
-224
192
176
640
480
-96
-128
-144
-256
-112
-320
464
624
256
288
592
-352
-208
160
-48
16
-592
-432
-464
160
208
256
384
-96
-16
448
416
-176
-304
-32
-432
-512
272
64
224
304
496
-16
-80
240
384
256
320
-176
80
-144
-144
-128
64
-208
-400
-256
-448
-432
320
144
-48
400
304
-144
-64
-112
64
384
-80
-128
208
256
256
-400
-560
-144
576
304
240
528
192
0
144
-32
-96
-208
-208
32
-144
-32
-160
240
560
224
-192
112
-48
-256
-112
32
80
320
320
-96
-96
-112
224
128
608
240
64
-512
-352
160
-336
96
16
-32
288
128
-128
-336
-16
-112
80
304
-112
-496
-192
-304
-320
128
176
320
480
-112
-480
-208
32
-160
-704
-752
-160
-208
-480
112
288
48
-224
-16
-160
80
-96
-32
320
592
464
480
400
384
0
96
0
-288
-96
-272
-80
128
-352
-64
-224
-160
-240
-240
64
-96
-336
112
208
128
-160
208
-176
-368
-48
208
-48
-512
-560
-64
320
-208
-544
-304
96
-96
80
544
0
-160
320
-160
-176
-192
-656
-176
368
144
-160
-128
208
-288
-560
240
96
112
0
544
192
0
128
-32
-384
-400
-432
-160
96
80
272
704
-32
-320
-176
-176
-240
-160
240
384
-112
-320
-784
-320
-128
-48
160
464
304
448
-128
-160
-144
-176
16
-96
-192
-80
-432
-656
-496
80
304
240
400
0
32
160
0
-720
-512
-496
-96
-208
-112
-80
-432
0
224
-112
-112
208
288
-80
-208
-544
96
16
-144
160
320
80
16
-240
-304
384
464
304
192
144
-256
-160
-64
-32
80
368
224
-64
-80
-128
64
256
192
240
432
-48
-80
240
-208
-112
576
384
-304
-256
384
192
-48
32
16
-272
-336
-640
-64
-16
304
208
-160
-368
-192
-320
-400
192
592
160
64
464
608
-32
384
144
160
-208
416
112
-192
-304
-80
-112
-208
-368
768
208
-368
-192
112
-512
-464
-496
-176
624
528
-160
160
416
-80
224
-112
-48
384
528
304
-560
-256
-48
416
416
304
176
192
-16
-80
64
-448
-448
-528
-128
-96
240
-144
-400
-32
-32
-160
-432
144
384
240
-48
-96
-352
-96
-224
-288
-64
192
-32
-128
144
528
-128
48
-176
-464
-160
-320
-224
-256
-160
-528
-416
-432
272
256
272
208
-128
144
48
336
32
-352
208
128
-112
-320
-352
-256
144
-112
176
96
-32
288
96
-288
-112
32
-80
-320
240
48
128
192
-208
-256
-240
64
368
368
32
176
-112
-544
-192
208
16
-432
-160
176
96
96
128
144
224
240
16
176
-16
96
80
-240
-16
48
144
64
-256
512
432
544
352
208
48
80
-128
400
464
256
288
-272
-416
112
224
-32
-304
-128
-288
32
-480
-240
-96
-128
-80
-416
-576
-32
32
-224
-272
-80
-512
-336
-416
-400
-464
-432
-160
208
-176
80
272
-240
-288
832
624
576
464
304
-480
-352
128
112
272
-384
-272
-128
-256
192
304
144
512
112
-160
496
112
240
-144
-368
-160
80
-128
-80
-192
448
656
-192
-352
-400
544
448
32
-496
-800
-608
-224
-720
-384
176
32
-112
192
-400
-96
416
400
224
-272
-768
-1056
-384
-384
32
-64
-336
-400
-368
-592
-400
-288
-176
416
32
16
464
496
112
-320
-224
-96
-336
-368
-496
-112
336
48
-336
-416
-512
-592
-496
96
-64
-144
32
-240
-144
64
80
224
256
-16
-480
-288
-224
240
176
208
224
224
656
512
112
-448
-192
208
-448
-464
-176
-160
-272
224
-16
128
0
-48
-224
-96
-128
-128
384
128
240
-80
-336
-448
-208
144
-144
-432
-512
-208
0
304
384
272
112
160
128
-80
64
-240
-112
192
144
144
0
-208
-416
-320
-224
144
-80
-96
208
448
-368
-320
-144
-112
32
-32
0
-144
-144
-64
112
128
256
176
32
-256
-256
-416
-288
-336
-96
128
-304
-656
48
384
144
-128
112
-192
-64
320
224
80
-16
-16
-16
-16
0
-288
-240
-480
-832
128
368
80
416
352
-256
224
176
368
224
-48
128
368
32
-672
-48
0
-112
-16
96
16
-368
-272
112
-96
-144
-32
-48
-592
-96
-64
-144
176
-192
256
-48
-288
-80
192
192
64
-48
464
336
96
-160
-512
-416
-96
-128
272
-192
-48
-144
-400
0
-144
-112
16
368
48
112
80
-368
208
64
-208
-64
160
512
64
-128
-480
288
320
-176
-240
32
768
480
-176
-528
-800
-416
176
192
544
-16
-96
-144
-384
-288
48
-240
-112
368
320
-224
80
96
128
240
0
160
48
-112
368
32
-128
-128
-224
-256
256
-144
208
0
-48
-112
16
-96
256
-32
288
-16
-208
64
400
576
272
-480
-32
336
-224
-144
176
208
96
320
-32
-304
176
96
48
-16
0
640
272
176
496
480
0
-208
384
544
288
-80
48
96
0
-80
-688
-752
-208
-96
-32
-208
-48
144
496
240
128
-16
-32
112
-144
-384
144
-256
-352
64
320
240
-208
208
16
-96
288
16
128
224
224
304
-400
-416
-224
128
48
288
32
208
-160
-400
48
368
464
-288
-640
-240
-192
272
720
320
-112
80
144
-64
-32
528
336
240
-192
-576
-656
-176
-112
672
0
-192
16
-176
-160
-560
-128
-112
0
-256
-384
64
-192
-336
-336
-32
176
320
-240
-352
80
480
496
-112
272
16
-192
-400
-656
-528
112
-16
112
704
48
160
512
192
-336
-320
-144
192
-176
-480
-32
352
48
208
192
544
-96
-32
96
-320
144
-32
-304
-80
432
288
0
-176
-64
16
-112
-80
160
-336
-544
-400
-32
192
-416
-144
-176
-288
-544
-192
480
256
-640
-112
688
-160
-352
-128
320
272
-32
-336
-16
-144
-368
-224
64
-352
-80
-256
-192
-32
-96
-16
-176
-16
-176
-144
-192
-128
352
432
240
144
-224
-96
176
-96
-352
192
-112
272
272
-240
-160
144
336
0
-160
-480
-416
-144
176
288
352
-16
352
256
256
-592
96
80
0
80
-368
-416
-240
160
-48
-16
-192
160
64
-208
432
192
96
-192
-288
352
-240
-384
-208
224
-272
-160
-112
-512
-544
-576
-288
16
-176
-128
-608
-400
-160
64
80
-288
-144
-144
-512
32
160
272
240
112
16
-176
-160
-352
-544
-288
-256
-32
-368
-352
-432
-336
-272
80
464
-64
-352
80
480
288
-96
-320
-496
-528
-160
80
-272
-208
-32
64
-112
464
80
32
-288
-64
208
192
736
512
-112
-416
64
144
64
-288
-272
16
304
64
64
608
336
176
-80
-128
160
-160
272
-32
192
384
-32
-144
240
-32
32
-256
16
16
128
-48
-48
304
640
-240
-192
-96
-176
96
464
16
368
224
64
-48
64
-112
-48
-192
-32
448
-16
-480
-368
-176
32
-112
-336
-496
-160
-112
-32
-304
-192
-624
-528
192
272
-368
48
112
-64
-128
-368
224
48
208
0
160
208
432
496
288
368
144
464
448
-240
-80
-288
80
288
-464
-320
-336
0
112
0
-208
48
208
112
-272
-112
80
-256
64
208
-240
-528
-224
-240
-400
-768
-720
-272
-208
-48
-352
-144
-176
-512
-544
32
96
192
48
32
208
-528
-16
-16
304
240
-32
-128
-512
-672
-160
496
368
224
192
160
144
112
208
576
176
-48
0
-112
-352
-240
-112
480
-64
-176
32
160
-336
-352
-64
144
-320
-640
-368
-528
80
560
448
224
400
448
256
-16
96
-384
-528
32
400
128
-112
-240
-144
-208
-320
64
80
304
208
-96
-464
-528
224
176
-48
-288
-304
-96
-128
64
432
-128
-48
320
0
-16
-48
336
-48
-64
64
304
-192
-624
-192
32
224
240
320
208
208
-64
624
832
208
256
112
-208
-80
688
144
416
208
144
288
0
-224
16
192
-112
160
0
-544
-144
352
-80
-176
-176
64
-96
0
368
-272
-208
-32
80
-48
-304
224
288
144
256
144
-96
112
464
224
-304
144
432
256
-192
-752
-400
-240
96
592
32
-240
384
-32
-208
-416
-320
-176
176
432
208
272
96
-288
96
64
288
480
-48
-80
-48
-80
16
352
256
-48
96
96
-432
272
208
176
176
16
-80
352
336
160
-80
-400
-256
-272
-32
-240
-592
-272
-32
-128
-144
-448
-176
-352
-272
-224
-288
-448
0
400
368
320
64
0
96
48
192
224
384
464
224
576
640
-128
224
224
384
368
224
-112
48
176
-80
-384
0
160
160
208
-176
-304
-176
-352
-208
-272
240
480
336
-256
-144
-736
-384
-80
-288
160
160
-144
-224
-240
336
208
208
240
432
64
-368
48
48
-240
-32
-112
16
128
304
240
-208
-528
-336
144
-48
496
208
-112
-64
96
-64
-336
-112
-512
-304
-32
-64
-320
-16
-96
-320
96
-368
208
352
-256
-688
-32
176
80
-304
112
384
576
128
-176
-16
352
-400
-1104
0
-160
128
32
-128
-384
-480
-448
-320
32
-272
240
272
272
400
-64
-272
-128
240
352
-80
-272
-304
-176
-304
384
320
160
128
448
416
16
-384
0
384
-512
-192
64
160
-176
-592
-112
144
160
-48
80
48
-336
224
352
-160
-224
-960
-688
-368
-464
-384
96
224
-224
-976
-816
-288
-128
-32
128
64
144
-80
-352
-496
-48
160
336
-208
176
-32
176
-16
-224
-288
-464
80
416
768
-192
-128
64
-112
-288
-304
144
144
80
-80
64
-320
-592
-496
256
368
0
-80
-208
-80
128
-96
-16
-272
-16
16
-96
336
-64
160
16
-304
112
48
-128
304
432
608
528
288
496
0
-336
384
-144
0
240
-80
432
192
272
16
112
-32
-80
-96
-48
576
144
-160
-352
96
-16
-480
-288
-368
-672
-336
208
-16
80
384
128
192
400
-32
160
-304
-192
-176
-48
128
208
112
-112
112
16
-144
-96
-192
128
80
192
-144
16
128
-128
-96
-160
-288
-128
144
224
-384
176
672
288
-560
-16
-288
-128
96
128
16
320
192
-16
112
224
-32
-288
-400
-96
-64
-176
-112
-240
-176
-304
-544
-400
64
192
272
160
-144
448
128
400
-224
-336
-112
-256
-176
-128
-384
176
288
272
256
64
208
240
224
-48
-224
-496
-304
496
-192
-400
-208
-480
112
176
480
192
288
-304
16
-144
-496
64
-144
256
544
352
304
32
80
112
-32
-288
-368
16
48
-16
160
112
-432
-32
240
16
32
64
800
-128
0
-112
16
-384
352
-80
-736
-512
-496
32
176
64
112
224
-160
240
64
-160
-208
208
16
-128
352
16
128
160
-16
-128
-496
-480
48
16
48
-528
-144
-64
112
-144
-352
-160
-288
-208
-176
-544
-544
-400
-320
-48
368
352
-208
-16
352
528
320
176
0
96
-384
0
288
128
176
-80
64
384
608
96
32
192
240
112
-240
16
304
-224
-112
176
-240
-144
-352
-368
-416
128
352
-304
-288
-352
-480
-448
128
160
128
480
160
-128
128
112
-16
-32
480
352
-32
208
16
-16
0
160
-160
208
-464
-320
-80
-160
288
32
-544
-224
288
-32
-80
368
720
624
368
336
208
288
192
-32
-384
16
-112
-816
-256
176
96
208
464
304
96
32
48
0
-128
16
-224
-448
-512
-320
-112
240
-352
-144
224
80
-288
-176
-224
256
-112
-256
-240
-160
-112
480
592
288
368
208
320
160
304
624
208
48
192
-48
256
-128
-336
-64
-304
64
176
-512
-416
-128
288
144
192
-32
64
-16
-80
0
368
-208
-16
240
-192
-288
-16
-96
-720
-96
352
368
-176
-64
-128
112
-352
-688
-736
-240
-320
32
-304
-16
256
0
480
464
416
0
-384
-352
16
144
-80
16
-80
208
240
128
-16
16
272
560
512
-112
304
112
64
80
-16
-128
0
-240
208
-128
128
352
-16
-144
-288
656
80
-112
0
-560
-368
32
16
336
128
-400
320
336
-48
-240
-256
544
528
576
544
-128
208
112
368
48
160
704
176
112
-816
-64
320
544
544
-208
-256
-112
-352
-336
240
0
-96
-128
64
-16
256
-64
-240
16
192
-144
112
80
384
208
320
192
80
-400
304
272
96
-304
-176
16
-128
-96
-96
80
288
608
-128
-96
112
0
-208
-416
-352
-512
-320
-160
-128
-368
-448
-416
-176
-16
0
224
192
448
496
-64
-240
-112
112
176
224
-304
-96
-64
112
-128
112
416
-96
0
-160
-400
-160
16
592
512
64
-48
224
-272
-640
-96
144
208
-64
-64
-256
224
32
-96
-32
96
-16
-96
16
160
288
400
384
32
-240
-208
16
352
304
144
240
144
240
128
96
-160
-128
-272
32
64
176
-128
64
-368
-192
-176
-416
208
48
-16
-16
192
-32
-16
240
-80
528
752
544
176
-192
-400
-256
48
0
352
176
32
-48
-320
-368
-592
-1024
-352
0
224
-192
80
-240
-64
-32
-384
-432
-192
176
80
-448
-272
80
208
144
-336
320
48
-416
64
48
80
688
608
96
64
496
368
-256
48
-96
-368
-560
16
32
-80
-336
-240
352
-208
-144
128
-240
-432
-240
272
128
-224
-160
240
-160
0
-192
16
368
512
240
368
-240
-240
-112
-400
-160
-240
-48
-128
416
192
240
288
112
-32
-80
-432
-224
-16
320
272
-368
464
288
-336
-112
160
336
400
144
-32
32
400
384
-64
144
240
-256
160
176
-448
-576
-224
-592
-240
-240
-464
-144
-256
-240
-336
-304
-112
256
-48
-784
-512
112
-272
112
176
-240
48
256
-256
-288
-640
-16
-176
-496
-272
-368
96
240
-96
240
-128
-144
-16
-816
-96
-144
-416
80
128
16
64
-400
32
-144
-80
-112
208
32
-224
-256
-528
-752
-512
-272
176
16
-304
144
160
-144
-480
-112
-32
16
112
-128
-320
224
160
-32
32
240
272
-48
-96
192
336
592
-224
-80
-80
-192
-80
208
128
-32
48
0
-496
-96
480
16
-400
64
-480
-240
-352
-128
128
80
432
0
-16
-208
336
320
-48
304
400
0
336
96
240
256
-48
-96
16
-64
-16
-208
-176
-320
-48
208
-32
240
48
288
928
528
480
528
1024
528
-224
288
-96
64
304
32
96
368
800
32
-224
560
256
112
48
320
96
-192
-64
-128
240
576
272
336
-272
-352
-144
176
128
48
256
96
48
32
208
-336
-320
-288
48
-160
-352
528
48
16
-160
-368
-352
496
-48
-432
-192
-448
-384
-800
-256
256
-272
-288
-144
-272
0
-32
224
208
-464
-576
-32
-224
-80
320
-16
-272
-224
128
-208
-352
288
352
32
-144
-208
-224
-112
64
-80
-144
-272
-144
528
176
368
112
-160
-224
208
288
-144
-256
-592
-48
-112
-224
-320
-320
112
-80
-176
-64
-320
224
736
288
336
-96
-208
-352
-224
-320
-672
176
160
64
-96
16
-96
32
480
896
304
256
-656
-240
-240
-496
-368
-96
128
208
-224
160
448
96
688
544
160
352
384
64
-128
-336
-432
-64
-96
-336
-416
192
-240
-208
-128
208
48
-496
0
-512
-32
464
-80
-512
112
-96
-80
-208
-320
-192
48
480
416
-144
-192
64
176
80
-160
-160
96
-32
608
224
-192
464
416
512
480
80
-384
-208
496
368
784
512
256
128
0
176
-96
-112
-416
-592
-112
-32
-352
-240
-416
-64
544
-48
-768
-368
-320
-400
208
784
368
416
448
176
-48
-64
256
192
352
112
-96
80
304
320
-112
-96
384
16
-208
80
128
-304
192
-144
16
-80
-16
288
480
-16
-256
-336
192
32
128
64
-128
-320
-192
-208
-128
-320
-928
-224
128
-48
-656
144
240
272
544
720
128
-80
-384
128
96
0
-176
-208
-528
-400
-256
-464
-416
-240
16
-80
-304
256
80
-112
-384
-416
-304
160
624
496
432
464
96
272
32
-80
-320
-160
176
400
16
-320
400
496
144
416
288
-384
-320
64
80
-48
-48
-96
-272
240
80
-128
-16
-96
576
112
-128
-288
336
448
192
-272
-336
-336
-256
-96
32
-176
-160
-336
-272
-496
-496
-320
144
272
-496
-208
-464
-544
-128
16
-80
-416
-624
-400
-64
-112
-80
80
32
-272
16
-176
-368
256
-272
-288
368
0
-48
-112
-192
-288
112
-32
-16
144
16
304
192
-16
-560
-256
-272
-128
-288
-368
-480
-208
-144
-32
96
336
32
-48
112
480
368
-224
144
-176
32
-160
-208
240
288
-192
-448
-288
32
160
-224
256
816
160
-688
-384
176
112
-192
160
368
-80
-608
-96
352
448
-16
400
432
-32
-240
-224
352
0
288
480
48
176
-16
-192
-496
-128
-96
208
432
16
96
-96
-208
-192
-736
-192
-432
-240
-256
-96
384
464
96
320
288
384
-32
-48
-272
-336
96
352
80
-176
-560
-80
-448
-464
-48
-240
-96
48
432
352
128
-144
64
16
-160
560
32
112
416
112
16
-192
-176
-288
80
-112
-176
-336
-48
352
80
48
-32
-224
48
-80
-448
-80
320
240
624
96
-448
-224
-64
-64
240
32
-656
-176
-32
-48
464
304
-80
32
128
32
-16
160
-512
-320
144
96
144
-144
-48
320
448
160
80
512
-208
-432
-400
-96
-208
-176
-240
-64
-272
-464
-368
-416
-320
256
320
-560
-704
-128
0
96
-128
-272
-352
-96
112
-96
304
-48
224
80
-304
288
288
-240
-128
-112
272
352
272
-544
304
-128
0
-304
-544
-208
176
608
256
48
320
32
48
-144
208
464
128
-176
64
464
-144
-64
336
-160
336
-224
-624
-320
464
64
-272
-240
96
208
-128
224
352
-432
-128
128
160
-176
-208
544
576
192
-16
-112
576
560
96
160
128
-80
528
48
304
480
304
32
304
32
80
-256
-560
-592
-480
416
288
-176
-160
0
112
-96
64
-400
-64
112
-256
-256
-112
64
64
-192
-144
96
528
416
256
656
368
-64
-464
-96
-32
48
-480
-192
-32
-112
0
-16
32
-320
-560
-208
128
16
-864
-320
32
288
-128
-336
-224
-32
144
-16
128
32
-448
-320
-48
432
-192
-128
-224
-320
-256
752
576
-160
-448
96
96
80
64
-496
-256
-208
-288
16
672
224
-144
-512
-96
-80
128
208
192
192
-80
32
-112
-256
-352
-48
-272
176
48
320
-80
-144
-320
-48
-80
-48
96
-160
64
-32
-176
-48
-144
-16
