-448
-592
-800
-1056
-960
-256
-16
-16
-16
0
0
528
1104
848
624
512
320
80
-128
-336
-528
-688
-864
-1104
-976
-272
-16
-16
-16
0
0
480
1072
800
576
448
256
16
-192
-416
-608
-752
-912
-1152
-1088
-320
-16
0
-16
-16
0
448
1056
784
544
400
192
-64
-256
-464
-640
-800
-960
-1216
-1152
-384
-16
0
-16
-16
0
352
928
704
496
384
208
-16
-224
-432
-608
-784
-960
-1264
-1280
-448
-16
0
0
-16
0
304
864
656
448
352
224
0
-192
-400
-576
-720
-928
-1248
-1360
-544
-16
-16
-16
-16
0
256
848
688
496
400
256
64
-128
-336
-528
-672
-880
-1216
-1344
-560
-16
-16
-16
0
0
256
880
736
528
416
304
80
-96
-304
-480
-640
-848
-1168
-1360
-592
-32
-16
-16
0
0
256
960
832
624
496
368
160
-32
-240
-400
-560
-736
-1056
-1248
-592
-32
-16
-16
-16
0
240
976
880
704
576
448
224
16
-176
-352
-528
-704
-1008
-1200
-608
-32
0
0
-16
0
224
1024
928
720
576
448
240
32
-160
-352
-512
-704
-1008
-1248
-672
-48
0
0
-16
0
192
944
896
688
528
400
176
-32
-240
-416
-608
-784
-1088
-1296
-720
-48
0
-16
-16
-16
160
912
864
608
464
336
112
-112
-320
-512
-704
-880
-1168
-1408
-800
-64
-16
-16
0
0
128
816
784
544
384
256
32
-192
-400
-576
-784
-944
-1232
-1472
-880
-80
-16
-16
0
-16
112
736
720
496
352
240
32
-192
-416
-592
-816
-960
-1248
-1504
-960
-112
-16
-16
-16
-16
96
704
720
496
352
240
32
-176
-384
-592
-768
-912
-1184
-1504
-1040
-128
-16
0
0
0
80
672
736
528
368
256
48
-160
-368
-544
-736
-896
-1168
-1456
-1072
-144
0
0
-16
0
64
672
784
544
384
288
80
-144
-352
-528
-720
-864
-1136
-1472
-1120
-160
-16
0
0
0
64
688
816
576
416
304
96
-144
-304
-336
-544
-848
-1120
-1424
-1136
-192
0
-16
-16
-16
64
672
848
592
448
336
144
80
496
656
320
-272
-944
-1392
-1152
-224
-16
-16
-16
-16
48
640
848
608
464
752
1744
384
704
736
528
112
1424
336
-448
-160
0
0
-16
-16
48
608
912
1472
464
1264
1824
144
304
224
80
1936
1440
720
1936
384
0
-16
0
0
96
1696
1152
1696
208
752
1088
1232
1056
800
752
864
736
304
1424
752
0
-16
0
0
96
496
688
960
1312
1504
1168
784
224
1936
1920
96
288
336
1920
944
0
-16
0
0
80
656
1376
1168
832
576
1808
1136
704
432
304
368
448
608
624
736
0
0
0
-16
32
1936
16
1520
848
464
96
1744
1392
0
-48
-1376
-1040
-944
-304
-1904
-1632
-1488
-1488
-1696
-16
-528
-1296
-368
-768
-1488
-16
0
-16
-16
-32
-1024
-400
-1120
-1760
-1616
-960
-704
-624
-816
-1232
-1920
-832
-1952
-1616
-1760
-32
-16
-16
-16
-16
-400
-1136
-48
-928
-1648
-1824
-1280
-1040
-1104
-1360
-1792
-384
-1120
-640
-1584
-32
-16
-16
-16
0
192
368
-640
-1856
-752
-1024
-528
-336
-384
-560
-848
-1280
-1856
-1360
-1152
-32
-16
0
-16
0
368
1072
528
-304
-1200
-1600
-1264
-1136
-1136
-1216
-1328
-1504
-1904
-1904
-736
-32
-16
0
0
0
336
1072
896
656
256
192
256
208
144
80
16
-48
-432
-1040
-592
-32
0
0
0
0
288
1024
864
672
688
1104
960
784
656
512
368
256
-192
-960
-624
-48
0
0
0
0
272
1024
896
672
720
1200
1008
832
688
544
432
304
-48
-848
-672
-48
0
0
-16
0
240
992
912
704
912
1408
1136
992
864
752
672
608
384
-416
-640
-64
0
0
-16
-16
208
960
896
864
1952
304
1984
1808
1744
1712
1680
1680
1664
1168
256
0
0
0
0
0
192
960
1424
784
1936
1824
1344
1088
896
832
864
1056
1248
1120
1712
128
-16
0
0
0
288
48
1504
544
1296
864
224
1824
1552
1424
1424
1616
1872
32
528
208
-16
-16
-16
-16
352
736
256
1104
1216
544
1952
1456
1088
880
816
912
992
1136
144
208
-16
-16
0
-16
256
224
1520
1616
1200
736
256
1872
1520
1248
1024
880
608
288
288
64
0
0
0
0
64
352
144
48
-64
-160
-288
-448
-672
-944
-1312
-1744
-400
-1232
-384
-256
-16
-16
0
0
-64
-608
-1904
-1232
-1424
-976
-752
-656
-640
-752
-1152
-1680
-352
-1280
-1904
-448
0
-16
0
-16
-80
-752
-2016
-1360
-1872
-1312
-1008
-848
-832
-944
-1216
-1552
-64
-784
-1648
-480
-16
-16
-16
0
0
128
-656
-224
-880
-384
-208
-112
-64
-64
-240
-480
-800
-1248
-544
-400
-16
-16
0
0
48
736
720
-336
-944
-704
-672
-736
-768
-816
-928
-1040
-1200
-1456
-1248
-256
-16
0
0
0
48
704
1024
784
592
608
496
352
272
144
48
-64
-256
-512
-640
-208
-16
0
-16
0
32
672
1040
848
976
944
800
672
576
400
272
144
-80
-336
-464
-176
-16
0
-16
-16
32
624
1056
896
1104
1056
896
752
624
416
288
224
-32
-288
-400
-176
-16
0
-16
-16
16
608
1072
912
1088
1040
880
752
592
400
272
224
0
-256
-368
-176
-16
-16
0
-16
16
576
1072
960
1184
1120
976
880
720
560
464
448
336
112
112
0
0
0
0
-16
16
560
1104
1616
208
2016
1888
1728
1520
1392
1344
1408
1488
1456
1472
512
0
-16
-16
-16
0
576
1904
1296
1568
1152
880
528
240
48
0
48
160
224
288
848
0
0
0
0
0
768
592
1904
1952
1472
1104
656
320
80
1984
1952
1968
1968
1984
784
0
-16
-16
0
0
528
1968
896
624
256
2000
1584
1296
1024
800
624
448
208
112
160
0
0
-16
-16
0
384
800
736
592
448
336
176
0
-208
-432
-688
-992
-1456
-1632
-480
0
-16
-16
0
0
192
-144
-1056
-880
-816
-752
-752
-816
-960
-1168
-1408
-1744
-240
-480
-848
-16
-16
-16
0
0
160
-208
-1424
-1280
-1136
-1040
-960
-976
-1072
-1184
-1344
-1584
-2016
-128
-768
-16
-16
0
0
0
272
544
-160
-32
48
96
48
0
-80
-128
-176
-224
-320
-256
112
16
0
0
0
0
432
176
608
192
64
1888
1600
1408
1248
1200
1232
1312
1408
1648
1024
48
0
0
-16
0
656
1360
128
1568
1184
752
288
2032
1808
1696
1632
1680
1760
1968
1200
64
0
-16
-16
0
480
736
1536
896
512
112
1696
1360
1088
880
736
608
416
288
336
32
0
-16
-16
0
160
688
736
400
160
16
-224
-448
-688
-912
-1184
-1488
-1968
-384
-1184
-32
-16
-16
-16
-16
-64
-752
-64
-176
-32
-1968
-1904
-1952
-16
-192
-464
-768
-1344
-1904
-48
-96
-16
-16
0
0
-144
-1072
-464
-672
-352
-128
-2016
-1952
-1984
-32
-176
-336
-720
-1120
-1680
-80
0
-16
0
-16
16
-64
-1232
-1424
-1296
-1264
-1216
-1264
-1360
-1472
-1648
-1808
-80
-384
-1424
-96
-16
0
0
0
112
736
48
-720
-576
-560
-608
-656
-736
-816
-896
-928
-1088
-1264
-688
-48
-16
-16
0
-16
96
848
992
784
656
560
400
224
64
-48
-144
-176
-288
-400
-112
16
-16
0
0
-16
80
816
1200
1152
896
752
544
320
128
-32
-192
-288
-496
-752
-464
-32
0
0
0
-16
64
784
864
160
48
-16
-192
-320
-480
-640
-816
-944
-1232
-1552
-1232
-176
0
0
-16
-16
64
752
864
-208
-400
-368
-528
-608
-736
-864
-1040
-1200
-1472
-1808
-1408
-208
-16
-16
-16
-16
48
704
688
-464
-464
-432
-576
-656
-784
-928
-1104
-1264
-1568
-1936
-1584
-256
-16
0
0
-16
32
688
816
-368
-576
-448
-544
-608
-704
-816
-976
-1104
-1312
-1584
-1296
-256
-16
0
-16
-16
32
640
1024
400
64
128
0
-128
-240
-384
-528
-656
-832
-1088
-912
-208
-16
0
0
-16
16
624
1040
512
176
208
96
-32
-144
-304
-464
-576
-752
-1024
-912
-208
0
-16
0
0
16
592
1072
624
336
336
224
80
-48
-176
-320
-416
-560
-800
-672
-160
-16
-16
0
0
16
544
1040
960
944
880
784
608
464
336
256
192
160
0
80
96
0
0
0
0
0
512
1136
1840
1984
1760
1616
1360
1184
1040
960
928
944
928
992
400
0
-16
0
0
0
512
1792
1056
928
640
400
48
1856
1696
1600
1600
1648
1696
1760
672
0
0
0
0
0
688
480
1616
1328
1008
672
272
0
1840
1712
1680
1664
1664
1664
672
0
-16
-16
0
0
672
464
1136
672
400
64
1728
1440
1200
1024
896
752
592
560
336
0
0
-16
-16
0
432
1440
1440
1088
928
736
480
288
48
-144
-304
-528
-848
-912
-144
0
0
-16
-16
0
240
336
96
16
-48
-112
-256
-416
-608
-800
-1008
-1248
-1616
-1696
-448
0
0
-16
0
0
96
-352
-992
-880
-928
-912
-976
-1072
-1232
-1424
-1632
-1888
-272
-416
-832
-16
0
0
-16
0
160
-80
-1104
-992
-944
-912
-928
-1008
-1136
-1280
-1440
-1648
-2032
-128
-784
-16
-16
0
-16
0
240
432
-656
-624
-608
-640
-688
-768
-912
-1040
-1168
-1344
-1680
-1824
-704
-16
0
-16
-16
0
240
784
-112
-240
-224
-256
-336
-448
-576
-704
-832
-960
-1216
-1360
-528
-16
-16
0
0
-16
224
960
496
256
240
144
32
-96
-224
-336
-464
-560
-768
-880
-336
0
0
-16
0
-16
192
960
720
448
368
272
112
-32
-176
-320
-480
-608
-848
-1024
-464
-16
-16
-16
0
0
176
944
496
-64
-80
-176
-304
-416
-576
-720
-880
-1040
-1376
-1648
-928
-64
-16
-16
-16
0
144
912
432
-416
-352
-384
-496
-576
-720
-848
-1008
-1184
-1504
-1776
-1056
-80
-16
0
-16
-16
128
912
480
-464
-368
-384
-496
-576
-688
-816
-960
-1104
-1376
-1664
-1008
-80
-16
0
-16
-16
112
896
688
-112
-80
-80
-192
-272
-384
-496
-624
-720
-928
-1152
-672
-64
0
0
-16
-16
96
864
960
608
528
480
336
208
64
-48
-176
-256
-400
-592
-288
-16
-16
-16
-16
-16
80
832
1056
944
784
688
544
352
192
64
-64
-144
-288
-544
-336
-16
0
-16
0
0
64
784
1024
816
688
592
448
256
80
-80
-272
-400
-608
-880
-656
-80
0
-16
-16
-16
48
752
976
496
384
352
208
48
-112
-256
-432
-560
-784
-1088
-848
-112
-16
-16
-16
-16
48
720
976
384
272
240
96
-32
-176
-320
-496
-640
-864
-1168
-912
-144
0
0
0
-16
32
688
1008
432
304
288
144
0
-144
-272
-432
-560
-752
-1024
-800
-128
0
-16
0
0
32
656
1024
592
448
400
256
112
-48
-176
-304
-400
-576
-832
-688
-112
0
0
0
0
16
624
1040
688
528
480
336
176
32
-128
-256
-384
-544
-768
-640
-112
0
-16
-16
0
16
592
1040
704
544
512
384
224
64
-80
-208
-304
-448
-688
-624
-112
0
0
-16
0
16
544
1040
752
592
528
416
256
112
-48
-176
-272
-416
-656
-608
-128
0
-16
-16
0
0
512
1072
784
624
560
432
272
128
-48
-160
-256
-416
-656
-640
-128
0
-16
-16
-16
0
464
1024
752
592
544
416
240
112
-64
-208
-320
-496
-736
-736
-176
0
-16
0
-16
0
448
1040
736
560
496
368
224
80
-64
-208
-352
-512
-736
-736
-176
0
-16
-16
-16
0
400
1008
768
608
560
448
288
160
0
-144
-288
-432
-656
-688
-176
0
0
0
-16
0
384
1040
832
656
592
480
320
176
16
-128
-272
-416
-656
-688
-176
0
0
0
-16
0
336
1008
848
688
624
512
336
192
32
-112
-240
-368
-592
-672
-192
0
-16
-16
0
0
320
1008
832
656
592
480
320
176
16
-128
-240
-384
-608
-720
-224
0
-16
-16
0
0
288
1008
816
624
560
448
288
160
0
-128
-272
-400
-624
-736
-240
0
-16
-16
0
0
256
992
800
608
544
464
304
160
16
-128
-256
-384
-624
-784
-272
0
-16
-16
0
0
240
1008
816
592
528
432
272
128
-16
-144
-288
-416
-656
-800
-304
0
0
0
-16
0
208
1008
832
592
512
432
272
128
-32
-160
-304
-432
-672
-832
-336
0
0
0
-16
0
192
992
832
576
512
416
256
112
-48
-176
-304
-432
-640
-832
-368
-16
0
0
-16
-16
176
976
848
576
480
400
256
112
-48
-160
-320
-432
-640
-816
-384
-16
-16
0
0
-16
144
928
864
576
496
432
272
128
-16
-144
-272
-384
-592
-800
-384
-16
-16
-16
-16
-16
128
928
928
640
528
448
304
160
0
-112
-224
-336
-560
-768
-400
-16
-16
-16
0
-16
112
896
960
704
592
512
352
208
48
-80
-192
-288
-496
-704
-384
-16
-16
-16
-16
0
96
896
992
704
576
512
368
208
64
-96
-208
-304
-512
-752
-416
-16
0
-16
-16
0
80
848
992
688
576
496
352
192
32
-96
-240
-336
-528
-736
-432
-16
0
0
-16
-16
64
800
976
656
560
496
352
176
32
-112
-256
-352
-528
-768
-480
-16
0
-16
0
0
48
752
976
640
544
480
336
176
16
-112
-272
-368
-544
-768
-496
-32
0
-16
-16
-16
48
704
976
672
560
496
352
192
32
-112
-256
-352
-528
-752
-512
-32
0
0
0
-16
32
688
992
656
528
464
320
176
16
-128
-272
-352
-528
-768
-560
-48
0
0
-16
0
32
640
976
656
544
448
320
160
16
-128
-272
-384
-544
-768
-576
-48
0
0
0
0
16
608
976
624
528
464
320
160
16
-144
-288
-416
-576
-816
-656
-64
0
0
0
0
16
560
976
608
512
464
320
144
0
-160
-304
-416
-592
-832
-688
-80
0
0
-16
0
0
528
992
656
528
464
336
144
0
-160
-304
-416
-576
-800
-672
-80
0
-16
-16
-16
0
496
1008
672
544
464
336
160
16
-144
-272
-368
-512
-752
-704
-80
0
0
0
0
0
464
1008
704
560
464
352
176
32
-128
-256
-368
-512
-736
-672
-96
0
-16
0
0
0
432
1008
656
512
432
336
144
0
-160
-288
-400
-544
-768
-752
-128
0
-16
0
0
0
400
976
624
496
416
320
160
0
-160
-288
-400
-544
-784
-752
-144
0
-16
0
0
0
368
976
640
512
432
320
160
16
-128
-272
-400
-544
-768
-784
-160
0
-16
-16
-16
0
336
992
656
512
432
336
176
32
-128
-272
-400
-544
-784
-848
-208
0
0
-16
-16
0
304
976
656
512
432
336
160
16
-144
-288
-432
-576
-816
-864
-224
0
0
-16
-16
0
288
992
640
464
400
304
160
16
-160
-304
-432
-576
-816
-912
-256
0
0
-16
-16
0
256
960
624
448
368
288
144
0
-160
-288
-432
-576
-800
-896
-272
0
-16
0
0
0
224
976
688
496
416
320
176
32
-112
-240
-384
-512
-752
-880
-288
0
-16
0
0
0
208
960
704
512
416
320
176
32
-128
-256
-352
-480
-720
-880
-336
0
-16
-16
0
0
176
960
736
512
416
320
176
32
-128
-256
-400
-528
-752
-896
-352
0
0
0
-16
-16
160
928
736
496
416
336
176
32
-128
-256
-368
-496
-720
-928
-384
0
0
-16
-16
-16
144
912
752
480
400
304
176
16
-128
-272
-416
-544
-752
-912
-400
0
-16
-16
-16
-16
112
896
784
496
400
320
176
16
-128
-256
-416
-512
-736
-928
-432
0
0
0
0
0
96
864
816
512
416
336
208
48
-112
-256
-400
-512
-720
-928
-464
0
-16
0
0
0
80
848
864
544
432
352
208
48
-96
-240
-400
-496
-704
-896
-480
0
0
0
0
0
64
784
848
528
432
368
224
64
-80
-224
-368
-464
-656
-912
-528
-16
0
-16
-16
-16
64
784
880
544
432
352
192
48
-96
-224
-368
-464
-656
-880
-544
-16
-16
-16
-16
-16
48
736
880
528
432
352
208
48
-96
-240
-384
-464
-656
-880
-592
-32
0
0
-16
-16
32
704
880
512
416
336
192
48
-112
-256
-384
-464
-640
-880
-624
-32
0
-16
-16
-16
32
672
928
544
432
368
224
80
-64
-208
-352
-448
-624
-864
-624
-48
0
-16
-16
0
16
624
928
560
448
400
272
112
-48
-192
-336
-432
-608
-864
-672
-48
0
0
-16
0
16
592
976
592
480
416
288
112
-32
-176
-336
-448
-624
-864
-672
-64
0
0
0
0
16
560
976
624
512
448
320
144
-16
-176
-320
-448
-608
-864
-688
-64
0
0
0
0
0
528
992
640
512
448
320
144
0
-160
-320
-432
-608
-848
-736
-80
0
-16
0
0
0
480
992
656
528
464
336
176
16
-128
-288
-432
-576
-816
-704
-80
0
-16
-16
-16
0
432
976
672
544
480
368
192
48
-112
-256
-384
-528
-784
-736
-96
0
-16
-16
-16
0
416
992
672
528
464
352
176
32
-128
-272
-400
-544
-784
-736
-112
0
0
-16
-16
0
384
992
688
560
480
368
192
48
-128
-256
-368
-512
-752
-736
-112
0
0
0
0
0
352
1024
720
576
480
368
208
48
-112
-240
-336
-480
-720
-768
-144
0
0
0
0
0
320
992
720
576
480
368
192
48
-112
-256
-368
-496
-720
-768
-160
0
0
0
-16
0
288
976
672
528
432
336
176
16
-144
-272
-384
-528
-752
-832
-208
0
-16
-16
-16
0
256
960
640
480
400
304
128
-16
-176
-304
-448
-576
-800
-864
-240
0
-16
-16
-16
0
224
928
624
464
384
304
144
-32
-176
-304
-448
-576
-800
-896
-256
0
-16
-16
0
-16
208
928
656
480
400
320
160
16
-144
-288
-416
-544
-768
-912
-304
0
-16
-16
-16
0
176
912
688
512
416
320
176
32
-128
-256
-416
-560
-784
-896
-320
0
0
0
-16
0
160
912
720
512
416
352
176
32
-128
-272
-416
-544
-768
-944
-352
0
0
0
0
0
144
896
704
496
384
304
160
-16
-176
-304
-432
-544
-768
-960
-400
0
0
0
0
0
128
896
720
496
400
320
160
0
-160
-288
-416
-528
-736
-944
-416
0
0
0
0
-16
112
896
784
528
432
352
208
64
-96
-240
-352
-448
-672
-896
-448
0
-16
-16
-16
-16
96
864
816
560
448
368
224
80
-80
-224
-352
-464
-672
-880
-448
0
-16
-16
-16
-16
80
832
832
528
432
368
240
64
-96
-240
-384
-480
-672
-912
-496
0
-16
-16
-16
-16
64
784
800
480
384
304
176
16
-144
-288
-432
-544
-736
-944
-560
-16
0
-16
0
-16
48
752
800
464
368
304
176
16
-144
-288
-448
-528
-720
-944
-576
-16
0
-16
0
0
48
704
816
448
352
272
144
16
-128
-272
-416
-496
-688
-944
-640
-32
0
0
-16
-16
32
672
848
480
384
288
160
16
-112
-256
-416
-528
-720
-944
-640
-32
0
0
0
0
32
640
864
480
384
320
176
16
-128
-272
-416
-512
-688
-944
-688
-48
0
0
-16
-16
16
592
880
496
400
320
192
32
-112
-256
-416
-528
-688
-912
-688
-48
0
-16
-16
0
16
560
912
528
432
352
224
64
-80
-208
-368
-480
-624
-880
-688
-64
0
-16
-16
0
16
528
944
560
448
368
256
96
-32
-176
-304
-400
-560
-816
-704
-64
0
0
-16
-16
0
496
992
608
480
400
272
112
-32
-176
-320
-432
-592
-832
-720
-80
0
0
-16
-16
0
464
960
592
480
416
288
128
-32
-176
-320
-464
-608
-864
-784
-96
0
0
0
-16
0
432
976
608
480
416
288
128
-32
-176
-320
-480
-640
-864
-768
-112
0
0
0
0
0
400
976
624
512
432
304
144
0
-160
-288
-416
-560
-800
-768
-112
0
0
0
0
0
368
976
640
496
416
320
160
0
-144
-272
-368
-512
-752
-784
-144
0
0
0
0
0
336
1008
672
528
448
336
176
16
-144
-272
-368
-528
-768
-816
-160
0
-16
0
0
0
304
976
624
464
400
320
128
-16
-192
-320
-448
-592
-832
-896
-208
0
-16
-16
-16
0
272
960
624
464
400
288
128
-16
-176
-320
-464
-608
-832
-880
-224
0
-16
-16
-16
0
256
944
656
496
400
320
160
0
-160
-304
-432
-560
-800
-880
-256
0
-16
-16
0
0
240
976
688
512
416
320
144
0
-160
-304
-400
-528
-768
-896
-288
0
0
-16
0
0
208
976
736
560
464
384
224
64
-112
-224
-352
-480
-704
-832
-272
0
0
0
0
0
192
976
784
592
496
432
256
96
-64
-224
-368
-496
-736
-896
-320
0
0
0
0
-16
160
944
752
528
432
352
208
64
-96
-240
-400
-528
-736
-912
-368
0
0
0
-16
0
144
896
752
512
416
336
192
32
-128
-256
-416
-528
-752
-928
-400
0
-16
0
-16
-16
112
880
736
480
384
304
160
0
-144
-288
-432
-544
-768
-992
-480
0
-16
-16
-16
0
96
848
736
480
400
320
176
16
-144
-272
-416
-528
-736
-944
-480
0
-16
-16
0
0
80
832
800
512
432
368
240
64
-80
-240
-384
-496
-704
-944
-496
0
0
0
0
0
64
800
848
560
464
384
240
80
-80
-224
-384
-496
-688
-912
-496
0
-16
-16
-16
0
64
768
880
592
496
416
288
128
-32
-176
-336
-432
-640
-864
-496
0
0
0
-16
-16
48
768
944
624
496
432
288
128
-32
-192
-336
-432
-608
-848
-544
0
0
-16
-16
-16
32
720
960
672
544
464
336
176
16
-128
-272
-368
-544
-784
-496
0
0
0
0
-16
32
688
976
672
544
480
320
160
16
-144
-288
-400
-576
-832
-592
-16
0
0
-16
0
16
640
928
608
480
400
288
128
-16
-160
-304
-416
-592
-816
-592
-16
0
-16
0
0
16
592
944
592
496
416
288
128
-32
-176
-336
-464
-624
-880
-672
-32
0
-16
-16
0
16
560
928
560
448
384
256
96
-48
-224
-352
-448
-608
-864
-720
-48
0
-16
0
0
0
528
944
592
480
400
272
112
-32
-192
-320
-432
-592
-832
-704
-64
0
-16
0
-16
0
496
976
624
496
416
304
128
-16
-176
-320
-432
-576
-832
-736
-64
0
0
0
-16
0
448
976
624
496
416
288
128
-32
-176
-304
-432
-592
-832
-752
-80
0
-16
-16
0
0
416
976
624
512
416
304
128
-16
-176
-320
-480
-624
-864
-800
-112
0
0
0
0
0
384
976
624
496
416
304
144
-16
-176
-320
-432
-576
-832
-816
-128
0
0
-16
-16
0
352
992
672
528
432
320
160
16
-144
-272
-432
-592
-832
-800
-144
0
0
0
-16
0
320
976
656
512
432
336
160
0
-160
-288
-432
-576
-832
-864
-176
0
0
0
-16
0
288
960
624
480
400
304
128
-32
-192
-336
-480
-624
-864
-896
-224
0
-16
0
0
0
256
960
608
448
368
272
96
-64
-224
-368
-512
-656
-896
-976
-256
0
0
-16
0
0
224
912
560
416
320
224
64
-80
-240
-384
-496
-624
-864
-1024
-320
0
0
-16
-16
0
208
928
608
448
336
240
96
-64
-208
-336
-480
-608
-848
-976
-320
0
-16
0
0
0
176
928
640
464
368
288
112
-48
-192
-336
-448
-560
-800
-992
-368
0
0
-16
-16
0
160
928
656
448
352
272
112
-64
-224
-352
-496
-608
-832
-992
-400
0
0
0
-16
-16
144
912
688
464
384
304
128
-32
-192
-320
-480
-592
-800
-992
-416
0
-16
-16
-16
-16
112
864
688
464
368
272
144
-16
-160
-304
-448
-560
-784
-992
-464
0
-16
-16
-16
-16
96
848
736
480
384
304
160
0
-160
-272
-432
-544
-752
-944
-480
0
-16
-16
-16
0
80
816
752
480
384
320
176
16
-144
-288
-416
-528
-736
-976
-528
0
-16
-16
-16
0
80
800
800
512
416
352
192
32
-128
-256
-400
-512
-720
-928
-496
0
0
0
-16
0
64
768
848
576
480
416
288
112
-64
-208
-352
-464
-672
-896
-512
0
0
0
0
-16
48
736
912
624
512
448
304
144
0
-160
-304
-416
-624
-848
-512
0
0
0
0
0
48
720
960
656
528
464
320
160
0
-160
-288
-384
-592
-832
-544
-16
0
-16
0
0
32
688
928
592
480
416
272
112
-48
-208
-352
-448
-640
-896
-640
-16
0
-16
-16
0
32
656
896
512
400
336
224
64
-96
-256
-400
-512
-688
-928
-688
-32
0
0
-16
0
16
608
880
496
416
352
224
64
-80
-224
-400
-528
-704
-960
-736
-48
0
0
-16
-16
16
576
912
528
416
336
240
80
-48
-208
-368
-480
-672
-928
-768
-64
0
0
0
-16
0
544
976
592
480
384
272
96
-32
-192
-336
-448
-624
-880
-736
-64
0
-16
0
-16
0
512
1008
592
464
400
272
112
-32
-208
-336
-432
-576
-832
-768
-80
0
-16
0
-16
0
480
1008
592
464
384
256
96
-32
-192
-320
-448
-592
-848
-768
-96
0
-16
-16
-16
0
416
960
592
464
384
272
112
-32
-176
-320
-448
-592
-848
-816
-128
0
-16
-16
-16
0
384
976
592
464
384
272
112
-16
-160
-304
-432
-576
-832
-848
-160
0
0
0
0
0
352
992
640
496
400
304
128
-16
-160
-304
-448
-608
-848
-864
-160
0
0
0
0
0
320
1008
656
496
416
304
128
-32
-192
-304
-432
-576
-800
-864
-192
0
0
0
0
0
288
976
624
464
384
288
128
-32
-176
-304
-464
-592
-816
-848
-208
0
0
0
0
0
272
992
688
528
416
304
144
-16
-160
-272
-416
-544
-784
-864
-224
0
0
0
0
0
224
976
704
528
416
320
144
-16
-176
-304
-400
-496
-736
-880
-272
16
0
-16
0
-16
208
976
768
576
448
352
192
16
-144
-256
-384
-496
-720
-864
-256
16
-16
-16
-16
-16
192
976
784
576
480
384
208
48
-128
-256
-384
-480
-704
-880
-304
16
0
0
-16
-16
160
928
768
560
464
368
208
48
-112
-240
-384
-480
-704
-864
-320
16
-16
0
-16
-16
144
896
752
544
448
368
208
48
-112
-240
-400
-496
-704
-880
-336
16
-16
0
-16
-16
128
880
752
528
416
336
192
32
-128
-288
-416
-512
-720
-912
-416
0
-16
-16
0
0
112
848
752
528
432
352
192
32
-128
-256
-416
-512
-720
-896
-416
0
-16
-16
0
0
96
832
768
512
432
368
224
48
-96
-256
-400
-512
-704
-896
-464
0
-16
-16
0
0
80
784
768
512
416
352
208
48
-112
-240
-400
-512
-704
-880
-464
0
0
0
0
0
64
736
800
544
448
384
256
80
-80
-224
-368
-480
-672
-864
-480
0
0
0
0
-16
48
720
832
560
464
384
240
80
-80
-240
-384
-496
-688
-928
-576
0
0
0
0
-16
32
688
800
496
400
336
208
48
-128
-272
-416
-544
-736
-976
-640
-16
0
-16
-16
-16
32
672
816
464
384
320
176
16
-144
-304
-432
-544
-736
-992
-688
-32
0
-16
-16
-16
32
624
800
416
320
272
144
0
-160
-304
-464
-560
-752
-1008
-736
-48
0
-16
-16
-16
16
608
864
464
384
320
192
32
-128
-272
-432
-560
-736
-992
-736
-48
0
-16
-16
0
16
592
912
528
416
352
240
80
-80
-240
-384
-496
-672
-944
-768
-64
0
-16
-16
0
16
544
960
560
448
368
256
96
-48
-208
-368
-512
-688
-944
-768
-80
0
-16
-16
-16
0
512
976
576
448
368
272
96
-48
-208
-352
-480
-640
-912
-800
-80
0
0
-16
-16
0
480
976
560
448
368
256
96
-48
-192
-352
-496
-656
-896
-800
-96
0
0
-16
-16
0
432
976
560
448
384
272
112
-32
-192
-352
-480
-624
-880
-816
-128
0
0
-16
0
0
400
976
592
464
384
272
112
-16
-176
-320
-448
-608
-864
-864
-144
0
0
-16
0
0
368
1008
624
496
400
288
144
0
-144
-272
-400
-544
-800
-816
-160
0
-16
-16
0
0
336
1008
672
512
416
320
160
0
-144
-288
-400
-544
-800
-864
-192
0
-16
0
0
0
320
1040
704
528
416
320
160
0
-144
-272
-416
-560
-800
-832
-176
0
0
0
-16
0
272
1008
704
528
432
336
160
0
-160
-288
-432
-576
-800
-864
-224
0
0
0
-16
0
240
992
704
528
432
320
160
16
-128
-272
-400
-528
-768
-880
-256
0
0
0
0
0
224
976
720
544
432
320
176
32
-128
-256
-400
-496
-720
-848
-256
0
0
-16
-16
-16
192
944
720
544
448
352
176
32
-128
-256
-368
-480
-720
-896
-320
16
-16
-16
-16
-16
160
928
736
528
432
336
176
16
-144
-272
-416
-528
-736
-896
-320
16
0
0
0
-16
144
896
736
544
448
384
208
32
-128
-256
-448
-560
-768
-928
-352
16
0
0
-16
-16
128
880
784
544
448
368
208
48
-112
-256
-400
-528
-736
-928
-400
16
-16
-16
0
0
112
848
800
592
496
416
256
80
-80
-208
-352
-448
-656
-848
-384
16
-16
-16
-16
0
96
848
880
640
528
464
304
128
-32
-176
-304
-400
-608
-848
-416
16
-16
-16
-16
-16
80
832
896
656
544
464
304
128
-32
-176
-304
-400
-608
-848
-432
16
0
0
-16
0
64
784
864
624
512
432
288
112
-48
-192
-336
-448
-640
-864
-480
0
0
0
0
-16
48
768
864
592
496
432
288
128
-16
-176
-320
-416
-592
-832
-480
16
0
-16
-16
0
48
720
880
608
496
432
304
144
-16
-160
-304
-416
-592
-832
-512
0
0
0
-16
0
32
688
880
592
480
432
288
112
-32
-192
-336
-448
-640
-896
-608
-16
0
-16
0
0
32
656
880
576
464
400
272
112
-64
-208
-368
-480
-656
-912
-624
-16
0
-16
0
0
16
608
896
592
496
432
304
128
-32
-192
-352
-496
-672
-896
-656
-16
0
0
0
-16
16
592
928
592
464
400
288
128
-32
-192
-352
-464
-624
-880
-688
-32
0
-16
-16
-16
16
560
944
592
480
400
272
112
-48
-208
-352
-464
-640
-880
-720
-48
0
0
-16
-16
0
528
960
576
448
384
256
96
-64
-224
-368
-464
-624
-896
-800
-64
0
0
-16
-16
0
480
944
560
432
352
224
80
-64
-224
-352
-464
-608
-848
-768
-80
0
0
-16
0
0
448
992
640
496
416
304
144
0
-160
-304
-416
-560
-800
-736
-80
0
0
-16
0
0
400
992
672
528
432
336
160
16
-128
-272
-368
-512
-736
-704
-80
0
0
0
0
0
368
1008
720
576
496
400
224
80
-64
-208
-336
-480
-688
-640
-48
0
-16
0
0
0
336
1088
928
736
640
512
320
160
16
-112
-224
-352
-592
-608
-48
16
-16
0
0
0
304
1008
768
576
464
336
128
-48
-224
-384
-544
-704
-976
-1040
-256
0
0
0
-16
0
288
944
464
320
224
128
-48
-208
-368
-512
-688
-832
-1088
-1168
-336
0
-16
-16
0
0
240
896
384
240
144
64
-96
-272
-432
-592
-736
-896
-1168
-1312
-432
0
-16
-16
-16
0
208
880
320
192
112
48
-96
-240
-416
-544
-704
-848
-1088
-1200
-400
0
-16
-16
0
0
192
912
512
336
240
176
32
-112
-272
-416
-544
-656
-896
-1056
-368
0
0
-16
-16
0
176
928
672
464
352
256
112
-48
-192
-320
-480
-608
-832
-960
-352
0
0
-16
-16
-16
144
912
752
544
432
336
192
16
-144
-272
-416
-512
-736
-912
-352
16
0
0
0
0
128
880
784
560
464
384
224
64
-96
-240
-368
-496
-736
-944
-416
16
-16
0
0
-16
112
880
800
560
464
384
224
48
-112
-256
-400
-528
-752
-976
-464
0
0
0
-16
-16
96
848
752
496
416
352
208
32
-128
-272
-432
-544
-768
-1024
-528
0
-16
0
-16
-16
80
848
800
512
416
336
192
32
-128
-272
-448
-576
-800
-1024
-544
0
0
0
-16
-16
64
800
800
480
384
304
160
-16
-176
-320
-480
-576
-768
-1024
-592
-16
0
-16
-16
-16
48
752
816
464
368
288
144
-16
-176
-336
-480
-592
-784
-1040
-672
-16
0
-16
0
0
48
720
832
464
368
288
144
-16
-176
-320
-464
-576
-784
-1040
-688
-32
0
-16
0
0
32
688
864
496
400
336
192
16
-128
-288
-432
-544
-720
-992
-704
-32
0
-16
-16
0
32
656
928
544
432
352
224
48
-112
-256
-400
-528
-704
-960
-704
-48
0
0
0
0
16
624
960
560
464
384
240
64
-96
-256
-400
-512
-704
-960
-752
-48
0
0
0
0
16
576
944
528
432
352
240
64
-96
-256
-384
-480
-672
-928
-800
-80
0
0
0
-16
0
544
976
544
432
352
240
80
-80
-240
-384
-512
-688
-944
-800
-96
0
0
0
-16
0
512
976
544
432
352
256
80
-64
-240
-368
-480
-640
-912
-816
-112
0
-16
-16
-16
0
480
1024
576
448
384
256
96
-48
-208
-368
-496
-656
-896
-800
-112
0
-16
-16
-16
0
432
1024
624
496
432
320
144
-16
-176
-336
-448
-608
-848
-816
-128
0
-16
0
0
0
400
1056
672
512
448
336
176
32
-144
-288
-400
-560
-800
-816
-144
0
-16
-16
-16
0
368
1040
704
544
464
368
208
64
-112
-240
-384
-544
-800
-832
-176
0
-16
0
0
0
336
1040
736
576
496
384
208
64
-112
-240
-384
-528
-784
-864
-192
0
-16
-16
-16
0
304
1040
736
560
464
368
208
48
-128
-272
-432
-560
-800
-848
-208
0
-16
-16
-16
0
272
1040
752
592
496
384
208
48
-128
-256
-400
-528
-752
-832
-208
16
-16
-16
0
0
240
1040
784
592
480
384
224
80
-96
-240
-352
-464
-688
-816
-240
16
0
0
0
0
208
976
784
592
480
384
224
80
-80
-224
-352
-480
-704
-816
-256
16
0
0
0
-16
176
960
768
560
464
368
208
64
-96
-240
-368
-480
-704
-880
-304
16
0
0
0
0
144
928
752
528
432
352
192
32
-128
-256
-432
-544
-768
-928
-352
16
0
0
-16
-16
128
896
768
544
448
384
208
48
-112
-240
-416
-528
-752
-928
-384
16
0
0
-16
0
112
896
800
560
464
384
224
64
-96
-240
-384
-496
-720
-944
-416
0
-16
-16
0
-16
96
864
832
592
480
384
224
64
-96
-224
-384
-496
-704
-912
-432
0
-16
-16
-16
-16
80
832
848
592
480
400
240
64
-96
-224
-368
-480
-672
-912
-464
0
0
0
0
0
80
816
864
592
480
416
240
64
-96
-224
-368
-480
-672
-912
-496
0
-16
0
-16
0
64
768
848
544
448
368
224
48
-128
-256
-416
-544
-736
-976
-560
0
0
-16
-16
0
48
752
848
544
448
368
224
48
-112
-256
-400
-528
-720
-976
-624
-16
0
-16
-16
-16
32
704
864
528
416
336
208
32
-128
-288
-432
-576
-768
-1008
-656
-16
0
-16
0
-16
32
672
864
512
416
368
224
48
-112
-288
-432
-544
-720
-976
-704
-32
0
0
-16
-16
16
640
896
528
432
368
240
64
-96
-256
-416
-528
-720
-960
-704
-32
0
-16
0
-16
16
592
928
560
464
400
256
80
-80
-240
-400
-528
-704
-960
-752
-48
0
0
-16
0
16
544
912
528
432
368
240
80
-80
-240
-400
-512
-704
-960
-800
-64
0
-16
0
0
0
528
960
560
464
384
256
80
-64
-240
-384
-512
-704
-960
-800
-80
0
0
0
0
0
496
976
592
464
400
288
112
-48
-240
-368
-464
-640
-912
-832
-96
0
-16
-16
-16
0
464
992
592
480
400
288
128
-32
-208
-336
-448
-624
-880
-816
-112
0
0
0
-16
0
432
1040
640
512
416
320
160
0
-176
-320
-448
-608
-848
-832
-128
0
0
0
-16
0
384
1008
640
512
432
320
160
16
-144
-288
-400
-560
-816
-848
-160
0
0
0
0
0
352
1024
672
512
432
336
176
32
-144
-288
-432
-592
-848
-880
-176
0
0
0
0
0
320
1024
688
544
448
352
192
48
-128
-272
-400
-544
-816
-896
-208
0
-16
-16
-16
0
288
1024
704
528
448
352
192
32
-128
-272
-448
-576
-816
-896
-224
0
-16
-16
0
0
256
1008
704
544
448
352
192
48
-112
-256
-400
-512
-752
-864
-224
16
-16
-16
-16
0
224
992
672
480
368
288
128
-16
-176
-320
-448
-560
-800
-960
-304
16
-16
-16
-16
0
192
976
736
528
432
336
176
16
-128
-272
-400
-512
-736
-864
-272
16
-16
0
-16
0
176
960
784
560
464
384
224
64
-96
-240
-384
-512
-752
-928
-320
16
-16
0
0
0
144
944
784
544
432
336
176
0
-144
-288
-464
-576
-816
-976
-384
0
-16
0
0
-16
128
928
752
512
400
320
160
0
-160
-288
-432
-544
-752
-944
-416
0
0
0
0
-16
112
912
800
544
416
336
176
16
-144
-288
-448
-560
-768
-976
-464
0
0
0
-16
-16
96
864
784
496
384
288
144
-16
-176
-304
-448
-544
-752
-976
-496
0
-16
-16
-16
0
80
816
784
496
400
336
176
0
-144
-288
-432
-528
-736
-976
-544
0
0
0
-16
0
64
784
800
480
368
288
144
-16
-160
-288
-448
-560
-768
-1008
-592
-16
-16
-16
0
0
48
752
800
480
384
304
176
0
-160
-288
-448
-544
-752
-1008
-640
-16
0
-16
-16
0
48
752
896
544
416
336
192
16
-144
-288
-432
-528
-736
-1008
-672
-16
0
0
0
-16
32
688
912
576
464
384
224
64
-112
-256
-416
-544
-736
-992
-656
-16
0
-16
-16
0
32
656
944
608
496
416
272
96
-64
-224
-384
-512
-688
-944
-688
-16
0
0
0
0
16
624
976
640
528
448
304
144
-16
-176
-320
-432
-608
-864
-656
-32
0
-16
-16
-16
16
576
992
704
592
528
384
208
32
-112
-256
-384
-560
-800
-640
-32
0
-16
-16
-16
0
560
1024
704
592
528
400
224
64
-112
-224
-336
-512
-768
-672
-48
0
-16
-16
-16
0
512
1024
720
592
528
400
224
80
-80
-224
-336
-512
-768
-672
-48
0
0
-16
-16
0
480
1024
720
592
528
416
240
80
-96
-240
-352
-512
-784
-720
-80
0
-16
-16
-16
0
448
1024
672
544
480
368
176
32
-144
-272
-384
-544
-800
-752
-96
0
0
0
0
0
400
1008
672
560
480
368
192
16
-160
-304
-432
-576
-816
-800
-112
0
0
0
0
0
368
1008
656
528
448
352
176
16
-160
-304
-432
-576
-832
-848
-144
0
-16
-16
-16
0
336
1024
688
544
448
336
192
32
-160
-304
-432
-576
-832
-864
-176
0
0
-16
-16
0
304
1024
672
512
416
304
144
0
-176
-320
-464
-608
-848
-928
-208
0
-16
-16
-16
0
272
1008
624
464
352
272
128
-48
-208
-352
-512
-640
-880
-960
-256
16
0
0
-16
0
240
960
624
464
368
272
112
-48
-224
-352
-496
-624
-848
-960
-288
16
0
0
-16
0
208
960
656
464
368
288
144
-16
-176
-320
-448
-576
-816
-960
-320
16
-16
0
0
-16
176
944
720
544
432
336
192
48
-128
-256
-400
-512
-736
-880
-304
16
-16
0
-16
0
160
944
752
544
432
368
208
48
-128
-272
-400
-512
-752
-944
-352
16
-16
0
0
0
144
928
752
528
416
336
176
16
-144
-288
-448
-576
-800
-976
-384
16
0
0
0
0
112
896
736
496
384
320
160
0
-160
-320
-496
-608
-832
-1008
-448
0
-16
0
0
-16
96
848
736
480
368
288
144
-16
-160
-304
-480
-592
-800
-1008
-480
0
-16
-16
0
-16
80
832
800
512
400
304
160
16
-128
-272
-448
-560
-768
-976
-480
0
-16
-16
-16
-16
64
784
816
528
432
352
192
16
-112
-272
-416
-512
-720
-944
-512
0
0
0
-16
-16
64
768
816
512
400
320
176
16
-128
-272
-432
-544
-736
-944
-528
0
0
-16
-16
-16
48
720
848
528
432
352
192
32
-112
-256
-400
-496
-672
-896
-544
0
0
0
-16
0
32
672
832
512
400
336
192
16
-112
-256
-416
-528
-720
-960
-656
-16
0
-16
0
0
32
672
880
528
400
304
176
0
-160
-288
-416
-512
-704
-976
-688
-32
0
0
0
0
16
624
864
512
400
352
192
16
-144
-304
-432
-528
-704
-1008
-768
-48
0
0
0
0
16
608
896
512
400
336
208
32
-128
-288
-432
-576
-752
-1008
-784
-48
0
0
0
-16
16
560
928
544
448
384
240
64
-96
-240
-384
-512
-688
-960
-784
-64
0
0
-16
-16
0
528
976
608
496
416
272
112
-48
-208
-368
-496
-672
-928
-800
-80
0
-16
-16
-16
0
512
1024
640
512
432
288
112
-48
-208
-352
-464
-640
-896
-816
-96
0
0
-16
-16
0
480
1040
656
528
448
336
144
-32
-208
-352
-480
-640
-912
-864
-112
0
-16
-16
-16
0
448
1056
656
512
448
320
144
-32
-192
-352
-496
-656
-928
-880
-144
0
-16
0
-16
0
400
1040
656
528
432
336
160
-16
-192
-336
-480
-640
-912
-896
-160
0
0
0
0
0
368
1056
688
544
448
352
176
16
-160
-320
-448
-624
-880
-944
-192
0
-16
0
0
0
320
1072
736
576
480
384
208
32
-160
-288
-416
-576
-832
-880
-192
0
0
-16
-16
0
288
1040
752
592
496
400
208
32
-160
-304
-432
-592
-848
-960
-240
16
0
0
0
0
256
1040
720
544
448
352
208
32
-144
-272
-432
-576
-800
-912
-240
16
0
0
-16
-16
224
1024
752
576
464
384
208
48
-144
-288
-448
-576
-816
-944
-288
16
-16
0
0
0
208
1008
752
544
448
352
208
48
-128
-288
-448
-592
-816
-992
-336
16
-16
-16
-16
0
176
992
768
560
464
368
208
48
-128
-272
-432
-576
-816
-976
-368
16
0
0
-16
0
144
960
768
544
448
384
208
48
-128
-288
-448
-592
-816
-1024
-416
16
0
-16
-16
0
128
944
784
528
416
352
192
32
-144
-288
-464
-576
-800
-992
-432
16
0
-16
-16
-16
112
912
816
544
432
336
208
32
-144
-288
-432
-528
-752
-960
-464
0
-16
0
0
-16
96
864
816
544
432
352
208
48
-112
-288
-432
-544
-752
-976
-512
0
-16
0
-16
-16
80
832
880
592
480
400
256
96
-80
-224
-352
-464
-672
-912
-496
0
-16
-16
-16
0
64
800
928
640
528
448
304
128
-32
-192
-336
-448
-656
-928
-544
0
0
0
0
0
48
784
928
624
496
416
272
112
-32
-192
-352
-448
-656
-928
-576
0
0
-16
0
0
32
752
960
624
480
400
256
80
-80
-224
-368
-480
-688
-944
-624
-16
0
0
0
-16
32
704
928
560
432
352
224
48
-96
-256
-416
-528
-720
-976
-704
-32
0
0
-16
-16
16
656
944
560
432
352
208
48
-112
-256
-416
-528
-720
-960
-720
-32
0
-16
-16
-16
16
608
960
560
448
368
240
64
-96
-240
-400
-528
-704
-960
-768
-48
0
-16
-16
-16
16
560
960
560
448
352
224
64
-96
-240
-400
-544
-704
-944
-768
-64
0
-16
0
-16
0
512
976
576
464
384
256
80
-80
-240
-384
-512
-656
-912
-768
-64
0
0
0
0
0
480
992
592
480
400
272
96
-48
-192
-336
-432
-592
-832
-768
-80
0
0
0
0
0
432
1008
672
560
480
336
160
16
-128
-256
-400
-560
-800
-736
-80
0
0
-16
-16
0
416
1024
656
528
448
320
128
-16
-176
-320
-448
-592
-864
-864
-144
0
0
-16
0
0
384
1008
624
496
400
288
96
-64
-224
-352
-512
-672
-928
-928
-176
0
0
0
-16
0
368
1040
624
480
368
272
80
-112
-288
-416
-560
-704
-976
-1024
-224
0
-16
0
-16
0
320
1024
576
448
352
256
64
-112
-272
-416
-544
-688
-944
-1024
-256
0
-16
0
-16
0
288
1056
656
496
384
272
112
-64
-240
-384
-528
-688
-944
-1008
-272
0
-16
-16
-16
0
240
1008
672
496
400
320
128
-48
-224
-368
-496
-624
-864
-1008
-288
0
-16
0
-16
-16
224
1008
688
496
400
304
144
-32
-208
-368
-544
-688
-944
-1040
-320
16
0
0
0
-16
192
976
704
512
432
336
160
-16
-208
-352
-528
-640
-880
-1008
-352
16
0
0
0
0
160
960
736
512
416
336
176
0
-176
-336
-464
-592
-832
-1008
-400
0
0
-16
0
0
144
960
816
592
480
384
208
48
-128
-272
-416
-544
-752
-944
-400
0
-16
0
0
0
128
944
832
592
480
400
240
64
-112
-256
-400
-512
-736
-976
-448
0
-16
0
0
0
112
928
864
592
496
416
240
80
-96
-256
-400
-528
-752
-976
-480
0
0
-16
-16
0
96
880
864
592
480
416
256
96
-96
-256
-416
-528
-752
-976
-496
0
0
0
-16
-16
64
832
880
576
464
384
240
96
-64
-240
-384
-496
-720
-960
-544
0
0
-16
-16
-16
64
816
912
592
480
400
256
96
-64
-208
-352
-464
-672
-928
-544
0
0
-16
-16
-16
48
784
944
624
512
448
304
128
-16
-192
-336
-448
-656
-912
-560
0
0
0
0
-16
32
736
960
592
480
416
288
112
-32
-192
-368
-496
-704
-944
-624
-16
0
0
-16
-16
32
672
960
624
512
448
304
144
0
-160
-336
-448
-640
-880
-608
0
0
-16
-16
-16
16
640
992
640
512
432
304
144
16
-144
-320
-432
-640
-912
-704
-32
0
-16
0
0
16
608
1008
656
528
432
304
144
0
-160
-304
-416
-608
-896
-704
-32
0
-16
0
0
16
576
1008
672
528
448
320
144
0
-160
-320
-432
-608
-896
-768
-48
0
-16
0
0
0
528
1024
640
512
432
304
128
-32
-176
-336
-480
-656
-928
-800
-80
0
0
-16
-16
0
480
1008
672
544
448
336
144
-16
-176
-320
-464
-624
-880
-784
-80
0
0
-16
-16
0
448
1056
688
560
464
336
160
0
-160
-288
-416
-560
-832
-800
-112
0
-16
-16
-16
0
416
1072
736
592
480
368
176
0
-144
-272
-400
-544
-800
-784
-112
0
-16
-16
-16
0
384
1056
720
576
480
368
176
16
-160
-288
-400
-544
-800
-832
-144
0
-16
-16
0
0
336
1024
688
560
464
352
160
0
-160
-304
-448
-592
-832
-864
-160
0
0
0
0
0
304
1008
704
560
464
368
192
16
-160
-304
-448
-576
-832
-880
-192
16
0
0
0
0
272
1008
704
544
448
352
176
16
-160
-288
-432
-576
-816
-912
-224
16
0
0
0
0
240
1008
736
576
464
368
192
16
-160
-272
-384
-496
-720
-832
-208
16
-16
0
0
0
208
1008
784
608
512
448
272
112
-48
-176
-272
-368
-560
-656
-112
32
-16
-16
-16
-16
192
1056
1104
880
768
688
512
352
192
80
-16
-80
-256
-320
80
48
0
-16
-16
-16
176
1376
1792
1424
1312
1200
1008
848
672
560
464
416
304
288
480
80
0
-16
-16
0
224
2000
624
176
48
1888
1664
1472
1296
1152
1072
1040
928
912
864
128
-16
0
-16
0
256
512
1376
928
704
432
144
1952
1728
1568
1440
1392
1280
1248
1104
160
0
0
-16
-16
240
672
1536
1104
816
544
240
2000
1760
1552
1408
1328
1200
1088
1024
176
0
-16
-16
0
176
192
944
576
256
0
1728
1456
1200
976
752
608
384
176
448
160
0
0
-16
-16
48
1088
1584
1248
1008
832
608
368
128
-112
-352
-560
-848
-1152
-432
96
0
-16
-16
-16
-48
-96
-48
-304
-416
-448
-608
-784
-960
-1168
-1392
-1600
-1904
-224
-1248
16
0
-16
0
0
-80
-640
-816
-992
-1024
-976
-1056
-1184
-1312
-1472
-1632
-1792
-2048
-320
-1344
0
0
-16
0
-16
-64
-528
-720
-912
-992
-944
-1072
-1216
-1360
-1536
-1680
-1824
-16
-352
-1536
-48
0
-16
0
0
-32
-256
-320
-480
-576
-512
-592
-704
-816
-928
-1040
-1120
-1280
-1488
-864
48
0
0
0
-16
0
480
1024
816
656
592
432
256
112
-48
-160
-224
-352
-528
-144
192
0
0
0
-16
0
800
1680
1424
1216
1088
896
672
496
320
160
64
-80
-288
0
224
0
0
-16
-16
0
848
1920
1648
1456
1296
1088
880
720
560
432
368
256
96
336
320
0
-16
-16
0
0
992
432
176
1952
1744
1520
1280
1088
912
784
720
656
512
688
448
0
0
0
0
-16
928
912
672
288
32
1808
1536
1312
1136
1008
928
864
736
880
528
0
0
-16
-16
-16
752
912
736
336
48
1808
1488
1248
1024
880
768
688
512
624
496
16
0
0
0
-16
480
208
48
1712
1456
1200
896
656
416
224
80
-96
-352
-224
304
16
0
-16
-16
-16
80
1072
944
672
496
304
64
-160
-368
-544
-736
-912
-1232
-1040
112
16
-16
-16
-16
-16
-144
224
128
-16
-112
-224
-416
-592
-768
-928
-1088
-1264
-1552
-1376
16
32
0
-16
-16
-16
-160
128
32
-112
-208
-304
-496
-672
-832
-976
-1136
-1296
-1568
-1408
-32
32
-16
-16
-16
-16
-128
160
112
-48
-144
-240
-448
-624
-816
-960
-1136
-1280
-1536
-1456
-80
32
-16
0
0
-16
-128
80
64
-112
-192
-304
-496
-672
-864
-1024
-1200
-1376
-1648
-1648
-208
48
0
0
0
0
-144
-64
-48
-240
-320
-416
-608
-800
-976
-1136
-1344
-1504
-1792
-1824
-320
48
-16
0
0
-16
-144
-176
-128
-320
-368
-432
-624
-800
-976
-1120
-1280
-1440
-1712
-1840
-400
48
-16
-16
-16
-16
-96
-64
-16
-240
-288
-352
-528
-736
-912
-1056
-1216
-1360
-1632
-1776
-464
64
0
-16
-16
0
-80
-32
48
-176
-240
-288
-464
-656
-848
-1008
-1168
-1312
-1600
-1792
-560
48
-16
-16
-16
-16
-64
-32
16
-192
-256
-288
-432
-592
-784
-944
-1088
-1248
-1504
-1744
-640
48
0
0
0
0
-48
80
208
0
-80
-112
-272
-432
-608
-768
-928
-1040
-1280
-1504
-528
64
-16
0
0
0
-16
368
592
368
256
224
64
-128
-304
-464
-592
-688
-880
-1088
-320
96
0
0
0
-16
16
752
1184
912
752
656
448
240
48
-112
-240
-304
-464
-624
-48
128
-16
-16
0
0
32
1024
1648
1360
1152
992
752
528
304
128
-16
-96
-240
-384
112
160
0
-16
-16
-16
16
1056
1808
1472
1232
1040
800
576
352
160
0
-80
-224
-384
48
176
0
0
-16
-16
0
880
1696
1376
1120
928
704
464
240
48
-112
-224
-384
-576
-112
176
0
0
-16
0
-16
608
1360
1024
800
656
432
192
-16
-224
-400
-512
-704
-944
-464
144
0
0
0
0
-16
256
816
512
320
224
48
-160
-368
-576
-752
-896
-1120
-1424
-880
80
0
-16
0
-16
-32
-64
224
0
-160
-192
-336
-528
-704
-912
-1120
-1296
-1552
-1904
-1376
-16
0
-16
0
0
-32
-336
-400
-576
-736
-704
-800
-928
-1088
-1280
-1504
-1680
-1968
-336
-1936
-192
0
0
0
-16
-16
-512
-912
-1024
-1152
-1120
-1136
-1232
-1360
-1536
-1728
-1936
-160
-576
-224
-336
0
0
-16
0
-16
-480
-1008
-1104
-1216
-1184
-1136
-1232
-1344
-1504
-1664
-1824
-16
-400
-176
-368
0
0
-16
-16
-16
-240
-560
-688
-784
-800
-800
-896
-992
-1152
-1296
-1456
-1632
-1936
-1760
-288
0
0
-16
-16
-16
64
224
64
-96
-176
-224
-384
-512
-656
-800
-944
-1072
-1328
-1216
-160
0
-16
-16
-16
0
256
800
592
384
256
128
-64
-208
-368
-528
-656
-800
-1056
-1056
-160
16
-16
0
0
0
288
928
720
512
368
224
16
-160
-320
-464
-608
-752
-1008
-1040
-176
16
0
-16
-16
0
256
928
752
544
416
288
80
-112
-272
-416
-544
-672
-912
-960
-144
16
-16
-16
-16
-16
256
1104
992
752
624
480
256
64
-96
-224
-384
-480
-688
-672
-16
32
-16
-16
-16
-16
288
1408
1360
1088
928
752
512
288
112
-32
-176
-256
-432
-432
96
32
-16
-16
-16
-16
288
1584
1584
1264
1072
896
624
400
208
48
-96
-192
-384
-416
80
48
-16
0
0
0
240
1504
1568
1248
1056
848
576
336
128
-32
-192
-304
-512
-608
16
48
0
0
0
0
160
1232
1328
1024
848
688
432
192
-16
-192
-352
-480
-720
-912
-176
48
0
0
0
0
80
896
1008
736
560
432
208
0
-224
-384
-576
-720
-992
-1200
-400
48
-16
0
-16
-16
32
608
720
480
320
224
32
-176
-400
-560
-736
-880
-1152
-1440
-608
32
-16
-16
-16
0
0
352
448
240
96
16
-128
-320
-512
-688
-848
-1008
-1280
-1600
-800
16
0
0
-16
-16
0
272
384
192
32
-32
-176
-384
-576
-752
-928
-1056
-1328
-1632
-864
16
-16
-16
0
0
0
272
368
176
32
-32
-160
-352
-544
-736
-912
-1056
-1296
-1648
-976
0
0
0
0
-16
0
240
304
112
-16
-96
-224
-384
-576
-768
-976
-1136
-1392
-1744
-1136
-48
0
-16
-16
0
16
192
80
-48
-160
-240
-336
-480
-656
-864
-1072
-1232
-1504
-1920
-1392
-112
0
-16
-16
0
16
192
-288
-368
-368
-432
-528
-624
-768
-960
-1168
-1344
-1632
-16
-1632
-192
0
-16
-16
0
16
288
-208
-464
-400
-416
-528
-608
-752
-928
-1104
-1280
-1552
-1952
-1568
-208
0
-16
0
-16
16
432
160
-144
-80
-96
-224
-320
-448
-608
-784
-928
-1136
-1472
-1216
-144
0
0
0
-16
16
528
816
560
464
416
288
128
-16
-192
-336
-464
-624
-832
-656
-16
0
0
0
-16
0
576
1568
1360
1088
992
848
592
416
224
80
-16
-144
-288
-160
128
0
0
0
0
0
640
2016
1824
1456
1312
1152
864
640
448
288
192
64
-80
0
192
0
0
-16
0
0
656
96
1888
1520
1376
1184
880
656
448
288
176
32
-144
-48
192
0
0
0
-16
0
608
1952
1648
1328
1200
1008
736
528
304
128
-16
-176
-384
-336
112
16
-16
-16
0
0
512
1600
1344
1072
944
752
512
320
112
-64
-208
-368
-624
-576
16
16
-16
0
0
0
368
1280
1104
864
736
576
352
160
-32
-208
-352
-512
-784
-784
-64
16
-16
-16
0
0
256
1040
896
656
528
400
192
16
-176
-352
-512
-688
-992
-1088
-192
16
-16
-16
-16
-16
144
704
576
368
256
128
-32
-208
-400
-576
-784
-992
-1344
-1488
-432
16
-16
0
-16
0
64
224
64
-80
-176
-256
-384
-528
-704
-896
-1136
-1376
-1792
-32
-784
0
0
0
-16
-16
32
-128
-672
-592
-624
-688
-752
-864
-1024
-1200
-1456
-1696
-80
-400
-1088
-32
0
0
-16
-16
48
-32
-880
-816
-768
-800
-864
-944
-1088
-1248
-1456
-1664
-32
-336
-1152
-48
-16
-16
-16
-16
96
336
-528
-544
-496
-528
-624
-688
-816
-960
-1120
-1296
-1632
-1904
-960
-32
-16
-16
-16
0
128
736
256
128
96
32
-112
-224
-384
-512
-672
-784
-1024
-1248
-608
-16
-16
-16
-16
-16
112
944
960
720
592
496
304
128
-32
-176
-304
-400
-592
-848
-400
0
0
0
0
0
96
944
1200
960
784
672
464
256
64
-80
-240
-336
-544
-800
-416
0
0
-16
0
0
80
896
1136
880
704
608
416
208
0
-160
-320
-432
-656
-944
-576
-16
0
0
0
0
64
848
976
656
544
448
272
96
-80
-240
-416
-544
-768
-1088
-720
-32
-16
-16
-16
-16
48
800
944
624
528
448
272
112
-64
-224
-400
-528
-720
-1008
-656
-32
0
-16
-16
0
48
768
1104
848
704
640
448
240
80
-96
-240
-352
-512
-784
-496
16
0
-16
-16
0
32
752
1408
1152
928
832
640
400
208
32
-112
-208
-336
-560
-336
48
0
0
-16
0
32
736
1632
1344
1088
976
784
512
304
112
-32
-128
-256
-464
-304
48
0
0
0
-16
16
704
1632
1312
1040
928
736
480
272
80
-80
-192
-352
-608
-480
16
0
-16
-16
-16
16
640
1408
1088
848
736
560
336
128
-64
-256
-400
-592
-880
-736
-32
0
-16
-16
-16
0
544
1072
784
624
528
352
144
-32
-240
-432
-576
-784
-1120
-1024
-112
0
-16
-16
0
0
464
768
496
368
288
144
-32
-208
-416
-592
-768
-992
-1344
-1280
-224
0
-16
-16
0
0
400
512
112
128
80
-80
-224
-384
-592
-768
-944
-1168
-1552
-1536
-368
0
0
0
-16
0
384
496
-224
-144
-160
-272
-384
-512
-688
-880
-1072
-1296
-1696
-1744
-496
0
0
0
0
0
352
624
-304
-256
-224
-336
-448
-528
-704
-880
-1056
-1296
-1664
-1712
-560
0
-16
-16
-16
0
336
816
-64
-96
-48
-128
-256
-352
-512
-672
-832
-1024
-1328
-1424
-464
0
0
0
0
0
304
1024
560
432
416
336
176
32
-128
-272
-416
-560
-768
-832
-208
0
-16
-16
0
0
288
1168
1344
1136
1008
896
688
496
304
176
48
-32
-176
-240
80
16
0
0
0
0
256
1424
2016
1616
1408
1280
1024
800
608
448
352
256
160
96
256
32
0
-16
0
0
256
1728
336
1888
1632
1488
1184
928
720
576
448
368
256
224
352
48
0
0
0
0
272
1920
336
1872
1632
1488
1136
896
688
512
384
288
144
80
304
64
0
0
-16
-16
256
1872
80
1664
1440
1280
976
720
528
352
160
48
-144
-208
160
64
-16
-16
-16
0
192
1488
1648
1312
1088
928
640
432
208
16
-176
-320
-576
-768
-192
48
-16
0
0
-16
96
784
848
592
416
288
112
-80
-272
-464
-672
-864
-1184
-1536
-752
0
-16
-16
-16
-16
16
144
0
-112
-208
-288
-400
-560
-736
-912
-1120
-1328
-1680
-64
-1216
-48
-16
0
-16
-16
0
-80
-576
-528
-544
-560
-624
-752
-880
-1056
-1264
-1456
-1792
-192
-1376
-80
0
0
-16
-16
16
96
-400
-384
-384
-416
-496
-608
-736
-896
-1072
-1216
-1488
-1840
-1152
-64
0
0
0
0
32
448
192
128
64
0
-128
-256
-416
-560
-736
-864
-1088
-1392
-880
-48
0
-16
0
0
48
688
672
448
336
256
96
-64
-240
-400
-576
-704
-928
-1248
-864
-48
0
-16
0
-16
32
720
800
416
320
256
80
-96
-272
-464
-624
-768
-1008
-1376
-1056
-112
0
-16
0
-16
32
672
688
160
144
112
-64
-208
-368
-560
-736
-896
-1152
-1536
-1248
-160
0
-16
-16
0
16
624
720
160
160
144
-16
-128
-272
-448
-608
-736
-944
-1248
-1008
-112
0
0
-16
-16
16
592
1072
800
672
592
448
272
96
-64
-224
-336
-464
-672
-480
32
0
0
0
0
0
624
1712
1552
1232
1104
928
656
448
272
144
64
-32
-176
-80
144
0
-16
-16
-16
0
656
48
2000
1568
1392
1184
880
624
416
240
128
0
-176
-96
160
0
0
0
-16
0
560
1824
1632
1232
1072
864
560
320
96
-112
-288
-496
-816
-832
-96
0
0
0
0
0
416
864
480
352
256
96
-80
-272
-496
-704
-928
-1200
-1616
-1632
-416
0
-16
0
0
0
304
320
-272
-176
-192
-304
-400
-528
-720
-880
-1056
-1280
-1680
-1712
-464
0
-16
-16
0
0
256
336
-32
16
-16
-112
-224
-352
-528
-672
-800
-976
-1280
-1360
-352
0
-16
-16
-16
0
288
896
736
576
480
352
176
16
-176
-320
-448
-576
-800
-896
-192
16
0
-16
-16
0
288
1072
848
624
496
320
96
-80
-288
-480
-656
-848
-1168
-1392
-528
0
0
-16
0
0
240
992
336
144
112
0
-192
-320
-512
-688
-880
-1072
-1440
-1664
-736
-16
0
0
0
-16
208
864
-96
-320
-288
-368
-512
-608
-800
-960
-1184
-1408
-1792
-2032
-992
-32
0
0
0
-16
176
816
-80
-304
-192
-208
-336
-400
-544
-688
-848
-976
-1248
-1472
-672
-16
0
0
-16
-16
160
992
912
752
688
624
480
320
176
48
-96
-160
-272
-352
32
48
-16
-16
-16
-16
160
1392
272
1936
1680
1552
1280
1024
832
672
544
512
448
368
496
96
0
-16
0
0
144
1520
560
160
1824
1648
1344
1024
784
592
384
256
96
-112
112
48
-16
-16
-16
-16
112
960
1184
912
672
512
272
48
-192
-432
-720
-976
-1408
-1872
-1312
-128
0
-16
0
0
80
688
-96
-1376
-1280
-1216
-1328
-1408
-1488
-1696
-1968
-288
-832
-1424
-608
-352
0
0
0
0
48
384
-640
-2048
-2000
-1744
-1728
-1696
-1680
-1776
-1952
-128
-560
-992
-224
-288
-16
-16
0
-16
48
560
-16
-928
-720
-592
-624
-640
-688
-768
-880
-944
-1152
-1456
-1008
-96
0
0
0
0
48
784
1072
1104
1040
976
832
672
496
384
304
304
256
96
256
112
0
-16
0
0
32
736
1424
192
48
1840
1632
1376
1104
928
800
800
752
544
592
192
0
-16
0
0
32
688
1504
240
0
1792
1568
1264
992
784
608
496
400
160
192
128
0
0
-16
-16
16
672
1600
1872
1504
1344
1152
880
656
480
304
176
48
-160
-64
96
0
0
-16
-16
16
656
1632
1536
1216
1088
896
640
432
240
64
-96
-256
-528
-448
16
0
0
0
-16
0
592
1408
1216
976
880
720
496
288
112
-32
-176
-336
-560
-432
48
0
-16
-16
-16
0
592
1696
1408
1136
1024
848
592
368
176
32
-96
-256
-496
-400
64
0
-16
-16
0
0
576
1648
1360
1120
1008
832
576
368
176
32
-80
-240
-464
-400
80
0
0
0
0
0
592
1888
1616
1344
1232
1024
768
560
368
240
160
64
-64
96
272
16
0
0
-16
0
800
560
320
2032
1872
1584
1248
1008
800
688
640
608
528
704
560
16
0
0
0
0
928
1280
1040
656
384
0
1664
1376
1120
1008
944
960
944
1184
784
32
0
-16
-16
0
848
1520
1344
912
528
80
1712
1376
1104
928
832
816
720
864
688
48
-16
-16
-16
-16
544
736
608
192
1872
1520
1152
848
560
352
192
80
-128
-128
320
48
-16
-16
0
-16
160
1376
1344
1008
784
560
272
32
-240
-464
-688
-880
-1216
-1312
-176
32
0
0
0
0
-128
-16
16
-224
-272
-320
-512
-704
-928
-1168
-1424
-1696
-64
-304
-704
32
0
-16
0
0
-272
-976
-992
-1104
-1088
-1008
-1104
-1232
-1440
-1648
-1920
-144
-592
-960
-1184
0
0
0
0
0
-288
-1392
-1488
-1520
-1488
-1376
-1376
-1488
-1648
-1840
-32
-272
-720
-1136
-1456
-16
0
-16
-16
0
-208
-1168
-1360
-1344
-1360
-1264
-1248
-1328
-1472
-1648
-1824
-2032
-352
-752
-1376
-32
-16
0
-16
0
-96
-512
-656
-704
-752
-768
-784
-896
-1040
-1184
-1360
-1504
-1792
-48
-1024
-16
-16
0
-16
-16
16
304
288
112
16
-64
-208
-368
-544
-704
-880
-992
-1216
-1440
-688
16
-16
-16
-16
0
64
816
960
656
480
368
160
-32
-208
-384
-560
-672
-864
-1024
-448
32
0
-16
0
-16
80
1008
1312
976
768
624
384
176
-16
-192
-368
-464
-656
-816
-352
48
0
0
-16
-16
64
1040
1472
1104
864
720
496
272
96
-96
-240
-336
-512
-720
-304
80
0
0
0
-16
48
992
1520
1168
928
800
544
304
112
-64
-224
-336
-528
-720
-304
96
0
-16
0
-16
32
960
1568
1216
960
848
592
336
128
-48
-224
-352
-528
-736
-336
112
0
0
0
-16
16
864
1536
1184
944
800
544
304
96
-80
-272
-400
-576
-784
-400
96
0
-16
-16
0
16
768
1520
1200
928
784
544
288
64
-128
-288
-416
-592
-848
-528
80
0
0
-16
0
0
624
1376
1072
800
640
432
176
-32
-240
-384
-480
-672
-992
-752
48
0
-16
-16
0
0
496
1264
976
736
592
400
160
-64
-256
-416
-496
-672
-928
-672
80
0
-16
0
-16
-16
464
1376
1104
848
704
512
240
32
-176
-352
-464
-608
-864
-624
96
0
0
0
-16
-16
448
1440
1168
896
736
512
272
48
-160
-352
-496
-656
-896
-672
80
16
0
0
-16
-16
320
1200
976
720
544
368
128
-96
-320
-512
-720
-912
-1200
-1104
-96
16
0
-16
0
-16
96
624
432
240
96
-48
-208
-416
-624
-832
-1040
-1280
-1696
-1808
-384
16
-16
-16
0
-16
-128
-96
-176
-256
-320
-384
-464
-624
-816
-1008
-1232
-1472
-1920
-48
-576
0
-16
0
0
-16
-176
-320
-352
-384
-368
-400
-448
-544
-720
-912
-1120
-1376
-1840
-64
-656
0
-16
0
0
-16
-96
-176
-192
-208
-176
-208
-256
-352
-512
-688
-912
-1152
-1584
-1840
-624
0
-16
-16
0
-16
32
192
128
112
128
80
-16
-128
-304
-464
-656
-848
-1184
-1392
-448
16
0
-16
-16
-16
160
880
896
752
656
576
384
208
32
-112
-224
-320
-496
-576
0
48
0
-16
-16
0
288
1904
0
1696
1472
1312
960
688
448
320
240
240
176
288
544
80
0
0
-16
0
336
496
784
240
1968
1712
1264
928
672
496
416
416
400
496
688
112
0
0
0
-16
272
400
784
208
1888
1616
1152
816
544
352
224
176
80
112
448
112
-16
0
0
0
144
1760
144
1728
1424
1200
832
512
272
64
-80
-160
-320
-416
160
112
-16
-16
0
0
48
1392
1968
1552
1312
1072
736
464
240
48
-64
-96
-192
-256
288
160
-16
-16
-16
-16
16
1536
608
144
1824
1488
1120
784
528
368
272
320
336
448
832
240
0
-16
-16
-16
0
1840
1648
1024
464
0
1552
1136
848
672
592
672
784
960
1216
320
0
0
-16
-16
-16
1760
16
1360
672
112
1616
1152
816
608
512
576
672
864
1200
352
0
-16
-16
-16
-32
1200
1584
960
288
1824
1280
832
480
240
112
112
128
176
720
336
0
0
0
0
-48
560
432
2032
1472
1088
656
272
-32
-288
-448
-512
-640
-784
-48
288
0
0
0
0
-48
16
1232
944
560
320
0
-320
-576
-832
-1040
-1200
-1440
-1744
-816
192
0
0
-16
-16
-48
-336
96
-80
-304
-432
-624
-864
-1088
-1344
-1600
-1840
-128
-608
-1696
64
0
0
0
0
-32
-576
-880
-1072
-1136
-1088
-1184
-1376
-1568
-1824
-64
-384
-800
-1392
-480
-112
0
0
0
-16
-32
-720
-1664
-1824
-1792
-1680
-1632
-1696
-1856
-48
-352
-720
-1168
-1856
-1168
-336
0
-16
0
-16
-16
-848
-176
-224
-112
-1984
-1936
-1984
-2048
-176
-480
-848
-1344
-64
-1712
-608
0
0
0
0
-16
-880
-304
-272
-160
-2048
-1952
-1984
-48
-240
-496
-832
-1264
-1904
-1728
-800
0
-16
-16
0
-16
-784
-16
-1968
-1888
-1760
-1696
-1792
-1904
-48
-272
-544
-928
-1504
-1520
-928
0
0
0
-16
-16
-560
-1552
-1568
-1488
-1376
-1344
-1472
-1632
-1840
-2048
-240
-544
-1008
-1104
-992
0
0
-16
-16
-16
-240
-816
-1056
-944
-880
-848
-976
-1136
-1344
-1520
-1712
-1968
-288
-448
-880
-16
0
-16
-16
-16
16
-32
-400
-368
-368
-400
-544
-688
-880
-1072
-1248
-1456
-1808
-2000
-752
-16
0
-16
0
0
160
608
400
272
192
96
-96
-272
-464
-624
-800
-928
-1200
-1312
-432
0
0
0
0
0
240
1296
1280
944
752
592
336
112
-96
-256
-416
-512
-736
-832
-176
16
-16
-16
0
0
240
1552
1696
1232
992
800
512
256
16
-160
-368
-480
-736
-880
-256
16
-16
0
0
0
176
1200
1328
944
752
592
352
112
-128
-320
-560
-752
-1104
-1424
-720
-16
-16
-16
-16
-16
112
704
256
112
128
80
-80
-256
-448
-672
-960
-1232
-1680
-144
-1376
-96
-16
0
-16
-16
80
448
-176
-656
-448
-352
-432
-560
-736
-944
-1216
-1520
-2000
-560
-1824
-176
-16
-16
-16
-16
64
528
-48
-832
-656
-448
-480
-592
-752
-944
-1200
-1456
-1920
-464
-1888
-224
-16
-16
-16
-16
80
768
528
-432
-432
-208
-272
-384
-544
-720
-944
-1168
-1536
-2032
-1600
-224
0
0
-16
-16
64
880
1056
176
-32
128
32
-96
-272
-464
-688
-880
-1216
-1664
-1360
-224
0
0
0
-16
64
832
1152
560
176
288
176
32
-144
-336
-560
-768
-1072
-1520
-1328
-256
0
0
0
0
48
784
1168
704
192
288
192
32
-144
-336
-560
-768
-1104
-1568
-1440
-320
-16
0
0
0
32
752
1184
752
160
256
176
16
-128
-336
-544
-736
-1056
-1536
-1488
-384
-16
-16
-16
-16
32
704
1184
800
240
320
256
112
-32
-224
-416
-592
-880
-1280
-1264
-352
-16
-16
0
-16
16
672
1216
928
736
736
624
448
304
128
-48
-176
-368
-656
-608
-160
-16
-16
-16
-16
16
608
1184
1184
1552
1360
1152
928
736
560
416
352
224
16
80
96
0
0
0
0
0
576
1264
1760
208
1888
1584
1296
1072
864
720
640
528
384
496
272
0
0
0
-16
0
544
1408
80
352
2000
1680
1360
1104
880
704
592
464
256
288
240
0
-16
0
0
0
512
1424
2000
1952
1632
1376
1072
848
656
512
272
32
-256
-272
32
0
-16
0
0
0
464
1344
1488
1264
1088
912
672
464
272
128
-160
-432
-816
-944
-256
0
0
0
0
0
400
1152
672
560
512
432
256
80
-128
-336
-560
-832
-1264
-1536
-576
-16
0
0
0
0
352
1072
192
32
112
96
-48
-208
-432
-656
-864
-1104
-1584
-1936
-880
-32
0
0
-16
0
320
1056
64
-496
-256
-224
-336
-464
-688
-944
-1168
-1424
-1952
-400
-1296
-64
0
-16
-16
0
272
1104
272
-976
-864
-672
-720
-816
-992
-1232
-1520
-1856
-368
-928
-1712
-112
-16
-16
0
0
256
1136
640
-848
-1520
-1200
-1152
-1200
-1344
-1536
-1856
-176
-800
-1312
-1840
-128
-16
-16
0
-16
224
1136
928
-368
-1552
-1456
-1264
-1280
-1376
-1568
-1840
-128
-704
-1104
-1712
-144
-16
0
-16
-16
192
1120
1120
288
-1072
-1296
-1056
-1040
-1120
-1248
-1424
-1648
-2048
-320
-1344
-128
-16
-16
-16
0
160
1056
1136
736
224
352
352
288
224
144
64
48
-64
-240
-336
-80
0
-16
-16
0
128
1008
1216
32
1008
800
448
288
144
64
64
208
352
368
1648
192
0
-16
-16
0
160
1776
1232
176
960
768
128
1728
1424
1296
1280
1488
1744
1968
864
384
0
-16
-16
0
208
608
448
1232
1728
1264
480
1968
1584
1376
1328
1472
1648
1888
1104
480
0
-16
-16
0
192
1008
1136
1232
944
288
1664
1104
704
464
336
384
448
624
352
432
0
-16
0
-16
144
736
672
112
1520
1024
464
2032
1696
1456
1312
1312
1280
1296
1360
352
0
0
0
-16
48
1968
1600
1024
528
112
1696
1312
1008
800
656
608
528
448
768
304
0
0
-16
-16
-32
1136
768
352
1936
1584
1200
848
560
336
160
80
-64
-224
224
256
0
0
0
0
-48
512
1840
1488
1136
912
608
304
48
-192
-400
-560
-784
-1120
-608
160
0
-16
-16
0
-48
-16
656
384
208
144
-48
-288
-512
-752
-992
-1232
-1568
-2048
-1488
-16
0
0
-16
0
-48
-496
-592
-752
-816
-704
-736
-896
-1056
-1296
-1568
-1856
-208
-832
-336
-224
0
0
0
0
-32
-832
-1504
-1504
-1472
-1328
-1232
-1296
-1440
-1664
-1936
-224
-656
-1328
-1008
-464
0
-16
-16
-16
-32
-992
-2032
-1936
-1840
-1664
-1568
-1568
-1664
-1888
-96
-432
-864
-1584
-1392
-720
0
0
-16
-16
-16
-848
-16
-1968
-1824
-1680
-1584
-1600
-1616
-1792
-2032
-256
-656
-1296
-1216
-784
0
-16
-16
-16
-16
-448
-1200
-1232
-1104
-1040
-1056
-1136
-1168
-1328
-1520
-1728
-2000
-432
-384
-608
0
-16
-16
-16
-16
-32
-80
-208
-272
-272
-384
-560
-640
-816
-992
-1152
-1344
-1712
-1712
-448
0
0
0
0
0
224
704
480
320
240
112
-128
-272
-464
-624
-784
-928
-1184
-1200
-288
0
-16
0
0
0
320
1392
1232
944
784
608
368
144
-80
-240
-384
-448
-592
-576
32
32
0
0
-16
0
432
32
1952
1552
1296
1056
800
496
272
112
16
0
-32
0
320
48
0
0
-16
0
480
576
544
16
1712
1424
1136
768
512
368
288
304
304
416
560
64
0
-16
0
-16
448
704
752
176
1824
1536
1168
800
528
368
272
256
224
288
544
80
0
0
-16
-16
320
320
448
1952
1568
1296
912
560
272
96
-32
-96
-224
-208
288
80
0
-16
-16
-16
144
1680
1904
1440
1136
928
560
256
0
-192
-416
-544
-752
-832
-64
80
-16
-16
0
0
32
1040
1312
928
688
496
240
-16
-256
-464
-704
-864
-1120
-1360
-432
64
-16
0
0
0
-16
560
848
528
336
176
-48
-240
-464
-672
-912
-1104
-1408
-1712
-752
48
-16
-16
0
0
-64
176
448
192
64
-64
-288
-432
-624
-848
-1072
-1264
-1600
-16
-1104
16
-16
0
-16
-16
-64
-112
80
-112
-224
-288
-512
-656
-800
-1008
-1248
-1456
-1840
-304
-1408
-32
0
-16
-16
-16
-64
-288
-160
-304
-384
-400
-592
-768
-880
-1072
-1296
-1520
-1952
-432
-1664
-96
0
-16
0
-16
-64
-368
-336
-432
-496
-464
-608
-800
-944
-1088
-1328
-1600
-2048
-512
-1872
-176
0
-16
-16
0
-48
-352
-448
-512
-544
-496
-576
-768
-960
-1152
-1376
-1616
-2000
-432
-2016
-256
0
0
0
-16
-16
-144
-544
-592
-528
-448
-512
-672
-880
-1088
-1296
-1536
-1856
-320
-48
-336
0
-16
-16
0
0
128
-256
-624
-464
-384
-416
-560
-768
-992
-1184
-1392
-1664
-80
-1968
-384
0
0
-16
0
0
336
144
-448
-288
-224
-256
-400
-560
-784
-992
-1200
-1456
-1920
-1840
-432
0
-16
0
0
0
464
624
-192
-144
-64
-128
-256
-400
-576
-784
-1008
-1280
-1712
-1728
-464
0
-16
0
0
0
480
1008
176
64
144
80
-80
-224
-416
-592
-784
-1040
-1424
-1472
-432
0
0
0
-16
0
464
1152
592
416
448
368
160
0
-176
-352
-496
-704
-1056
-1152
-336
0
-16
-16
-16
0
432
1216
992
816
768
640
432
240
32
-96
-224
-384
-656
-688
-144
0
-16
0
-16
0
400
1296
1600
1424
1232
1040
784
592
448
336
224
64
-144
-128
144
16
0
-16
-16
0
432
1872
400
2016
1696
1456
1168
976
784
640
576
528
352
400
432
32
0
0
0
0
560
528
1008
432
48
1776
1456
1216
960
816
768
752
672
720
624
48
0
0
0
0
592
928
1184
528
144
1856
1520
1216
912
736
672
688
608
624
608
64
-16
-16
0
0
512
736
784
192
1904
1584
1264
944
608
400
272
240
144
128
368
64
0
-16
-16
0
320
2016
0
1632
1360
1120
832
512
240
32
-176
-304
-512
-624
-32
48
-16
-16
-16
-16
96
1072
1168
880
704
544
256
64
-176
-416
-656
-848
-1200
-1504
-544
32
0
-16
-16
-16
-32
288
368
192
96
48
-192
-352
-544
-768
-1008
-1248
-1712
-64
-976
0
-16
-16
-16
0
-96
-240
-192
-288
-304
-288
-496
-656
-768
-992
-1248
-1536
-2048
-464
-1344
-32
-16
-16
0
0
-96
-448
-512
-544
-528
-480
-624
-800
-944
-1088
-1328
-1648
-48
-496
-1520
-80
0
0
-16
-16
-48
-320
-576
-528
-512
-464
-576
-768
-960
-1152
-1392
-1616
-1984
-368
-1600
-112
0
0
0
-16
0
32
-480
-512
-432
-384
-448
-640
-864
-1072
-1296
-1504
-1824
-224
-1648
-160
-16
-16
-16
-16
32
368
-144
-432
-288
-240
-320
-480
-704
-944
-1168
-1328
-1616
-32
-1600
-192
0
-16
0
-16
32
608
288
-240
-96
-48
-128
-288
-464
-704
-944
-1104
-1408
-1840
-1488
-208
0
-16
-16
0
32
704
736
80
144
160
64
-96
-256
-448
-656
-816
-1104
-1488
-1232
-192
0
-16
-16
0
32
704
1056
560
496
448
336
160
-16
-208
-416
-560
-784
-1104
-896
-128
0
-16
0
0
16
688
1232
1072
880
784
624
416
224
16
-160
-272
-448
-704
-544
-16
0
-16
-16
0
16
640
1584
1680
1296
1136
912
672
496
368
192
64
-144
-368
-192
96
0
0
0
0
0
720
2016
0
1568
1360
1104
832
688
512
320
208
32
-240
-96
160
0
0
0
0
0
752
160
48
1600
1360
1088
832
672
464
304
192
32
-272
-176
128
0
0
-16
-16
0
720
48
1824
1408
1184
944
672
496
240
64
-80
-240
-576
-544
16
0
-16
0
-16
0
544
1552
1264
992
832
640
400
192
-48
-256
-400
-576
-960
-1040
-176
0
0
-16
-16
0
336
1024
832
624
528
384
176
-32
-224
-432
-624
-864
-1248
-1344
-336
0
-16
-16
-16
0
208
704
560
416
352
256
48
-128
-304
-512
-720
-976
-1360
-1536
-464
0
0
0
0
0
160
608
480
352
304
208
16
-176
-336
-512
-720
-944
-1312
-1488
-512
0
0
0
0
0
192
736
624
496
432
336
128
-80
-256
-432
-624
-816
-1152
-1344
-464
0
0
0
-16
0
208
912
816
640
544
448
240
32
-144
-336
-512
-672
-992
-1248
-448
16
-16
-16
-16
0
208
1024
976
768
656
560
336
128
-80
-256
-464
-624
-960
-1216
-496
0
-16
-16
-16
-16
176
944
864
672
576
496
288
80
-128
-320
-528
-704
-1056
-1408
-672
-16
-16
-16
-16
-16
144
784
576
496
432
384
192
-32
-224
-416
-624
-832
-1168
-1520
-816
-32
0
0
0
0
128
736
448
400
352
320
160
-64
-256
-448
-656
-864
-1184
-1552
-880
-32
-16
0
0
-16
112
768
512
448
400
368
208
0
-176
-368
-560
-704
-992
-1360
-800
-32
0
0
0
-16
96
896
976
768
656
592
416
208
16
-176
-368
-464
-720
-1008
-544
0
0
-16
-16
-16
80
1056
1536
1168
976
864
640
432
224
16
-160
-208
-416
-736
-352
32
0
-16
-16
-16
64
1136
1856
1392
1152
1008
784
560
304
96
-96
-176
-368
-672
-320
48
0
-16
-16
-16
48
1056
1808
1376
1120
992
752
528
272
48
-160
-272
-480
-816
-496
16
0
0
-16
0
32
864
1408
1056
864
752
560
336
128
-96
-320
-480
-704
-1072
-784
-32
0
0
-16
-16
32
720
1200
912
736
640
464
256
48
-160
-352
-496
-736
-1072
-816
-32
0
-16
-16
-16
16
672
1216
944
752
656
480
240
32
-160
-352
-480
-688
-1024
-832
-32
0
-16
-16
0
16
656
1328
1024
816
704
528
288
64
-160
-336
-464
-640
-944
-768
-16
0
-16
0
0
0
640
1408
1120
880
768
576
336
96
-112
-304
-432
-608
-912
-800
-32
0
-16
0
0
0
560
1360
1072
848
720
544
304
96
-128
-336
-480
-672
-976
-928
-80
0
0
0
-16
0
448
1216
960
720
592
448
192
0
-224
-432
-608
-832
-1184
-1168
-192
0
0
0
0
0
288
832
608
416
336
208
-48
-208
-416
-624
-832
-1120
-1520
-1600
-400
0
-16
-16
-16
0
176
352
128
48
16
-48
-272
-432
-592
-816
-1056
-1392
-1792
-1920
-624
0
-16
0
-16
0
144
112
-304
-192
-176
-208
-400
-560
-672
-896
-1168
-1488
-1872
-2048
-752
-16
0
-16
-16
0
176
304
-224
-128
-96
-128
-272
-464
-576
-752
-960
-1216
-1552
-1760
-672
0
0
-16
-16
-16
224
752
448
416
352
272
80
-112
-272
-432
-592
-720
-1008
-1136
-368
0
0
-16
-16
-16
240
1328
1408
1056
896
752
512
320
80
-80
-192
-224
-464
-592
-48
32
0
-16
0
0
272
1824
112
1600
1328
1120
848
608
304
144
48
48
-112
-240
160
48
-16
0
0
0
272
1968
304
1792
1472
1232
960
688
384
208
64
48
-112
-304
112
64
0
0
0
0
224
1792
2032
1552
1264
1056
800
528
240
48
-128
-224
-400
-688
-144
48
0
0
0
0
160
1344
1552
1216
992
816
560
304
64
-128
-320
-432
-656
-944
-352
48
0
0
-16
-16
96
1072
1328
1024
848
704
464
224
0
-192
-384
-512
-736
-992
-400
48
0
0
-16
-16
64
1056
1424
1120
912
784
528
272
48
-144
-320
-416
-608
-784
-272
80
-16
-16
-16
0
64
1184
1712
1360
1104
944
688
400
144
-48
-224
-320
-480
-608
-144
112
0
-16
-16
0
48
1216
1856
1440
1168
992
720
416
160
-64
-240
-352
-528
-704
-256
112
0
-16
0
0
16
992
1680
1312
1040
880
640
336
80
-160
-352
-480
-704
-960
-528
80
0
0
0
0
0
672
1312
976
752
640
384
144
-80
-320
-528
-688
-960
-1360
-944
16
0
0
0
0
-16
320
816
592
416
336
112
-80
-272
-496
-720
-896
-1200
-1680
-1296
-64
0
-16
-16
0
-16
96
496
336
208
144
-32
-224
-368
-592
-816
-1008
-1312
-1792
-1456
-128
0
-16
-16
0
-16
64
448
288
160
112
-48
-256
-384
-608
-816
-992
-1248
-1680
-1424
-128
0
-16
0
-16
-16
176
672
496
336
288
128
-128
-272
-480
-672
-848
-1072
-1408
-1184
-96
0
0
0
0
-16
336
1088
832
624
528
336
64
-112
-320
-496
-656
-832
-1136
-1008
-48
0
0
0
0
-16
400
1312
1072
816
688
464
192
-16
-224
-400
-544
-720
-976
-896
-32
16
-16
0
0
-16
384
1440
1216
928
752
544
256
16
-208
-400
-560
-752
-1024
-1008
-80
16
-16
-16
0
-16
272
1232
1040
768
608
432
128
-96
-320
-528
-704
-912
-1280
-1328
-224
16
-16
-16
-16
-16
160
928
784
544
416
272
-16
-256
-448
-656
-864
-1088
-1504
-1568
-384
16
-16
-16
0
-16
80
656
560
352
272
160
-96
-336
-496
-704
-912
-1152
-1552
-1680
-480
16
0
0
0
-16
48
624
592
384
272
176
-32
-288
-464
-640
-832
-1056
-1408
-1520
-448
16
0
0
0
-16
96
848
864
624
480
352
128
-128
-320
-496
-688
-832
-1136
-1296
-384
32
0
0
0
0
112
1040
1088
800
624
496
256
0
-208
-384
-560
-688
-960
-1168
-336
32
-16
-16
-16
-16
112
1136
1264
928
720
576
320
64
-160
-336
-544
-672
-944
-1200
-400
32
0
0
0
0
80
944
1136
832
640
496
256
16
-224
-400
-624
-768
-1072
-1392
-592
32
0
-16
-16
0
32
720
928
656
480
368
160
-80
-352
-512
-704
-896
-1200
-1504
-752
16
0
0
0
0
16
576
832
592
432
352
144
-96
-384
-528
-704
-896
-1168
-1504
-800
16
0
-16
0
0
16
608
896
640
480
400
192
-32
-320
-496
-656
-832
-1104
-1440
-848
0
0
-16
0
-16
16
544
880
608
448
368
176
-48
-304
-576
-832
-976
-1200
-1616
-1072
-48
0
0
0
-16
0
336
576
384
288
240
96
-112
-320
-608
-880
-1056
-1312
-1776
-1344
-112
0
-16
-16
-16
-16
176
336
192
96
96
-32
-240
-432
-720
-976
-1136
-1392
-1840
-1488
-160
0
-16
-16
0
-16
176
400
272
192
176
48
-144
-352
-592
-816
-976
-1232
-1648
-1360
-144
0
-16
-16
0
0
336
672
496
384
352
208
0
-192
-416
-608
-768
-1008
-1392
-1216
-144
0
0
-16
0
0
496
1008
800
624
560
384
176
-32
-256
-448
-592
-816
-1168
-1024
-112
0
0
0
-16
0
544
1200
976
800
720
544
320
96
-112
-320
-480
-704
-1056
-992
-128
0
0
0
0
0
512
1264
1040
832
752
592
352
128
-96
-304
-496
-720
-1056
-1008
-144
0
0
0
0
0
480
1264
1088
896
816
656
400
192
-16
-144
-336
-624
-976
-976
-144
0
-16
-16
-16
0
448
1312
1120
912
816
672
448
240
64
-112
-304
-592
-928
-960
-144
16
-16
-16
-16
0
416
1344
1184
960
848
688
448
256
96
-80
-288
-576
-928
-1008
-192
16
-16
-16
-16
0
336
1184
1040
832
736
624
400
176
0
-208
-432
-704
-1088
-1248
-336
16
0
0
0
0
224
880
752
608
544
464
256
48
-192
-384
-624
-864
-1248
-1456
-496
0
0
0
-16
-16
160
720
656
544
480
416
240
32
-208
-384
-592
-832
-1184
-1424
-496
0
0
0
0
0
160
896
848
688
608
528
336
160
-64
-272
-416
-576
-928
-1152
-368
16
0
0
0
0
224
1328
1344
1072
912
768
560
368
160
-64
-208
-288
-592
-768
-144
32
-16
-16
0
0
256
1632
1712
1360
1136
960
688
496
288
32
-128
-160
-432
-656
-80
48
-16
-16
0
0
208
1584
1712
1328
1088
912
640
432
192
-48
-224
-320
-608
-848
-256
48
-16
-16
0
0
112
1088
1232
928
736
592
368
128
-80
-304
-544
-736
-1072
-1408
-736
0
-16
-16
-16
0
32
416
464
256
144
112
-32
-240
-496
-720
-976
-1184
-1520
-1984
-1280
-80
-16
-16
-16
-16
-16
16
-208
-224
-240
-208
-288
-480
-704
-912
-1152
-1360
-1712
-128
-1520
-128
0
0
-16
0
0
80
-112
-144
-144
-96
-192
-368
-576
-784
-1008
-1168
-1440
-1840
-1264
-80
0
-16
-16
-16
16
512
752
544
432
400
240
32
-144
-272
-432
-560
-816
-1088
-624
16
0
0
0
-16
48
1120
1872
1456
1200
1024
768
528
384
240
48
-32
-208
-432
-64
144
0
0
0
0
48
1424
528
2032
1632
1392
1072
784
608
416
240
192
64
-224
48
192
0
-16
-16
-16
32
1296
400
1936
1552
1296
992
704
496
240
48
-48
-224
-576
-352
96
0
0
-16
-16
16
832
1680
1312
1040
880
640
352
144
-112
-336
-496
-704
-1136
-960
-48
0
0
0
0
0
384
944
704
528
448
288
32
-192
-368
-576
-784
-1072
-1472
-1328
-160
0
0
-16
0
-16
192
688
528
384
336
192
-32
-256
-416
-624
-816
-1088
-1472
-1360
-192
0
0
-16
-16
-16
208
768
608
448
384
240
16
-208
-384
-576
-720
-960
-1312
-1296
-192
0
0
0
0
-16
272
976
800
608
512
368
128
-128
-320
-496
-656
-864
-1184
-1200
-192
0
0
0
-16
-16
272
1008
848
656
560
400
144
-112
-304
-480
-656
-848
-1200
-1312
-288
16
-16
0
-16
-16
208
880
736
560
480
352
112
-128
-352
-512
-720
-944
-1296
-1424
-384
0
-16
0
0
-16
176
800
688
528
448
336
96
-144
-384
-544
-768
-992
-1328
-1488
-448
16
-16
-16
0
-16
160
800
720
544
464
352
144
-96
-336
-512
-736
-928
-1264
-1440
-432
16
0
-16
0
0
176
976
928
720
608
496
256
32
-192
-400
-592
-736
-1024
-1184
-336
16
0
-16
0
0
208
1216
1232
976
848
704
448
240
16
-208
-384
-448
-720
-896
-192
32
0
0
0
-16
224
1488
1552
1232
1040
880
592
400
144
-80
-256
-320
-544
-736
-128
48
-16
-16
-16
-16
192
1520
1696
1360
1120
944
672
432
176
-48
-208
-288
-512
-784
-192
48
-16
0
0
0
128
1248
1456
1136
928
784
512
272
16
-208
-416
-560
-864
-1200
-528
32
0
0
0
-16
48
752
944
672
528
448
240
-16
-240
-432
-704
-960
-1344
-1712
-960
-16
0
0
-16
-16
-16
240
336
176
128
112
-32
-272
-512
-672
-928
-1248
-1632
-16
-1328
-64
0
0
-16
0
-16
64
96
-32
-64
-32
-144
-336
-576
-784
-960
-1232
-1568
-1968
-1328
-80
0
0
0
-16
0
272
432
288
208
192
64
-128
-384
-528
-704
-880
-1152
-1504
-1008
-32
0
0
-16
-16
32
688
1072
816
640
576
400
176
-32
-240
-400
-464
-688
-992
-624
32
0
0
0
0
32
1008
1648
1296
1040
896
656
400
240
16
-208
-256
-464
-752
-432
64
0
-16
0
-16
32
1024
1792
1392
1120
944
704
448
272
48
-208
-304
-528
-864
-592
32
0
-16
-16
0
16
768
1488
1136
880
736
528
272
80
-160
-384
-544
-816
-1184
-960
-64
0
0
-16
0
0
432
960
704
528
432
288
64
-176
-400
-576
-800
-1104
-1504
-1376
-208
0
-16
-16
-16
0
208
528
336
208
176
80
-112
-352
-608
-832
-1040
-1280
-1696
-1664
-320
0
0
0
-16
-16
128
400
256
144
128
32
-128
-352
-608
-816
-1024
-1232
-1648
-1632
-352
0
0
0
-16
0
208
608
448
336
288
192
0
-192
-448
-688
-864
-1024
-1408
-1424
-304
0
0
-16
-16
0
336
1008
832
640
544
416
192
-16
-208
-352
-528
-752
-1104
-1136
-224
0
-16
-16
0
0
384
1312
1136
912
784
624
368
144
-16
-144
-352
-592
-944
-1024
-208
16
-16
0
0
0
368
1344
1184
928
784
624
384
160
-16
-160
-352
-608
-992
-1184
-336
16
0
0
0
0
272
1056
944
736
624
496
288
80
-128
-288
-480
-720
-1088
-1312
-448
0
0
0
0
0
192
864
768
608
512
416
208
16
-224
-416
-608
-816
-1168
-1440
-544
0
0
0
0
-16
160
800
752
608
512
416
224
16
-224
-384
-560
-752
-1072
-1328
-528
0
-16
-16
-16
-16
160
912
912
736
640
560
336
112
-96
-288
-480
-640
-960
-1200
-496
0
-16
0
-16
-16
160
1072
1120
880
752
656
432
224
16
-208
-400
-544
-880
-1184
-544
0
-16
0
-16
-16
128
1008
1104
864
720
624
400
176
-32
-256
-464
-640
-976
-1296
-672
-16
-16
0
0
0
112
848
864
672
560
496
304
80
-160
-368
-592
-784
-1120
-1504
-896
-32
-16
-16
0
0
80
704
656
512
448
400
208
16
-240
-432
-640
-848
-1152
-1536
-960
-48
0
-16
-16
-16
64
704
784
608
512
464
288
80
-128
-336
-544
-688
-976
-1328
-832
-32
0
-16
0
-16
64
848
1136
880
720
640
448
224
64
-176
-384
-464
-736
-1072
-688
0
0
0
0
-16
48
976
1504
1152
928
800
592
352
192
-48
-240
-304
-576
-880
-560
16
0
0
0
0
48
960
1600
1232
1008
864
640
384
208
-48
-256
-336
-592
-960
-672
0
0
0
0
0
32
832
1424
1088
864
752
560
320
112
-128
-336
-464
-720
-1072
-832
-48
0
-16
0
0
16
688
1248
960
768
672
480
256
32
-176
-384
-544
-784
-1168
-960
-80
0
-16
-16
-16
0
576
1136
864
672
576
416
208
-16
-224
-432
-592
-832
-1216
-1088
-128
0
-16
-16
-16
0
528
1136
880
672
576
432
192
-16
-224
-416
-560
-800
-1168
-1088
-144
0
-16
0
-16
0
496
1136
880
688
592
432
208
-16
-224
-432
-608
-832
-1232
-1216
-208
0
-16
-16
-16
0
400
992
768
576
512
368
144
-80
-288
-480
-688
-944
-1328
-1360
-320
0
-16
0
0
0
336
832
608
464
400
288
80
-160
-352
-560
-800
-1072
-1472
-1584
-448
0
0
-16
-16
0
288
608
304
272
224
160
-32
-256
-448
-624
-848
-1136
-1520
-1728
-576
0
0
0
0
0
272
640
208
224
192
144
-32
-256
-464
-608
-832
-1072
-1456
-1680
-624
0
0
0
0
0
272
784
320
336
304
256
64
-144
-368
-512
-720
-912
-1280
-1536
-592
0
0
0
0
0
256
992
624
544
496
416
224
16
-192
-368
-544
-720
-1056
-1280
-512
0
-16
0
0
0
224
1168
1040
848
720
624
400
208
0
-224
-416
-560
-896
-1104
-432
0
-16
-16
0
0
192
1200
1264
960
816
704
496
288
96
-160
-336
-464
-800
-1088
-448
0
-16
-16
0
0
160
1152
1248
944
800
704
480
256
48
-176
-384
-528
-864
-1152
-544
0
-16
0
-16
-16
144
1088
1200
912
784
704
480
272
48
-160
-384
-496
-800
-1088
-496
0
0
0
-16
0
128
1200
1552
1152
960
848
624
416
176
-32
-224
-272
-496
-736
-240
48
-16
0
0
-16
128
1520
64
1632
1360
1168
912
688
400
192
32
16
-96
-320
80
112
0
0
0
-16
128
1744
496
1968
1632
1392
1104
848
528
288
128
96
16
-208
144
144
0
-16
0
-16
96
1584
304
1824
1472
1248
960
672
368
128
-64
-176
-320
-608
-256
96
0
-16
-16
-16
48
1040
1616
1232
976
832
576
304
64
-176
-416
-592
-864
-1248
-864
-16
0
0
-16
0
0
432
768
528
368
304
112
-128
-304
-528
-752
-960
-1328
-1792
-1424
-144
0
0
0
0
-16
80
240
112
16
0
-128
-352
-480
-672
-896
-1088
-1472
-1920
-1584
-192
0
0
-16
0
-16
144
384
240
144
128
-16
-256
-384
-592
-784
-944
-1232
-1632
-1392
-144
0
0
0
0
0
384
896
688
512
432
272
16
-160
-368
-560
-720
-912
-1248
-1008
-48
0
-16
0
0
0
624
1472
1184
928
784
560
288
80
-144
-336
-496
-624
-912
-768
16
0
-16
-16
0
0
688
1728
1392
1088
896
656
384
128
-96
-288
-448
-592
-912
-832
-32
0
-16
0
-16
0
528
1504
1216
944
752
528
240
0
-240
-448
-656
-880
-1232
-1264
-224
0
-16
0
0
0
256
800
592
384
288
144
-112
-352
-544
-768
-1024
-1360
-1808
-2000
-608
0
-16
-16
-16
-16
96
48
-304
-224
-208
-256
-448
-672
-832
-1008
-1280
-1664
-80
-352
-912
-16
0
-16
-16
-16
80
48
-544
-400
-320
-304
-432
-656
-832
-976
-1232
-1552
-1952
-224
-912
-16
0
-16
-16
-16
160
352
-96
16
32
16
-144
-352
-512
-640
-800
-1008
-1328
-1536
-576
0
0
-16
0
0
240
1168
1168
912
768
656
448
240
32
-144
-240
-288
-544
-624
-64
32
-16
-16
-16
0
304
2000
304
1808
1520
1296
992
784
528
288
192
208
48
-16
320
64
-16
-16
-16
0
304
240
752
80
1776
1488
1184
944
640
400
272
272
128
32
352
80
-16
0
0
-16
272
96
448
1920
1584
1328
1024
768
448
208
16
-48
-256
-512
-48
64
0
0
-16
-16
144
1360
1552
1184
944
784
512
272
16
-208
-432
-592
-928
-1264
-608
16
-16
0
0
0
32
608
768
528
400
336
96
-144
-320
-528
-784
-992
-1392
-1760
-1008
-32
0
-16
-16
-16
-16
256
384
208
112
96
-96
-352
-496
-688
-928
-1136
-1552
-1936
-1216
-48
0
-16
0
0
0
256
400
224
128
96
-80
-336
-480
-656
-896
-1088
-1424
-1744
-1120
-48
0
-16
0
-16
16
512
752
528
384
304
128
-144
-336
-528
-736
-896
-1168
-1520
-1008
-32
0
-16
-16
-16
32
624
960
672
496
416
208
-64
-288
-464
-688
-848
-1120
-1472
-1072
-64
0
0
-16
-16
16
560
864
608
448
384
208
-32
-288
-464
-672
-864
-1136
-1536
-1232
-128
0
0
0
-16
16
496
752
528
384
336
192
-32
-288
-464
-656
-864
-1120
-1504
-1264
-144
0
0
0
0
0
512
992
736
560
496
320
112
-128
-304
-512
-672
-896
-1264
-1024
-80
0
0
0
0
0
640
1408
1120
896
768
560
304
112
-128
-336
-464
-624
-976
-784
-16
0
-16
-16
-16
0
704
1712
1376
1088
944
704
416
208
-48
-256
-368
-528
-864
-736
-16
0
0
0
0
0
640
1680
1360
1072
912
688
400
176
-80
-288
-432
-608
-992
-944
-112
0
-16
-16
0
0
432
1264
1008
768
656
480
224
-16
-256
-464
-656
-880
-1280
-1360
-288
0
0
-16
-16
0
256
848
672
464
368
256
48
-224
-416
-608
-816
-1072
-1440
-1584
-432
0
-16
-16
-16
-16
176
656
512
368
304
208
0
-272
-464
-640
-864
-1120
-1504
-1696
-528
0
-16
0
0
-16
176
656
512
352
288
208
16
-240
-480
-624
-832
-1088
-1440
-1664
-592
0
-16
0
0
0
192
752
608
480
400
304
96
-128
-368
-528
-768
-976
-1312
-1552
-592
0
0
0
0
0
208
896
768
592
496
400
192
-16
-272
-448
-640
-832
-1168
-1456
-592
0
-16
-16
0
0
192
992
912
704
576
464
240
32
-176
-368
-576
-752
-1072
-1360
-592
0
0
0
-16
0
176
1008
960
752
624
512
304
64
-160
-352
-560
-752
-1088
-1408
-688
-16
0
0
-16
-16
144
944
832
656
544
464
240
32
-208
-400
-592
-784
-1104
-1440
-784
-16
0
0
-16
-16
112
896
832
656
528
448
256
32
-208
-400
-592
-768
-1088
-1440
-832
-32
-16
-16
-16
-16
96
896
944
720
592
512
304
96
-112
-320
-528
-672
-976
-1312
-768
-16
-16
-16
-16
0
80
1008
1312
992
816
704
496
272
96
-160
-336
-400
-688
-1008
-544
16
0
-16
0
0
80
1168
1760
1328
1104
960
720
480
304
32
-176
-224
-464
-784
-400
48
0
0
0
0
64
1200
1904
1456
1184
1040
800
560
352
80
-128
-192
-416
-768
-448
48
0
0
0
-16
48
1008
1664
1296
1056
928
688
464
240
-16
-240
-352
-624
-1008
-720
-16
0
0
0
0
32
736
1264
960
768
672
496
272
48
-192
-400
-576
-848
-1264
-1072
-96
0
-16
-16
0
16
512
928
704
544
496
352
112
-96
-304
-512
-704
-992
-1408
-1232
-144
0
0
-16
0
0
432
848
624
496
464
320
96
-96
-304
-528
-704
-960
-1360
-1248
-160
0
-16
-16
0
0
448
992
768
624
560
400
192
-16
-224
-432
-608
-832
-1184
-1104
-144
0
-16
-16
-16
0
480
1184
960
768
672
512
304
96
-144
-352
-560
-768
-1120
-1056
-160
0
0
-16
-16
0
464
1200
976
768
672
512
288
80
-160
-368
-576
-800
-1184
-1216
-240
0
0
0
-16
0
368
1024
816
640
544
432
208
-16
-224
-432
-656
-896
-1296
-1392
-368
0
0
0
0
0
304
848
656
528
464
352
144
-64
-272
-464
-688
-912
-1296
-1472
-432
0
0
0
-16
0
272
896
752
592
496
400
192
-16
-208
-384
-576
-768
-1104
-1264
-368
16
-16
0
-16
0
288
1232
1120
896
768
624
400
192
-32
-208
-400
-528
-816
-960
-208
16
-16
-16
0
0
320
1584
1504
1200
1024
848
592
368
112
-80
-256
-336
-592
-768
-96
32
-16
-16
-16
0
304
1712
1696
1344
1120
928
656
416
144
-48
-240
-352
-576
-768
-112
48
-16
-16
0
0
240
1568
1632
1264
1056
880
608
352
80
-128
-320
-448
-688
-960
-288
32
-16
-16
0
0
176
1264
1360
1040
832
672
432
176
-48
-256
-448
-608
-880
-1184
-480
32
0
0
-16
-16
112
992
1152
864
688
560
304
64
-160
-352
-576
-736
-1040
-1360
-624
16
0
0
0
0
64
816
992
720
560
464
240
-16
-208
-416
-608
-768
-1072
-1440
-752
16
0
0
-16
0
48
752
992
720
560
464
224
-32
-208
-400
-592
-768
-1056
-1424
-816
0
0
0
0
-16
32
688
960
704
544
464
240
-16
-208
-416
-608
-752
-1056
-1456
-928
-16
0
0
0
-16
32
640
944
688
512
432
224
-32
-224
-416
-624
-784
-1088
-1456
-992
-32
0
-16
-16
-16
16
608
976
720
544
464
272
-16
-208
-416
-608
-752
-1040
-1408
-992
-32
0
-16
-16
-16
16
608
1056
784
608
528
320
48
-160
-384
-576
-736
-992
-1344
-992
-32
0
-16
-16
0
16
640
1200
912
688
592
384
128
-96
-304
-512
-656
-880
-1232
-976
-48
0
0
0
-16
0
624
1232
944
736
624
416
160
-64
-304
-512
-672
-896
-1264
-1072
-96
0
0
-16
0
0
528
1136
848
640
544
368
112
-112
-320
-544
-704
-944
-1312
-1184
-144
0
-16
0
0
0
416
1024
784
592
512
352
80
-144
-368
-560
-720
-944
-1328
-1248
-176
0
0
-16
-16
0
400
1072
832
640
544
400
144
-80
-304
-512
-672
-864
-1200
-1168
-144
0
0
-16
-16
0
432
1328
1088
848
720
544
288
80
-160
-352
-496
-640
-944
-928
-80
16
0
-16
-16
0
480
1600
1376
1088
896
704
464
224
-32
-224
-384
-496
-768
-784
-16
16
0
0
0
0
464
1744
1536
1216
1024
800
544
304
32
-160
-320
-432
-672
-736
-16
32
-16
0
0
0
384
1696
1552
1232
1024
816
544
272
0
-192
-352
-480
-736
-864
-80
32
0
0
-16
-16
272
1456
1376
1072
880
688
416
176
-80
-304
-480
-640
-928
-1120
-256
32
-16
0
-16
-16
160
1136
1120
832
656
512
256
16
-208
-416
-640
-816
-1152
-1376
-432
32
0
0
0
0
80
800
848
608
464
352
112
-128
-320
-528
-784
-976
-1344
-1616
-624
16
-16
-16
-16
-16
32
624
704
480
352
272
48
-208
-368
-576
-816
-1008
-1360
-1632
-672
16
-16
-16
0
0
32
656
800
560
432
336
112
-144
-320
-512
-736
-928
-1248
-1536
-672
16
-16
-16
-16
-16
48
768
960
672
512
416
176
-80
-272
-464
-672
-832
-1152
-1456
-688
16
0
-16
-16
-16
48
816
1088
784
592
480
240
-16
-240
-416
-640
-816
-1088
-1408
-688
32
0
-16
-16
0
32
800
1136
832
640
528
288
16
-208
-400
-640
-800
-1056
-1392
-736
32
0
-16
-16
-16
32
816
1248
928
720
608
368
80
-144
-352
-544
-672
-880
-1200
-640
48
0
-16
-16
-16
32
912
1536
1200
944
784
512
240
0
-208
-400
-512
-656
-944
-480
96
0
-16
0
0
16
1008
1840
1440
1136
928
656
368
112
-112
-288
-384
-496
-784
-416
112
0
0
-16
-16
16
976
1920
1520
1184
960
672
368
112
-128
-304
-416
-560
-832
-512
112
0
0
0
0
0
784
1744
1376
1072
864
592
272
0
-240
-464
-608
-800
-1104
-832
64
0
0
-16
-16
-16
544
1408
1088
816
656
400
80
-176
-384
-592
-752
-992
-1344
-1088
-16
0
-16
0
0
-16
336
1120
880
640
512
288
-16
-304
-496
-704
-896
-1152
-1552
-1344
-96
0
-16
0
-16
-16
192
880
672
464
352
192
-96
-400
-640
-800
-1008
-1344
-1760
-1648
-224
0
-16
0
-16
-16
48
544
416
256
176
48
-176
-480
-752
-976
-1200
-1488
-1888
-1840
-352
16
0
0
0
-16
0
432
336
208
160
64
-176
-432
-736
-976
-1200
-1472
-1840
-1888
-416
16
0
0
-16
-16
32
528
432
288
240
128
-80
-304
-592
-848
-1056
-1248
-1584
-1680
-400
16
0
-16
0
-16
112
768
672
496
400
288
48
-160
-400
-640
-832
-1008
-1328
-1456
-384
16
-16
-16
-16
-16
160
944
848
640
512
400
176
-48
-288
-512
-672
-864
-1184
-1376
-384
16
-16
-16
0
-16
144
960
912
672
560
432
208
-16
-256
-448
-656
-832
-1168
-1344
-432
16
-16
-16
0
0
112
912
928
688
560
464
240
16
-240
-448
-656
-848
-1184
-1424
-512
16
0
-16
-16
-16
96
880
960
704
592
480
256
48
-192
-416
-624
-800
-1136
-1408
-544
16
-16
-16
0
0
80
912
1056
800
640
528
320
96
-144
-368
-608
-784
-1104
-1408
-592
16
0
-16
0
-16
80
944
1136
864
704
576
352
112
-128
-352
-544
-704
-1024
-1360
-624
32
0
-16
0
-16
64
976
1248
928
752
640
400
160
-80
-304
-528
-688
-976
-1296
-624
32
0
0
0
0
64
992
1312
992
832
720
480
240
16
-192
-448
-608
-880
-1248
-640
48
0
0
-16
-16
48
960
1376
1040
848
752
544
304
80
-144
-368
-528
-816
-1200
-672
32
0
0
0
0
32
848
1360
1040
848
768
560
320
112
-80
-240
-464
-816
-1216
-768
16
0
0
-16
0
16
720
1296
992
784
720
544
304
80
-128
-272
-464
-832
-1264
-880
16
0
0
0
0
0
640
1312
1008
800
720
512
272
48
-96
-272
-464
-816
-1200
-864
16
0
-16
-16
-16
0
624
1376
1104
880
768
544
288
80
-80
-320
-464
-736
-1152
-864
16
0
-16
-16
-16
0
608
1456
1168
912
752
528
272
48
-128
-368
-512
-736
-1104
-880
0
0
0
0
-16
-16
512
1376
1120
880
736
512
240
0
-224
-448
-624
-832
-1232
-1072
-64
0
0
0
0
-16
368
1184
960
736
624
448
176
-64
-352
-544
-720
-944
-1344
-1264
-128
0
0
0
0
-16
272
1056
880
672
576
416
160
-80
-352
-528
-736
-944
-1344
-1280
-144
16
-16
0
0
-16
256
1168
1024
816
704
544
272
32
-208
-400
-608
-752
-1136
-1120
-80
16
-16
-16
-16
-16
304
1472
1328
1056
896
688
384
144
-48
-272
-432
-528
-848
-896
-16
16
-16
-16
-16
-16
320
1648
1552
1232
1024
816
496
224
16
-208
-384
-480
-784
-864
-16
32
0
0
0
-16
272
1584
1520
1200
992
800
480
208
-32
-272
-448
-592
-912
-1072
-144
32
-16
0
0
-16
160
1232
1248
960
784
624
352
80
-192
-400
-608
-816
-1184
-1376
-336
32
0
0
0
0
48
848
928
704
576
464
224
-32
-352
-544
-752
-992
-1392
-1648
-544
32
0
0
-16
-16
0
624
736
528
416
336
128
-128
-448
-704
-928
-1136
-1456
-1744
-688
16
-16
-16
-16
-16
-16
512
672
496
384
320
112
-112
-432
-704
-928
-1120
-1424
-1744
-752
16
-16
-16
0
0
0
576
752
528
416
352
176
-64
-352
-640
-896
-1056
-1344
-1696
-784
32
-16
0
0
-16
16
624
848
624
480
416
208
-16
-256
-512
-784
-944
-1248
-1584
-768
32
0
-16
0
-16
16
736
1040
768
608
528
320
80
-160
-384
-640
-816
-1120
-1456
-752
32
0
0
-16
-16
16
816
1216
912
736
640
416
160
-80
-320
-560
-720
-1024
-1360
-736
48
0
-16
-16
0
16
832
1360
1040
848
736
512
256
0
-240
-480
-640
-928
-1280
-752
48
0
-16
-16
0
16
800
1440
1088
880
768
544
288
48
-176
-352
-512
-880
-1264
-816
48
0
0
0
0
0
704
1440
1136
896
768
560
304
80
-128
-272
-432
-752
-1136
-752
48
0
-16
0
0
0
672
1552
1248
992
832
608
336
112
-80
-224
-368
-624
-1040
-720
80
0
-16
-16
-16
-16
656
1632
1312
1040
880
640
352
112
-48
-256
-384
-560
-944
-704
80
0
-16
-16
-16
-16
592
1680
1344
1056
880
624
336
96
-128
-352
-512
-640
-1008
-816
64
0
-16
-16
-16
-16
496
1536
1216
928
768
544
256
0
-240
-464
-624
-800
-1184
-1088
-16
0
0
0
0
-16
320
1280
1008
752
592
400
144
-96
-384
-592
-784
-1040
-1424
-1328
-128
16
0
0
0
-16
144
928
768
560
432
288
32
-208
-512
-784
-1008
-1248
-1616
-1632
-272
16
0
0
0
-16
32
640
560
384
304
192
-48
-240
-528
-816
-1040
-1296
-1664
-1728
-384
16
-16
-16
0
-16
-32
512
512
352
288
192
-32
-224
-496
-768
-1024
-1248
-1616
-1760
-448
16
-16
-16
0
-16
0
608
608
432
352
256
48
-160
-400
-640
-880
-1088
-1440
-1648
-448
16
-16
-16
-16
-16
64
816
832
608
496
384
144
-80
-304
-512
-736
-944
-1312
-1488
-432
32
0
0
-16
-16
96
944
992
752
624
496
240
0
-240
-448
-672
-848
-1200
-1440
-448
32
0
0
-16
-16
96
944
1040
784
640
528
272
32
-208
-432
-640
-848
-1200
-1456
-528
32
0
0
-16
-16
64
848
992
752
608
512
288
48
-192
-400
-640
-848
-1200
-1520
-624
16
0
0
0
0
48
784
992
752
608
528
304
64
-176
-384
-608
-784
-1136
-1488
-656
32
-16
-16
-16
-16
48
864
1152
880
704
608
368
128
-128
-336
-544
-720
-1008
-1312
-576
48
0
0
-16
-16
48
1008
1392
1088
896
768
496
224
-32
-256
-448
-592
-864
-1168
-512
64
-16
-16
0
0
48
1072
1568
1200
976
832
560
288
32
-192
-416
-560
-816
-1120
-512
80
0
0
-16
0
32
992
1568
1216
992
848
576
288
48
-192
-416
-592
-864
-1216
-672
64
0
-16
0
-16
16
800
1408
1088
864
752
528
256
0
-240
-464
-640
-928
-1344
-880
32
0
-16
-16
-16
0
608
1248
960
768
672
464
192
-48
-288
-528
-688
-976
-1392
-1008
0
0
-16
-16
0
-16
480
1168
912
720
640
448
176
-64
-304
-528
-688
-976
-1408
-1104
-32
0
-16
0
-16
-16
416
1136
880
688
608
416
160
-64
-304
-544
-736
-1024
-1440
-1184
-48
0
0
0
0
-16
352
1088
848
656
576
400
160
-80
-320
-560
-768
-1040
-1488
-1312
-112
0
0
0
0
-16
272
960
752
576
512
368
128
-96
-352
-608
-832
-1120
-1552
-1456
-176
0
0
-16
0
-16
224
928
752
576
512
384
160
-80
-320
-544
-736
-1008
-1424
-1408
-192
16
0
0
0
-16
240
1040
880
688
608
480
224
0
-256
-480
-688
-928
-1328
-1360
-208
16
0
-16
-16
-16
256
1200
1040
800
688
544
288
64
-176
-400
-592
-816
-1184
-1232
-192
16
-16
-16
-16
-16
256
1312
1168
928
784
624
352
128
-128
-336
-544
-736
-1088
-1200
-208
16
-16
-16
-16
-16
208
1248
1168
896
736
608
352
112
-144
-368
-576
-800
-1152
-1344
-304
32
-16
-16
0
-16
144
1104
1088
832
704
576
320
96
-144
-368
-608
-816
-1168
-1392
-384
32
0
-16
-16
-16
112
1040
1088
832
704
592
352
128
-128
-352
-608
-816
-1168
-1424
-432
32
-16
-16
0
-16
80
992
1104
848
704
592
352
128
-96
-336
-560
-752
-1088
-1360
-448
32
0
0
-16
-16
80
1008
1184
912
752
624
384
144
-80
-304
-544
-720
-1040
-1328
-480
48
-16
0
0
-16
64
976
1232
928
752
640
384
128
-112
-336
-544
-704
-1024
-1360
-560
48
-16
0
-16
0
48
960
1280
976
768
656
416
160
-64
-272
-496
-672
-976
-1312
-576
48
0
0
0
-16
32
944
1360
1040
848
736
480
208
-16
-224
-416
-576
-928
-1296
-608
48
0
0
0
0
32
896
1376
1072
880
752
512
240
32
-160
-320
-496
-848
-1248
-656
48
0
0
-16
-16
16
784
1328
1040
864
752
528
256
16
-144
-368
-592
-976
-1360
-784
48
0
0
0
0
0
640
1216
944
768
688
480
208
-32
-256
-464
-672
-1024
-1472
-992
16
0
-16
0
-16
-16
512
1104
848
672
608
416
160
-64
-288
-512
-704
-1008
-1440
-1056
-16
0
-16
0
-16
-16
464
1120
880
688
608
432
176
-48
-288
-512
-672
-944
-1376
-1072
-16
0
-16
-16
-16
-16
464
1216
976
768
672
480
224
-16
-256
-448
-576
-816
-1232
-1008
0
0
-16
-16
-16
-16
496
1360
1120
896
768
560
272
16
-192
-432
-608
-832
-1216
-1008
-16
0
-16
-16
0
-16
448
1360
1120
880
768
576
288
32
-240
-464
-624
-864
-1248
-1136
-64
0
0
-16
0
-16
352
1232
1008
784
672
496
208
-32
-320
-624
-848
-1024
-1376
-1328
-160
16
-16
0
0
-16
224
992
832
640
528
400
144
-96
-384
-688
-880
-1072
-1440
-1504
-256
16
0
0
0
-16
128
832
720
544
448
336
96
-128
-416
-720
-928
-1120
-1504
-1584
-336
16
0
0
0
-16
112
816
736
560
480
368
128
-96
-352
-608
-816
-1024
-1392
-1520
-352
16
0
0
0
-16
128
944
880
672
592
480
224
0
-240
-464
-656
-864
-1216
-1376
-320
32
-16
-16
-16
-16
160
1136
1104
848
704
592
336
112
-128
-336
-544
-736
-1072
-1248
-304
32
-16
-16
-16
-16
160
1216
1232
960
800
672
400
160
-80
-304
-512
-704
-1040
-1280
-368
32
-16
-16
-16
-16
128
1136
1216
928
768
672
400
160
-96
-320
-544
-752
-1104
-1376
-480
32
-16
0
0
-16
80
992
1136
864
720
640
368
144
-112
-336
-576
-784
-1152
-1456
-576
32
0
0
-16
-16
48
864
1072
800
656
576
368
128
-112
-336
-608
-816
-1152
-1504
-656
32
0
0
-16
0
32
832
1104
832
672
592
368
128
-96
-304
-560
-736
-1056
-1408
-672
32
0
-16
-16
0
32
832
1184
896
720
640
416
160
-64
-272
-544
-720
-1040
-1408
-736
32
0
-16
0
0
16
816
1248
944
752
672
432
176
-48
-272
-496
-656
-976
-1344
-752
48
0
-16
0
0
16
768
1296
976
784
704
496
224
0
-208
-384
-544
-912
-1312
-816
32
0
0
0
-16
0
720
1312
1008
800
704
512
240
32
-160
-336
-528
-896
-1328
-896
16
0
-16
0
-16
0
640
1312
1024
800
704
512
240
16
-160
-320
-496
-864
-1296
-944
0
0
0
-16
-16
0
592
1344
1056
832
720
544
256
16
-176
-384
-576
-896
-1328
-1040
-16
0
-16
0
0
-16
512
1296
1024
800
688
512
224
-16
-224
-448
-608
-880
-1296
-1072
-32
0
0
-16
0
-16
448
1248
992
768
656
480
208
-48
-272
-496
-656
-912
-1328
-1184
-80
0
-16
0
0
-16
352
1120
880
656
544
416
128
-128
-368
-672
-832
-1008
-1392
-1328
-160
0
0
-16
0
-16
272
1008
816
608
496
368
96
-144
-400
-704
-896
-1056
-1424
-1408
-208
16
-16
-16
-16
-16
240
1008
848
640
544
432
144
-96
-352
-656
-864
-1008
-1376
-1408
-240
16
-16
-16
0
-16
240
1104
976
752
640
512
240
16
-224
-432
-608
-848
-1232
-1280
-208
16
-16
-16
-16
-16
256
1248
1152
928
784
640
352
128
-96
-240
-432
-688
-1088
-1184
-208
32
-16
0
0
-16
256
1376
1312
1040
880
736
448
192
-16
-160
-336
-560
-960
-1120
-208
32
0
0
-16
-16
224
1424
1424
1120
944
800
480
208
0
-176
-368
-544
-928
-1088
-208
48
0
0
-16
-16
176
1408
1472
1152
960
832
528
240
0
-224
-448
-576
-912
-1136
-256
48
0
0
0
-16
128
1296
1440
1120
928
784
496
224
0
-256
-448
-576
-896
-1168
-304
48
0
-16
0
-16
80
1152
1376
1072
848
736
464
192
-64
-288
-512
-672
-976
-1280
-432
48
0
-16
0
-16
32
960
1248
944
736
640
384
112
-160
-384
-608
-768
-1104
-1424
-608
48
-16
-16
0
0
16
736
1056
768
592
512
288
32
-272
-560
-816
-1008
-1296
-1616
-800
32
0
-16
0
0
-16
544
880
624
480
432
224
-32
-320
-608
-912
-1120
-1408
-1760
-992
0
0
0
-16
0
-16
416
784
544
416
352
176
-64
-304
-608
-912
-1104
-1392
-1792
-1088
0
0
-16
-16
0
-16
416
832
592
464
400
224
-16
-256
-512
-800
-992
-1296
-1712
-1120
-16
0
0
-16
0
-16
464
944
688
528
480
320
48
-160
-400
-656
-816
-1136
-1584
-1120
-16
0
0
0
0
0
528
1088
816
640
560
400
112
-112
-336
-576
-752
-1072
-1472
-1088
-16
0
0
-16
-16
0
528
1200
912
720
624
464
192
-48
-272
-528
-704
-992
-1392
-1088
-32
0
0
-16
-16
0
528
1280
1008
784
672
512
224
0
-224
-480
-640
-896
-1280
-1056
-32
0
-16
-16
-16
0
512
1392
1120
864
736
576
272
32
-192
-432
-608
-848
-1216
-1056
-48
0
0
-16
-16
-16
480
1440
1184
928
784
624
304
64
-160
-384
-544
-768
-1136
-1072
-64
16
-16
-16
-16
-16
432
1456
1216
944
800
640
336
96
-128
-352
-528
-752
-1120
-1104
-96
16
0
0
0
-16
352
1424
1232
976
816
656
352
112
-112
-272
-448
-720
-1136
-1168
-144
16
-16
-16
0
-16
288
1360
1200
928
768
624
336
96
-112
-272
-448
-720
-1136
-1216
-176
16
0
-16
0
-16
224
1296
1200
928
752
624
320
64
-160
-320
-512
-768
-1184
-1312
-256
32
0
-16
0
-16
160
1136
1088
832
672
576
272
0
-224
-496
-736
-928
-1280
-1488
-384
32
0
-16
0
-16
96
944
960
720
576
480
208
-48
-288
-560
-832
-992
-1328
-1584
-496
32
0
0
-16
-16
48
768
848
640
496
432
192
-64
-304
-592
-864
-1024
-1360
-1680
-640
16
0
0
0
0
32
688
816
608
464
400
176
-64
-304
-544
-800
-976
-1328
-1648
-688
32
0
0
-16
-16
32
720
912
688
544
480
256
0
-240
-448
-688
-880
-1216
-1552
-688
32
-16
-16
0
0
48
848
1120
848
672
592
368
80
-176
-400
-640
-800
-1120
-1472
-672
32
-16
0
0
0
48
944
1296
992
784
672
432
160
-96
-304
-544
-720
-1024
-1360
-656
48
0
-16
0
-16
48
944
1376
1072
848
736
512
224
-32
-240
-496
-672
-992
-1360
-736
48
0
-16
-16
0
32
864
1360
1056
848
752
512
224
-16
-240
-480
-656
-976
-1360
-800
48
0
-16
-16
-16
16
768
1344
1056
864
752
544
256
0
-192
-400
-592
-976
-1376
-896
32
0
0
0
0
0
672
1280
992
800
720
544
256
0
-208
-400
-576
-960
-1376
-992
0
0
0
0
-16
0
608
1264
992
784
688
512
240
0
-192
-384
-576
-944
-1344
-1040
-16
0
-16
-16
0
0
528
1232
976
768
672
512
240
0
-224
-448
-608
-928
-1344
-1104
-48
0
-16
0
-16
-16
464
1248
992
784
672
528
240
0
-240
-480
-640
-912
-1312
-1120
-48
0
-16
-16
0
-16
432
1296
1040
832
720
560
272
32
-208
-448
-624
-880
-1280
-1152
-80
0
0
0
0
-16
384
1296
1040
816
704
560
288
48
-192
-448
-640
-896
-1296
-1232
-112
16
0
-16
0
-16
320
1232
1024
800
672
528
256
32
-224
-448
-656
-912
-1328
-1328
-192
16
0
-16
0
-16
240
1120
944
736
608
512
240
0
-272
-576
-800
-960
-1328
-1424
-272
16
-16
-16
-16
-16
192
1088
960
752
624
512
240
16
-256
-480
-640
-864
-1248
-1392
-288
16
-16
-16
-16
-16
160
1088
1008
768
640
528
272
32
-224
-448
-672
-864
-1248
-1424
-352
32
0
-16
-16
-16
144
1056
1024
768
624
528
272
48
-208
-464
-704
-864
-1216
-1472
-432
32
0
0
-16
0
112
992
1008
752
608
496
272
32
-192
-448
-720
-880
-1232
-1488
-496
32
0
0
-16
0
80
928
1024
768
624
528
272
32
-208
-496
-784
-912
-1248
-1568
-608
32
0
0
0
-16
64
832
976
736
592
512
288
48
-192
-432
-704
-864
-1232
-1568
-688
16
0
0
-16
-16
48
800
1008
752
608
528
304
64
-176
-384
-640
-848
-1232
-1600
-784
16
0
-16
-16
-16
32
704
928
672
512
464
272
32
-192
-400
-656
-864
-1232
-1664
-928
0
0
0
-16
0
16
592
864
640
496
448
272
32
-192
-384
-624
-832
-1184
-1616
-976
-16
0
-16
-16
-16
16
656
1024
784
624
576
400
128
-112
-304
-528
-704
-1008
-1424
-896
0
0
0
0
-16
32
784
1280
1008
832
752
544
272
32
-144
-288
-480
-832
-1232
-784
16
0
-16
-16
-16
32
864
1488
1184
960
864
640
352
112
-32
-256
-464
-800
-1184
-800
16
0
-16
-16
-16
16
800
1440
1136
912
800
608
304
64
-128
-304
-528
-864
-1248
-944
-16
0
0
0
-16
16
704
1408
1120
880
784
592
304
48
-144
-368
-560
-864
-1248
-960
-16
0
0
0
0
0
624
1408
1136
912
784
608
320
48
-176
-432
-576
-816
-1232
-1040
-48
0
0
0
0
0
528
1328
1072
848
720
560
272
32
-224
-448
-624
-912
-1328
-1232
-144
0
0
-16
-16
0
336
976
768
576
480
352
96
-144
-448
-736
-928
-1168
-1648
-1664
-336
0
0
0
0
-16
128
464
336
224
176
128
-112
-320
-640
-944
-1184
-1424
-1904
-2032
-512
0
-16
-16
-16
-16
80
384
272
160
128
80
-144
-368
-656
-928
-1168
-1376
-1776
-1856
-480
0
0
0
-16
-16
208
816
688
544
464
352
96
-128
-400
-640
-832
-1008
-1344
-1408
-320
16
0
0
-16
0
336
1376
1232
976
800
656
384
128
-96
-256
-416
-656
-976
-1088
-240
16
0
-16
-16
0
352
1552
1440
1136
928
784
480
240
-16
-240
-416
-608
-944
-1136
-320
16
0
-16
0
0
272
1360
1280
1008
832
720
464
208
-48
-288
-480
-688
-1056
-1344
-480
16
-16
-16
0
0
192
1168
1168
912
752
656
400
160
-80
-272
-496
-736
-1136
-1408
-528
16
-16
0
0
0
144
1120
1184
928
768
672
432
176
-48
-224
-480
-688
-1072
-1360
-528
32
-16
0
0
-16
144
1184
1328
1024
848
720
464
224
16
-144
-368
-576
-960
-1264
-544
32
0
0
0
-16
112
1184
1392
1056
864
736
496
224
0
-176
-416
-576
-928
-1264
-592
32
0
-16
-16
0
96
1088
1360
1040
832
720
496
224
-16
-256
-480
-608
-960
-1328
-704
32
0
-16
-16
0
64
976
1312
976
784
672
464
192
-48
-272
-496
-640
-960
-1344
-784
16
0
-16
-16
0
32
832
1232
928
736
640
432
176
-80
-304
-560
-736
-1056
-1440
-928
-16
0
-16
-16
0
16
688
1136
832
640
544
368
112
-128
-352
-592
-768
-1072
-1472
-1072
-48
0
0
0
-16
16
608
1072
800
624
528
336
80
-176
-400
-624
-816
-1104
-1504
-1152
-64
0
0
0
-16
0
576
1104
816
624
544
368
96
-144
-400
-608
-800
-1056
-1472
-1184
-80
0
0
0
0
0
560
1184
880
672
576
400
128
-112
-384
-576
-768
-1024
-1440
-1232
-112
0
0
0
0
0
496
1120
848
640
544
384
128
-112
-384
-672
-848
-1072
-1504
-1408
-208
0
0
0
0
0
368
928
688
512
432
304
64
-160
-432
-720
-912
-1136
-1600
-1584
-304
0
0
0
-16
0
288
800
608
448
384
288
48
-176
-416
-704
-896
-1104
-1552
-1616
-352
0
-16
-16
-16
0
288
928
752
576
512
400
160
-80
-304
-544
-720
-928
-1328
-1456
-336
0
-16
-16
-16
0
352
1200
1040
816
704
576
304
64
-160
-336
-528
-720
-1088
-1216
-272
16
0
-16
-16
0
384
1424
1280
1024
864
720
432
176
-32
-160
-352
-608
-976
-1136
-272
16
0
-16
0
0
352
1456
1344
1056
880
736
448
208
-16
-160
-368
-624
-992
-1184
-336
16
0
0
-16
-16
272
1360
1312
1040
880
736
464
208
-16
-176
-384
-640
-1008
-1232
-384
16
-16
-16
-16
-16
224
1312
1312
1040
880
752
480
224
0
-224
-448
-640
-1024
-1280
-432
32
0
0
0
0
192
1280
1344
1056
880
752
464
224
-16
-256
-464
-624
-992
-1280
-496
16
0
-16
-16
0
144
1184
1312
1024
832
720
448
192
-48
-288
-528
-688
-1040
-1376
-624
16
-16
-16
-16
0
112
976
1136
864
704
608
368
112
-160
-368
-592
-784
-1120
-1504
-784
0
-16
0
0
0
64
816
1008
768
624
544
320
64
-224
-432
-656
-848
-1168
-1552
-896
0
-16
-16
0
-16
48
752
992
752
592
528
336
80
-192
-416
-640
-816
-1120
-1520
-944
-16
0
0
0
0
48
800
1136
864
672
592
368
112
-144
-352
-592
-752
-1056
-1424
-912
-16
0
-16
0
0
48
864
1312
992
784
688
480
192
-48
-288
-544
-672
-976
-1376
-944
-16
0
-16
-16
-16
32
784
1296
992
784
688
480
192
-32
-288
-528
-688
-1008
-1424
-1088
-64
0
-16
-16
-16
16
656
1184
896
720
640
464
192
-32
-272
-544
-752
-1056
-1488
-1216
-96
0
-16
-16
0
16
576
1120
864
688
624
464
192
-32
-272
-512
-720
-1008
-1440
-1264
-128
0
0
-16
-16
0
544
1200
928
720
640
496
224
16
-224
-464
-656
-912
-1312
-1152
-112
0
0
-16
0
0
608
1488
1200
976
848
672
368
160
-96
-320
-480
-656
-1040
-944
-32
0
0
-16
-16
0
672
1808
1488
1200
1040
848
544
336
64
-176
-304
-416
-784
-736
32
16
-16
0
0
0
672
0
1760
1424
1200
992
672
448
144
-80
-240
-336
-656
-688
48
16
0
0
0
0
560
1984
1728
1376
1152
960
656
400
96
-128
-288
-432
-768
-896
-64
32
-16
-16
-16
-16
384
1600
1424
1104
896
720
432
176
-80
-320
-528
-736
-1120
-1312
-288
16
0
-16
-16
-16
160
992
928
672
528
432
176
-112
-320
-544
-816
-1088
-1536
-1792
-592
16
0
-16
-16
-16
32
496
464
304
224
176
-48
-320
-496
-704
-992
-1312
-1744
-2032
-800
0
-16
0
0
-16
0
368
384
224
160
128
-64
-336
-528
-688
-976
-1264
-1632
-1936
-816
0
0
0
0
0
48
624
688
496
384
320
112
-160
-368
-544
-784
-992
-1328
-1600
-640
16
-16
0
0
0
112
1056
1200
896
720
608
352
80
-160
-336
-544
-672
-976
-1232
-448
48
0
0
0
0
144
1312
1552
1200
976
832
528
240
-16
-224
-464
-560
-864
-1168
-464
48
-16
-16
-16
0
112
1216
1520
1136
896
752
496
208
-48
-272
-480
-624
-960
-1312
-704
16
0
-16
-16
0
64
896
1200
896
688
560
336
64
-224
-400
-624
-800
-1136
-1552
-976
-16
0
-16
-16
-16
16
608
896
640
480
400
224
-32
-320
-512
-704
-912
-1232
-1680
-1168
-48
0
0
0
-16
16
544
896
656
496
416
240
-16
-304
-496
-688
-880
-1168
-1552
-1088
-48
0
0
0
-16
16
688
1200
928
736
608
400
128
-144
-368
-576
-736
-992
-1344
-928
0
0
0
-16
-16
16
832
1520
1168
928
784
544
256
16
-224
-480
-576
-816
-1168
-848
0
0
-16
-16
-16
16
800
1616
1264
992
816
576
272
32
-224
-448
-576
-832
-1216
-976
-48
0
-16
-16
-16
0
592
1344
1040
784
672
480
176
-80
-384
-576
-752
-1040
-1488
-1376
-176
0
0
-16
-16
0
352
912
672
496
432
288
16
-240
-560
-816
-1056
-1280
-1744
-1696
-320
0
-16
0
0
-16
208
672
480
352
304
208
-32
-272
-592
-864
-1088
-1312
-1744
-1744
-368
0
0
0
0
-16
224
752
576
432
368
272
32
-176
-464
-752
-944
-1120
-1504
-1552
-352
0
0
0
0
0
320
1120
944
736
608
496
240
0
-256
-432
-576
-816
-1184
-1248
-256
16
-16
-16
-16
0
384
1456
1280
1008
848
704
400
160
-64
-208
-384
-640
-1008
-1136
-224
16
0
-16
-16
0
368
1584
1440
1120
928
752
448
176
-48
-192
-400
-640
-1024
-1168
-256
32
0
-16
0
0
304
1504
1408
1088
912
752
448
176
-32
-240
-496
-688
-1088
-1296
-368
32
0
-16
0
0
224
1296
1280
976
800
656
384
144
-80
-320
-560
-736
-1120
-1392
-496
32
-16
-16
0
0
160
1168
1216
928
768
656
400
144
-96
-320
-560
-704
-1056
-1344
-512
32
-16
0
-16
-16
128
1184
1328
992
816
720
464
208
-32
-272
-496
-608
-944
-1280
-528
48
-16
0
0
-16
112
1184
1408
1072
880
752
496
240
16
-224
-480
-608
-928
-1232
-528
48
0
0
0
0
96
1152
1472
1104
896
768
528
256
32
-224
-480
-624
-928
-1296
-624
32
0
-16
-16
-16
64
992
1376
1040
816
704
464
208
-16
-256
-512
-672
-976
-1376
-784
16
0
-16
-16
0
32
832
1264
944
720
640
432
160
-96
-320
-576
-752
-1072
-1456
-928
0
0
-16
-16
0
16
688
1152
848
656
592
400
112
-144
-352
-592
-784
-1104
-1536
-1072
-16
0
-16
0
-16
0
592
1104
816
608
528
352
80
-192
-384
-624
-832
-1152
-1568
-1184
-64
0
0
0
-16
0
480
1008
752
560
480
320
48
-224
-432
-640
-880
-1184
-1616
-1328
-112
0
0
0
-16
0
400
912
672
496
416
272
16
-256
-528
-704
-896
-1184
-1632
-1472
-176
0
-16
0
0
0
352
864
656
480
416
288
32
-224
-512
-752
-912
-1120
-1552
-1456
-208
0
-16
-16
0
0
368
976
784
608
528
400
144
-96
-368
-544
-704
-944
-1360
-1312
-176
0
-16
-16
0
0
480
1392
1168
928
784
608
336
112
-80
-304
-448
-640
-1008
-944
-64
16
-16
-16
-16
0
576
1808
1568
1280
1072
864
544
304
128
-112
-256
-432
-784
-736
16
16
0
-16
-16
0
592
0
1808
1440
1200
976
624
384
176
-80
-224
-368
-704
-720
16
32
0
-16
-16
0
480
1952
1776
1408
1152
928
592
320
64
-192
-384
-496
-848
-944
-80
32
-16
0
0
-16
320
1600
1504
1184
960
784
464
176
-96
-336
-528
-688
-1040
-1232
-256
32
0
0
-16
-16
176
1216
1200
896
720
576
288
0
-256
-464
-688
-912
-1296
-1520
-448
32
-16
-16
-16
-16
80
848
896
672
528
416
176
-128
-400
-576
-816
-1072
-1472
-1744
-656
16
-16
-16
0
-16
32
656
736
512
400
336
96
-176
-480
-672
-896
-1168
-1552
-1872
-800
16
-16
-16
0
-16
16
592
720
512
384
336
128
-128
-464
-720
-992
-1184
-1504
-1840
-848
16
0
-16
0
0
32
672
848
624
496
432
208
-32
-336
-608
-800
-1008
-1344
-1712
-848
16
0
0
-16
-16
48
784
1040
768
608
512
304
48
-240
-528
-800
-928
-1200
-1552
-816
16
0
-16
0
0
48
832
1168
896
704
624
384
96
-144
-400
-592
-768
-1120
-1488
-848
16
0
-16
-16
0
32
848
1264
944
752
640
416
144
-96
-336
-544
-720
-1072
-1456
-912
0
0
-16
-16
0
32
800
1296
976
784
688
448
176
-80
-304
-512
-704
-1024
-1424
-944
0
0
0
-16
-16
16
752
1328
1008
784
688
496
208
-48
-256
-480
-672
-1024
-1424
-1040
-16
0
0
-16
-16
0
688
1344
1008
784
656
464
160
-80
-352
-624
-736
-1024
-1424
-1088
-32
0
-16
0
-16
0
624
1376
1040
816
704
512
208
-48
-272
-528
-704
-976
-1376
-1104
-32
0
0
0
0
0
592
1456
1136
896
752
560
272
32
-192
-448
-608
-880
-1280
-1104
-48
0
-16
-16
-16
0
560
1520
1216
960
816
640
352
112
-80
-352
-544
-784
-1200
-1104
-64
0
0
0
0
-16
496
1520
1248
960
832
656
368
144
-48
-304
-528
-752
-1184
-1184
-112
16
0
-16
0
-16
368
1360
1152
880
720
592
320
80
-160
-400
-608
-832
-1264
-1312
-208
16
0
0
0
-16
256
1168
1008
768
640
512
256
0
-256
-464
-688
-912
-1328
-1456
-304
16
0
0
0
-16
176
1024
912
672
560
448
208
-32
-304
-496
-720
-976
-1376
-1568
-400
16
-16
0
-16
-16
144
976
928
688
560
464
208
-16
-288
-464
-704
-928
-1312
-1536
-432
16
-16
-16
-16
-16
144
1040
1024
768
624
528
272
32
-240
-432
-672
-880
-1264
-1536
-480
32
-16
-16
-16
-16
128
1072
1104
832
672
576
320
64
-208
-384
-608
-800
-1168
-1472
-512
32
-16
0
0
-16
112
1056
1152
880
704
608
368
96
-160
-368
-608
-800
-1168
-1488
-592
32
-16
0
0
0
80
960
1120
864
688
592
352
112
-144
-352
-560
-720
-1088
-1456
-672
16
-16
-16
-16
-16
64
928
1184
896
720
608
384
144
-112
-320
-544
-704
-1056
-1408
-688
16
0
0
0
0
48
944
1280
992
800
688
448
176
-48
-288
-480
-608
-928
-1312
-688
32
0
-16
0
0
48
992
1424
1120
896
768
528
256
16
-208
-416
-528
-832
-1200
-640
32
0
0
0
-16
32
992
1568
1232
1008
864
624
320
80
-176
-416
-512
-784
-1168
-672
48
0
0
-16
-16
16
896
1520
1184
960
816
576
288
64
-208
-464
-608
-864
-1280
-832
16
0
-16
-16
-16
16
736
1408
1088
864
736
528
240
-32
-272
-528
-688
-960
-1376
-976
0
0
0
-16
-16
0
560
1232
960
752
656
448
160
-128
-384
-576
-752
-1040
-1456
-1152
-48
0
0
-16
0
0
464
1152
880
688
576
400
128
-176
-432
-608
-800
-1088
-1472
-1200
-64
0
-16
-16
0
-16
416
1152
912
704
592
416
144
-160
-448
-608
-784
-1056
-1424
-1232
-96
0
-16
-16
-16
-16
384
1152
912
688
576
400
144
-112
-416
-608
-784
-1056
-1424
-1312
-144
0
-16
0
0
-16
336
1152
928
704
576
416
144
-112
-448
-720
-928
-1088
-1472
-1424
-224
16
-16
0
0
-16
256
992
800
608
512
384
128
-112
-448
-736
-944
-1152
-1568
-1632
-336
16
0
0
0
-16
192
896
736
528
448
336
80
-144
-448
-752
-1008
-1200
-1616
-1712
-432
16
-16
-16
-16
-16
144
784
656
480
416
320
96
-128
-400
-688
-944
-1152
-1568
-1728
-480
16
-16
-16
-16
-16
160
880
784
592
480
368
160
-64
-320
-560
-800
-1024
-1392
-1584
-480
16
-16
0
0
0
192
1120
1072
816
656
544
304
48
-208
-432
-656
-832
-1168
-1360
-400
32
-16
0
-16
0
224
1376
1376
1072
896
736
448
192
-48
-272
-480
-624
-928
-1152
-304
48
0
0
0
0
224
1584
1664
1280
1024
848
560
288
32
-112
-304
-480
-832
-1056
-272
48
0
0
0
-16
176
1568
1776
1360
1120
912
624
336
128
-48
-304
-480
-848
-1136
-352
64
0
0
-16
-16
128
1360
1648
1248
992
816
544
272
48
-128
-368
-560
-960
-1328
-592
48
0
-16
0
0
48
992
1360
1024
816
688
432
160
-80
-272
-496
-704
-1104
-1520
-816
32
0
-16
0
-16
16
704
1088
800
624
544
336
80
-160
-432
-624
-848
-1200
-1648
-992
16
0
0
-16
-16
0
576
1024
752
576
496
288
48
-208
-448
-624
-832
-1168
-1600
-1024
0
0
-16
-16
-16
0
592
1120
848
672
576
368
112
-144
-384
-592
-768
-1072
-1472
-976
0
0
0
-16
-16
0
672
1312
1008
784
672
448
176
-64
-288
-528
-672
-976
-1392
-1008
0
0
-16
0
-16
0
640
1344
1040
816
704
480
208
-48
-288
-512
-688
-976
-1408
-1104
-32
0
0
-16
-16
0
528
1232
944
736
640
448
176
-64
-368
-672
-848
-1088
-1520
-1328
-112
0
-16
-16
-16
-16
384
1056
816
624
544
368
128
-96
-416
-704
-896
-1120
-1568
-1440
-176
0
-16
-16
0
-16
320
1008
816
640
560
400
160
-80
-368
-672
-864
-1056
-1472
-1408
-192
0
0
-16
-16
-16
336
1168
960
752
672
496
256
16
-224
-400
-576
-864
-1280
-1296
-176
16
0
0
0
-16
384
1424
1232
992
864
672
400
160
-64
-208
-368
-640
-1056
-1072
-112
16
0
0
0
-16
432
1680
1488
1200
1024
832
528
272
80
-96
-256
-464
-864
-944
-64
32
0
0
0
-16
384
1792
1632
1296
1088
864
560
288
80
-144
-336
-480
-832
-928
-80
32
-16
-16
0
-16
304
1680
1600
1264
1040
832
528
240
0
-256
-480
-608
-960
-1120
-208
32
-16
-16
-16
-16
176
1312
1312
992
816
640
368
96
-192
-416
-656
-848
-1232
-1488
-448
32
-16
-16
-16
0
64
896
976
720
592
464
208
-64
-400
-592
-832
-1104
-1472
-1760
-672
16
-16
-16
0
-16
16
624
752
528
432
352
128
-128
-448
-720
-992
-1200
-1536
-1920
-816
16
0
0
0
-16
0
592
784
576
448
368
144
-96
-416
-688
-928
-1104
-1408
-1760
-800
16
0
0
0
-16
32
800
1088
816
672
576
336
64
-240
-464
-672
-816
-1136
-1504
-688
48
0
0
0
-16
48
992
1392
1072
880
752
480
208
-48
-256
-464
-592
-928
-1280
-592
64
-16
0
0
0
48
1072
1568
1200
960
816
544
256
-16
-192
-400
-592
-960
-1328
-720
48
0
-16
-16
0
32
880
1392
1056
832
736
464
192
-64
-352
-624
-800
-1072
-1520
-976
0
0
0
0
0
0
624
1104
800
624
544
336
80
-176
-496
-800
-1008
-1264
-1696
-1216
-48
0
-16
-16
0
0
480
1008
752
592
544
352
80
-160
-480
-784
-992
-1200
-1632
-1200
-32
0
0
0
0
0
544
1248
944
752
656
464
192
-32
-304
-512
-704
-1008
-1424
-1088
0
0
-16
0
0
0
640
1536
1200
960
832
608
320
80
-128
-320
-528
-816
-1200
-928
16
0
-16
0
-16
0
672
1744
1392
1104
960
736
432
176
-32
-208
-416
-688
-1104
-912
32
0
-16
-16
0
-16
592
1760
1440
1120
944
720
400
144
-64
-272
-464
-720
-1152
-1040
-32
16
0
-16
-16
-16
432
1552
1312
1008
848
640
352
80
-160
-416
-640
-848
-1280
-1264
-112
16
0
0
0
-16
288
1360
1184
896
736
544
272
32
-224
-464
-672
-912
-1344
-1408
-192
16
0
0
-16
-16
208
1280
1152
880
720
544
288
16
-256
-464
-688
-912
-1312
-1424
-240
32
-16
-16
-16
-16
160
1232
1184
896
752
592
304
48
-240
-448
-656
-864
-1264
-1456
-288
32
-16
-16
0
-16
128
1200
1200
912
752
592
336
64
-224
-432
-640
-864
-1248
-1472
-368
32
-16
-16
-16
-16
96
1104
1216
944
768
640
368
112
-176
-384
-624
-832
-1216
960
784
656
384
96
-176
-400
-640
-832
-1168
-1536
-640
48
0
0
0
0
32
880
1232
912
720
608
352
64
-224
-480
-672
-848
-1184
-1536
-736
48
0
0
-16
0
16
784
1216
928
736
624
368
96
-192
-432
-640
-800
-1120
-1520
-800
48
0
-16
-16
0
0
768
1296
976
768
640
400
128
-144
-416
-592
-768
-1072
-1472
-832
48
0
-16
0
0
0
768
1408
1088
848
720
464
176
-112
-368
-560
-688
-976
-1392
-832
48
0
0
-16
-16
0
736
1472
1120
880
752
496
192
-96
-384
-592
-752
-1040
-1456
-976
32
0
-16
0
0
-16
592
1344
1008
784
688
432
144
-128
-464
-752
-928
-1168
-1568
-1168
-16
0
0
0
0
-16
400
1136
880
688
592
400
128
-144
-464
-784
-1008
-1248
-1664
-1344
-64
0
0
-16
-16
-16
288
1024
800
608
528
352
96
-144
-448
-768
-992
-1232
-1632
-1424
-96
0
0
0
0
-16
272
1104
896
688
592
416
144
-112
-400
-672
-880
-1120
-1504
-1344
-96
0
0
-16
-16
-16
320
1296
1072
832
720
544
240
-16
-304
-528
-736
-976
-1360
-1264
-80
16
-16
0
0
-16
336
1456
1232
944
784
576
304
32
-256
-496
-688
-928
-1296
-1264
-128
16
0
0
-16
-16
288
1408
1232
960
784
592
304
48
-240
-480
-704
-928
-1328
-1376
-208
16
-16
-16
-16
-16
192
1232
1120
848
688
528
272
16
-240
-496
-736
-976
-1392
-1568
-336
32
-16
-16
0
-16
128
1040
1008
768
624
496
224
-16
-288
-528
-768
-1008
-1424
-1632
-432
32
-16
-16
-16
-16
96
976
992
720
608
496
240
0
-256
-496
-752
-960
-1360
-1632
-480
32
-16
0
0
0
80
992
1056
784
640
512
272
32
-208
-432
-688
-896
-1264
-1520
-480
32
0
-16
-16
-16
80
1072
1200
896
720
576
336
80
-176
-384
-640
-832
-1152
-1424
-480
48
0
-16
-16
-16
64
1072
1296
960
768
608
352
80
-144
-384
-608
-784
-1104
-1440
-544
48
-16
-16
-16
-16
48
976
1280
944
736
592
352
64
-192
-400
-656
-848
-1184
-1536
-704
48
-16
0
0
0
16
784
1104
784
608
512
256
0
-240
-480
-720
-928
-1280
-1728
-944
16
-16
-16
-16
0
0
512
832
576
432
352
144
-96
-320
-560
-832
-1056
-1424
-1888
-1184
-32
0
-16
-16
0
-16
352
704
480
352
288
112
-144
-368
-592
-864
-1056
-1392
-1856
-1248
-48
0
-16
0
0
-16
384
816
576
432
368
192
-48
-272
-512
-720
-896
-1200
-1664
-1216
-32
0
0
0
-16
0
544
1136
864
672
576
368
112
-144
-368
-592
-752
-1024
-1424
-1024
-16
0
-16
0
-16
0
672
1408
1120
896
784
560
272
32
-224
-432
-592
-832
-1232
-944
0
0
-16
-16
-16
0
688
1552
1248
992
864
640
368
96
-160
-368
-560
-816
-1168
-928
-16
0
-16
0
-16
0
608
1520
1248
1008
880
672
368
112
-144
-368
-560
-800
-1184
-1024
-48
0
0
-16
-16
-16
496
1424
1184
944
832
640
368
112
-144
-384
-560
-816
-1216
-1168
-96
0
0
0
0
-16
400
1328
1120
896
800
624
352
112
-160
-384
-592
-832
-1216
-1200
-144
16
0
-16
-16
-16
336
1296
1120
896
800
624
384
144
-128
-368
-592
-832
-1232
-1264
-176
16
0
-16
0
-16
288
1312
1152
912
800
656
400
160
-112
-336
-560
-800
-1168
-1248
-208
16
0
-16
0
-16
256
1344
1248
1024
880
720
464
208
-80
-288
-512
-736
-1104
-1216
-208
32
0
0
-16
-16
224
1392
1344
1088
928
768
496
240
-32
-256
-448
-656
-1008
-1184
-192
32
0
0
0
-16
192
1424
1424
1120
944
784
512
240
-32
-208
-368
-592
-992
-1200
-256
32
-16
-16
0
-16
144
1280
1344
1056
880
736
448
192
-64
-304
-512
-704
-1056
-1344
-384
48
-16
-16
-16
-16
80
1088
1216
928
752
624
384
128
-144
-384
-624
-832
-1184
-1472
-512
32
-16
-16
0
0
32
880
1104
848
704
592
336
80
-192
-448
-736
-912
-1232
-1584
-640
48
-16
0
-16
0
16
768
1056
784
624
544
304
64
-192
-464
-752
-928
-1248
-1616
-736
32
-16
0
0
0
0
720
1088
816
640
544
304
64
-176
-432
-688
-880
-1232
-1600
-800
32
0
-16
0
-16
0
672
1072
800
624
528
320
64
-176
-432
-704
-912
-1248
-1648
-912
32
0
-16
-16
-16
0
624
1088
784
608
528
304
32
-192
-432
-688
-880
-1200
-1600
-976
16
0
-16
-16
0
0
640
1152
864
688
592
384
96
-144
-384
-624
-800
-1104
-1504
-944
16
0
0
-16
-16
0
688
1328
1008
800
672
448
192
-48
-288
-512
-688
-944
-1328
-896
32
0
-16
0
-16
0
784
1616
1264
1008
848
608
336
80
-160
-384
-544
-800
-1168
-800
64
0
0
0
-16
0
752
1712
1344
1056
912
656
352
96
-144
-368
-560
-816
-1200
-912
48
0
0
0
0
-16
608
1568
1248
976
832
592
304
48
-208
-432
-656
-928
-1328
-1104
-16
0
0
0
0
-16
400
1328
1072
848
736
528
256
0
-256
-480
-704
-976
-1392
-1248
-80
0
0
0
0
-16
288
1200
992
768
672
480
224
-16
-256
-480
-688
-960
-1376
-1344
-128
16
-16
-16
-16
-16
240
1200
1024
800
688
528
256
16
-256
-480
-704
-960
-1360
-1360
-176
16
0
-16
0
-16
208
1200
1056
816
704
544
272
16
-240
-464
-688
-944
-1376
-1472
-240
16
-16
-16
-16
-16
144
1104
1024
784
672
528
256
16
-256
-480
-720
-960
-1376
-1520
-304
32
0
0
0
-16
112
1056
1056
816
688
560
288
32
-240
-480
-704
-928
-1328
-1504
-336
32
0
0
0
-16
96
1120
1184
912
768
608
352
112
-144
-304
-480
-704
-1168
-1440
-352
48
0
-16
-16
-16
112
1216
1344
1056
864
720
432
176
-96
-240
-448
-656
-1088
-1344
-368
48
0
-16
-16
-16
112
1232
1408
1104
928
784
496
224
-32
-192
-432
-640
-1056
-1376
-416
48
-16
-16
0
0
80
1120
1360
1040
880
752
480
224
-48
-256
-480
-672
-1056
-1392
-512
48
-16
-16
-16
-16
32
992
1312
1008
848
736
496
224
-32
-272
-544
-720
-1056
-1424
-592
48
-16
0
0
0
16
912
1312
1008
816
720
480
224
-32
-288
-512
-672
-976
-1392
-624
64
0
-16
-16
0
16
928
1456
1120
912
784
544
272
0
-224
-464
-624
-880
-1264
-592
80
0
-16
-16
0
0
928
1584
1216
992
864
592
304
32
-208
-464
-624
-864
-1280
-656
80
0
0
0
-16
0
832
1536
1168
928
784
544
256
-16
-272
-512
-672
-944
-1360
-816
64
0
0
-16
-16
-16
608
1344
1024
800
672
448
176
-96
-400
-592
-768
-1104
-1536
-1072
0
0
-16
0
-16
-32
336
992
736
544
464
288
48
-208
-544
-816
-1008
-1312
-1744
-1376
-64
0
-16
0
0
-32
176
816
608
448
384
224
-16
-272
-608
-864
-1072
-1360
-1760
-1472
-96
0
0
0
0
-16
160
848
672
496
432
272
32
-192
-512
-816
-1040
-1280
-1680
-1456
-96
0
0
-16
0
-16
256
1088
880
672
576
384
128
-96
-368
-640
-864
-1088
-1456
-1280
-80
0
0
-16
-16
-16
336
1360
1136
880
736
528
256
16
-240
-480
-688
-912
-1280
-1168
-64
16
-16
0
0
-16
352
1456
1248
960
800
592
304
64
-192
-416
-608
-832
-1216
-1216
-112
16
0
0
-16
-16
288
1424
1248
960
800
608
320
48
-208
-432
-656
-896
-1264
-1312
-176
32
0
-16
0
-16
208
1280
1184
912
768
592
304
48
-192
-432
-672
-896
-1296
-1424
-256
32
-16
0
0
-16
160
1216
1168
880
736
560
304
32
-208
-432
-688
-912
-1280
-1440
-288
32
-16
-16
0
-16
112
1200
1232
944
784
624
336
64
-176
-400
-640
-832
-1184
-1376
-304
48
-16
0
0
0
96
1216
1312
1008
816
656
384
96
-144
-368
-576
-752
-1088
-1344
-336
48
0
-16
-16
-16
80
1200
1392
1056
864
704
416
128
-144
-352
-560
-720
-1056
-1328
-400
64
0
-16
-16
-16
48
1072
1344
1024
832
688
416
144
-128
-352
-560
-752
-1104
-1440
-528
48
0
0
-16
0
16
864
1216
912
720
608
352
80
-176
-400
-640
-832
-1184
-1568
-688
48
-16
-16
0
0
-16
640
1056
800
640
544
320
48
-208
-448
-704
-928
-1280
-1680
-848
32
0
-16
0
0
-32
528
976
720
560
496
272
32
-224
-480
-736
-928
-1280
-1728
-976
32
0
0
0
-16
-32
432
928
688
544
480
272
16
-224
-480
-752
-944
-1280
-1728
-1072
16
0
0
0
0
-16
416
944
704
544
480
272
32
-208
-464
-720
-928
-1264
-1712
-1168
-16
0
0
0
0
-16
400
944
704
544
480
288
32
-208
-448
-704
-912
-1232
-1664
-1216
-32
0
-16
-16
0
-16
416
1024
784
608
528
336
64
-192
-448
-704
-912
-1200
-1616
-1232
-48
0
-16
-16
0
-16
480
1184
912
704
624
416
144
-112
-368
-608
-784
-1040
-1424
-1152
-32
0
-16
-16
-16
-16
544
1424
1136
880
752
544
272
16
-240
-464
-640
-864
-1216
-960
16
0
0
0
0
-16
592
1696
1392
1104
928
704
416
160
-96
-320
-480
-672
-1008
-832
64
0
0
0
0
-16
576
1872
1568
1264
1056
816
512
240
-32
-224
-384
-560
-880
-768
64
16
0
-16
-16
-16
480
1872
1632
1312
1104
864
544
256
-16
-208
-304
-512
-912
-880
32
16
0
0
-16
-16
352
1680
1456
1152
976
768
464
192
-80
-320
-528
-752
-1136
-1200
-112
32
0
-16
-16
-16
176
1280
1168
896
752
576
304
64
-208
-464
-704
-944
-1376
-1520
-288
32
-16
0
0
-16
32
864
864
640
528
416
176
-64
-320
-592
-896
-1152
-1568
-1808
-480
32
0
-16
0
-16
-16
624
688
496
400
320
96
-128
-400
-640
-944
-1200
-1600
-1872
-576
32
-16
-16
-16
-16
-16
672
816
608
496
400
160
-80
-352
-576
-864
-1088
-1488
-1760
-560
32
0
0
0
0
16
832
992
736
608
496
256
16
-240
-480
-768
-960
-1312
-1616
-544
48
0
0
-16
0
48
960
1216
896
720
592
352
96
-160
-384
-672
-864
-1216
-1520
-576
48
-16
0
0
0
32
960
1264
960
784
640
384
128
-128
-368
-624
-816
-1168
-1552
-688
48
0
0
0
0
16
832
1200
896
720
608
384
96
-144
-368
-624
-832
-1200
-1600
-800
32
0
0
-16
0
0
768
1200
912
736
640
400
128
-112
-352
-576
-784
-1120
-1552
-848
32
0
0
0
-16
0
720
1216
928
736
640
416
160
-80
-320
-544
-720
-1056
-1504
-912
32
0
0
-16
-16
0
688
1312
992
800
688
464
192
-64
-304
-528
-704
-1008
-1408
-896
32
0
-16
-16
-16
-16
704
1424
1088
864
752
512
224
-32
-272
-496
-656
-928
-1344
-912
32
0
0
0
-16
-16
672
1504
1152
912
784
544
240
-32
-272
-496
-672
-928
-1280
-896
48
0
-16
-16
0
-16
624
1552
1216
960
832
576
272
0
-256
-496
-688
-928
-1296
-976
32
0
-16
-16
0
-16
496
1472
1168
912
784
544
272
0
-256
-496
-704
-960
-1360
-1152
-16
0
-16
-16
-16
-16
336
1280
1040
800
688
496
224
-48
-320
-560
-784
-1056
-1488
-1360
-96
0
0
0
-16
-16
208
1104
928
720
624
464
192
-64
-336
-576
-800
-1072
-1520
-1504
-176
16
0
0
0
-16
160
1024
896
688
592
448
192
-64
-336
-560
-800
-1072
-1504
-1520
-224
16
0
0
0
-16
144
1088
1008
800
688
528
256
0
-256
-496
-720
-944
-1344
-1424
-224
16
-16
0
0
-16
176
1200
1136
880
752
608
336
80
-176
-416
-640
-880
-1248
-1376
-240
32
-16
-16
-16
-16
160
1264
1232
944
800
656
400
128
-160
-384
-608
-832
-1200
-1360
-288
32
0
0
-16
-16
144
1216
1248
960
832
688
416
160
-128
-352
-592
-800
-1168
-1408
-352
48
-16
-16
0
-16
96
1152
1248
944
800
672
432
176
-112
-336
-592
-800
-1168
-1424
-416
48
-16
-16
0
0
64
1072
1248
976
800
672
416
160
-112
-352
-592
-784
-1136
-1440
-464
48
-16
0
-16
-16
48
1040
1280
976
768
656
416
160
-96
-336
-576
-768
-1120
-1440
-528
48
-16
-16
-16
0
32
992
1328
1008
816
688
432
176
-96
-320
-560
-736
-1056
-1408
-560
64
0
256
0
-240
-480
-656
-976
-1360
-752
64
0
0
-16
-16
-16
672
1360
1040
816
704
480
208
-32
-288
-528
-688
-1008
-1456
-944
48
0
0
0
0
-16
512
1232
944
736
640
432
160
-80
-336
-592
-800
-1120
-1568
-1088
16
0
0
-16
0
-32
368
1104
864
672
592
400
128
-96
-352
-624
-864
-1168
-1632
-1248
-16
0
0
0
0
-32
304
1040
800
624
528
352
96
-128
-368
-624
-848
-1136
-1584
-1296
-64
0
-16
-16
0
-16
288
1072
864
672
576
400
128
-96
-336
-592
-832
-1120
-1552
-1328
-80
0
-16
-16
-16
-16
288
1136
928
720
608
432
160
-80
-320
-544
-752
-1040
-1472
-1376
-112
0
-16
-16
-16
-16
288
1184
992
784
672
496
208
-48
-304
-512
-720
-992
-1408
-1360
-144
16
-16
0
-16
-16
256
1200
1024
800
688
512
256
-16
-256
-496
-720
-976
-1392
-1424
-192
16
-16
0
0
-16
208
1152
1008
784
672
496
224
-32
-288
-496
-720
-960
-1360
-1440
-256
16
0
0
0
-16
192
1200
1104
864
720
560
288
16
-240
-464
-688
-896
-1280
-1376
-256
32
0
0
0
-16
176
1264
1200
928
784
624
336
80
-192
-432
-608
-816
-1168
-1328
-256
32
0
0
0
-16
144
1312
1344
1040
864
704
416
144
-144
-368
-560
-752
-1072
-1248
-256
48
0
0
-16
0
128
1344
1440
1120
928
752
480
192
-80
-320
-528
-720
-1040
-1264
-304
48
-16
-16
-16
-16
96
1248
1424
1104
896
720
448
176
-96
-336
-576
-768
-1104
-1344
-384
64
-16
-16
-16
-16
48
1104
1360
1040
848
704
432
160
-128
-368
-624
-816
-1168
-1472
-528
64
-16
-16
-16
0
16
896
1216
912
736
624
368
112
-144
-416
-672
-880
-1248
-1632
-736
48
-16
-16
-16
0
0
688
1088
800
640
560
336
80
-176
-432
-688
-912
-1280
-1712
-864
32
0
-16
-16
0
-16
592
1024
752
608
528
320
80
-160
-432
-688
-896
-1248
-1712
-960
16
0
0
-16
-16
-16
544
1040
768
592
528
320
80
-160
-416
-672
-864
-1200
-1616
-960
16
0
-16
0
-16
-16
592
1184
880
704
608
384
128
-128
-368
-640
-832
-1136
-1552
-976
32
0
-16
0
0
-16
592
1248
944
720
624
416
144
-96
-336
-608
-784
-1088
-1520
-1056
16
0
0
0
0
-16
560
1296
976
752
640
432
160
-80
-336
-576
-784
-1088
-1520
-1136
-16
0
-16
-16
-16
-16
464
1232
960
736
640
432
176
-64
-304
-560
-752
-1056
-1520
-1248
-48
0
-16
0
0
-16
384
1200
944
720
624
432
176
-64
-320
-544
-752
-1040
-1472
-1264
-80
0
0
0
-16
-16
352
1232
1008
784
672
496
224
-32
-288
-512
-720
-976
-1408
-1280
-96
0
-16
0
-16
-16
352
1312
1104
848
720
528
240
0
-256
-480
-672
-912
-1328
-1296
-112
16
-16
0
0
-16
336
1440
1232
944
784
592
304
48
-208
-432
-624
-832
-1216
-1232
-96
16
-16
-16
0
-16
304
1488
1344
1056
864
672
368
112
-160
-368
-560
-752
-1136
-1232
-144
32
-16
-16
0
-16
256
1488
1392
1072
896
704
416
144
-128
-352
-576
-768
-1136
-1232
-176
32
0
-16
0
-16
176
1376
1360
1072
912
736
432
160
-112
-352
-592
-784
-1168
-1344
-272
32
0
0
-16
-16
112
1152
1200
928
768
624
368
112
-144
-400
-656
-880
-1280
-1552
-432
32
0
0
0
0
48
928
1056
816
672
560
320
64
-192
-416
-688
-912
-1312
-1648
-560
32
-16
0
0
0
16
768
992
768
640
544
320
48
-192
-416
-688
-912
-1296
-1664
-624
32
-16
0
-16
-16
16
848
1120
864
720
624
384
112
-144
-368
-592
-784
-1136
-1456
-560
48
-16
-16
-16
-16
32
1008
1376
1088
896
768
512
224
-48
-272
-512
-688
-992
-1312
-496
64
0
0
-16
-16
32
1072
1536
1184
976
832
560
272
16
-224
-464
-640
-928
-1280
-544
80
0
0
0
-16
16
1008
1552
1200
960
832
560
272
-16
-256
-496
-672
-976
-1344
-672
64
0
0
0
0
0
784
1376
1072
880
768
512
224
-48
-304
-544
-736
-1056
-1488
-880
48
0
0
0
-16
-16
576
1184
912
720
640
432
160
-112
-368
-608
-800
-1120
-1552
-1024
16
0
0
-16
-16
-16
448
1120
880
704
640
432
176
-80
-352
-608
-800
-1120
-1552
-1088
0
0
-16
-16
0
-16
432
1168
912
720
640
448
208
-48
-304
-576
-768
-1072
-1504
-1136
0
0
0
0
-16
-16
448
1280
1008
800
688
512
224
-32
-288
-528
-736
-1008
-1424
-1120
0
0
0
0
0
-16
432
1328
1072
848
752
560
256
0
-256
-512
-736
-1008
-1424
-1200
-32
0
0
0
-16
-16
368
1312
1056
832
720
528
256
0
-272
-512
-736
-1008
-1424
-1280
-80
0
0
-16
-16
-16
288
1232
1040
816
704
528
256
0
-272
-528
-768
-1040
-1440
-1376
-144
16
-16
-16
0
-16
224
1168
992
752
656
496
240
0
-272
-544
-784
-1040
-1472
-1488
-208
16
0
0
-16
-16
176
1136
1008
752
640
496
224
-16
-288
-528
-784
-1056
-1456
-1488
-240
32
0
-16
0
-16
144
1120
1040
784
656
512
256
0
-256
-496
-752
-992
-1376
-1504
-272
32
0
0
-16
-16
144
1152
1088
832
688
544
272
48
-208
-432
-672
-880
-1264
-1408
-288
32
-16
-16
-16
-16
112
1184
1216
944
752
592
352
112
-160
-368
-592
-784
-1152
-1360
-320
48
-16
-16
0
0
96
1184
1264
960
768
624
368
112
-144
-384
-592
-784
-1152
-1456
-432
48
0
0
0
-16
64
1072
1232
912
736
592
336
80
-192
-416
-640
-848
-1216
-1536
-528
48
0
0
-16
-16
32
896
1136
832
672
560
304
48
-208
-448
-720
-928
-1312
-1696
-704
32
-16
0
-16
-16
16
752
1040
752
592
496
256
16
-224
-464
-736
-944
-1296
-1696
-800
32
-16
0
-16
0
0
704
1088
800
624
528
288
32
-208
-432
-688
-880
-1232
-1648
-848
32
-16
-16
-16
-16
0
736
1184
864
656
544
304
32
-192
-432
-656
-816
-1136
-1568
-880
48
0
-16
0
0
0
752
1296
976
752
624
368
80
-144
-384
-608
-784
-1088
-1488
-880
48
0
-16
0
-16
0
768
1424
1088
864
736
480
192
-48
-272
-512
-688
-960
-1376
-848
48
0
0
0
-16
0
768
1552
1216
960
816
560
272
16
-224
-432
-608
-864
-1248
-816
64
0
0
-16
0
-16
704
1632
1296
1040
880
640
320
48
-176
-384
-544
-784
-1200
-864
48
0
-16
-16
0
-16
608
1584
1264
1008
864
640
320
48
-208
-416
-560
-832
-1264
-1040
16
0
-16
-16
0
-16
432
1408
1152
896
784
576
272
0
-256
-496
-672
-944
-1392
-1248
-48
0
-16
0
0
-16
288
1200
1008
800
704
528
240
-16
-272
-528
-752
-1024
-1504
-1424
-144
0
-16
0
-16
-16
208
1088
928
720
640
480
224
-32
-304
-544
-768
-1040
-1472
-1440
-176
16
0
-16
-16
-16
192
1168
1040
832
720
560
288
32
-256
-480
-688
-912
-1312
-1312
-144
16
0
-16
-16
-16
224
1376
1248
992
848
688
416
128
-144
-384
-592
-800
-1152
-1200
-112
32
0
-16
-16
-16
240
1536
1440
1136
976
784
496
208
-80
-304
-512
-704
-1040
-1120
-112
32
0
-16
-16
-16
192
1504
1472
1168
976
784
512
240
-48
-288
-528
-736
-1088
-1248
-208
48
-16
0
0
-16
112
1296
1344
1040
864
704
432
160
-128
-368
-608
-816
-1184
-1408
-336
48
-16
-16
-16
-16
48
1040
1200
928
768
624
368
112
-176
-416
-656
-864
-1248
-1536
-464
48
0
0
0
-16
16
864
1072
816
672
576
336
80
-192
-448
-704
-928
-1296
-1632
-592
48
-16
-16
0
0
0
752
1040
768
624
528
304
64
-208
-448
-720
-912
-1280
-1648
-656
48
0
-16
0
-16
-16
704
1056
784
624
528
304
64
-192
-432
-720
-944
-1296
-1664
-736
48
0
0
0
0
-16
704
1104
800
624
528
304
64
-192
-432
-704
-896
-1232
-1600
-768
48
0
-16
0
0
-16
688
1200
896
704
592
368
96
-160
-400
-672
-864
-1200
-1568
-816
48
0
0
0
0
-16
704
1280
944
736
640
384
112
-128
-384
-624
-816
-1152
-1568
-928
48
0
-16
-16
-16
-16
608
1248
928
704
608
384
112
-128
-384
-640
-832
-1152
-1600
-1040
16
0
-16
-16
-16
-16
480
1152
880
672
560
368
96
-144
-384
-640
-864
-1168
-1648
