-256
240
448
64
-128
-80
-16
352
0
-384
144
-64
128
368
-320
-256
0
320
352
112
-272
-912
-448
224
80
-128
-208
-80
112
32
496
-96
-416
448
688
-160
-160
-512
-32
80
-144
-224
48
320
208
0
128
-192
-16
64
-208
-48
-192
-208
-336
416
528
544
112
-224
-16
448
-224
-16
192
384
80
-96
-64
-48
-192
224
304
128
480
-64
96
32
-336
-32
-48
400
464
-192
-560
-512
128
304
336
352
416
432
-112
128
-16
-64
208
192
-464
-256
-384
-240
128
368
304
-160
-192
-80
-144
96
112
192
224
448
-96
-224
-112
-224
96
-32
-256
-160
-96
-16
336
336
448
0
-48
-688
-400
-16
128
48
416
688
-176
-96
320
304
320
-128
480
32
-416
16
240
0
-48
-336
-576
-832
-528
-176
208
288
-80
144
128
416
432
192
320
64
752
352
192
0
0
224
-496
-272
240
80
-16
-16
416
160
112
224
224
-112
160
416
64
-400
-48
192
128
16
-384
-128
-240
-64
0
224
48
304
-112
-48
-336
-192
-336
-176
-272
-640
176
288
496
624
80
-48
-272
-400
-240
-128
-80
-192
-592
-256
688
80
-352
-624
-880
-400
128
256
368
-16
-32
64
592
96
-144
-320
32
-112
320
-112
-528
-176
-304
176
64
176
-128
128
160
0
-304
-192
-128
-144
-112
160
208
384
-32
112
-176
32
-320
-496
32
-144
-432
144
-16
-48
-144
96
80
-80
-384
160
-32
240
192
-80
144
64
-304
80
128
160
-336
-224
-160
-208
-176
256
144
-336
-336
-96
-560
-320
-80
80
-80
-368
-256
-80
-128
176
176
-576
-384
-416
208
-64
32
-336
-704
-192
-96
400
224
-96
144
-272
240
560
-112
-400
-432
-192
432
-32
-32
-176
-160
-80
-80
-272
-400
16
432
128
64
64
-48
16
-96
-112
0
-16
-384
-304
-16
-32
192
-80
-240
160
-144
64
-16
-672
-416
-272
288
448
-112
-272
-208
416
32
-144
-16
416
96
-336
-496
-608
-208
-480
-352
-96
80
80
48
-176
432
-320
-96
32
32
64
336
304
-112
192
272
-192
-144
-112
320
48
-256
48
-208
-272
-336
-512
-64
-240
-288
-208
-176
-432
-32
-80
-560
-752
-640
16
544
464
512
464
128
160
-176
288
400
-384
-224
-48
192
80
176
0
32
-208
-448
-512
-96
-448
-176
656
144
-352
256
416
64
-336
64
0
-112
112
-160
-192
304
128
192
496
-64
-288
-336
-288
192
-224
-336
-96
80
-224
-288
-464
80
128
32
-144
544
16
-512
-352
112
480
240
-80
-288
-368
144
192
176
256
-224
0
160
112
464
-32
-544
-128
-64
-352
-144
176
48
-448
-304
32
592
336
-320
-496
-208
80
-208
-288
80
176
-80
-336
-64
448
-752
-432
96
-144
144
-48
-112
-112
-64
-176
-208
-224
-240
80
-240
384
128
-176
-320
80
-144
272
512
96
448
400
352
-48
-160
-304
-64
64
32
160
-224
-464
-16
-80
-160
-208
-32
192
96
-368
-256
-304
-80
448
224
272
-80
272
-160
-208
-416
-144
-288
-320
112
0
-160
256
288
464
-560
-608
-384
384
-256
144
432
240
-448
48
528
-288
32
128
288
80
-176
-352
-240
80
80
48
-288
-416
-320
368
96
112
384
-80
-512
-352
272
624
-208
48
176
-656
-400
64
-32
-32
-48
-192
-400
32
-32
336
288
-480
-288
448
80
-160
-112
-464
-112
64
224
-112
-48
16
176
64
64
-176
-432
-32
320
-112
-48
160
112
160
-128
-352
-352
192
-32
16
-240
160
48
-368
-192
80
-384
-144
32
48
-208
-384
-384
-80
128
336
480
-128
-624
-112
176
64
-288
-32
-64
-176
240
0
-144
128
128
800
432
96
320
-192
-80
80
160
-80
-352
-256
-160
-256
160
80
272
-208
-304
-112
-352
288
240
-272
-192
-112
-272
304
-128
-144
208
384
-240
-80
128
-448
-720
304
384
32
-304
240
256
224
160
-128
16
336
144
304
-48
96
336
16
-96
192
-128
64
160
-368
-320
-384
-304
176
-208
-400
-128
-128
-128
-224
-32
16
48
-256
-192
384
272
112
16
-192
-256
-400
-464
-224
32
-256
-416
-48
80
-208
208
-144
-208
-384
192
480
352
112
-192
-176
-144
64
368
48
-272
-688
-384
-32
384
448
-96
-96
-320
-224
48
0
688
368
-128
-256
-176
64
64
480
368
80
-32
32
-624
-336
-176
-656
-192
-48
16
288
-400
-688
96
-224
-128
-16
-320
-432
-208
-128
144
32
240
384
32
32
288
-16
-432
-368
-96
80
0
320
32
-320
-64
112
16
-144
208
80
-176
208
-176
-560
-464
112
384
-128
-288
64
80
16
160
-320
-48
-16
-368
176
-208
-352
-112
-144
-48
-368
-80
240
304
-144
160
208
-32
160
-176
-320
192
-208
208
112
-272
-208
160
512
-96
48
80
176
224
-144
48
-272
-256
272
336
688
496
-448
-400
-368
-544
-672
-480
0
64
144
-144
-208
-48
-368
-192
-64
304
272
176
112
16
80
160
-192
-320
-240
-80
-176
-80
-176
-64
-192
176
144
-320
-96
240
528
208
-320
-384
64
80
256
-128
-112
80
176
-48
-144
-320
272
448
-128
-64
0
-256
-464
-384
608
336
400
352
752
336
-176
-112
-128
-288
64
64
-112
-432
-544
128
96
-256
-352
-480
-608
-336
0
208
144
96
-96
240
-240
240
-96
-448
-256
-880
-720
-576
-640
-48
-48
224
144
-32
224
208
-16
48
48
-128
-192
80
-208
-144
-16
-160
560
240
-400
-64
-16
576
320
80
-48
240
320
208
688
528
128
-176
-144
320
64
144
864
592
-272
-64
96
-144
-176
-272
176
-64
-80
80
-272
368
544
304
64
288
128
304
80
-240
-528
-208
-320
176
176
96
-400
96
48
-48
-208
128
-208
32
96
-112
-176
0
-176
-48
-304
-192
112
144
0
48
-208
-512
-144
112
-400
-96
-512
-400
256
-176
-400
112
304
304
464
352
144
48
-464
-176
-32
-288
-304
80
768
608
576
880
0
-336
320
-480
-368
336
240
-64
-16
-128
288
-240
-800
-432
-288
-304
96
-80
-128
-192
-336
-176
-368
-496
-288
272
-288
-32
64
352
-144
64
80
336
208
-288
-128
-128
-416
-192
-208
-224
144
-256
-208
-320
272
464
32
-176
-272
-496
-176
176
224
-144
-96
-112
384
-112
48
496
400
32
-320
-496
-288
-272
-160
-16
112
384
64
-288
64
128
192
144
112
-256
96
304
256
448
256
-48
-464
-736
-192
-128
128
112
-448
-240
-240
-336
176
560
496
480
128
-224
160
160
96
112
-32
-384
-384
-480
-176
-608
-224
-272
-80
240
-16
96
-48
480
240
320
320
144
-304
-288
160
-288
64
256
64
128
96
-80
-384
-224
-576
-288
-176
-128
-432
-32
-224
48
448
400
-320
48
0
-32
-320
-400
-240
-384
-272
64
416
528
-176
-352
-144
80
80
-144
-80
-48
-32
-96
208
128
32
-208
-288
144
-208
-512
-176
-352
-176
-32
96
-176
384
256
416
256
192
16
-96
-432
-80
-480
-160
96
48
528
-128
-432
-304
-32
448
256
-176
-304
-48
352
272
272
-224
-496
-64
336
144
80
-48
160
320
-384
-432
32
-416
-656
-400
-528
-240
32
208
-64
272
96
-384
-432
-32
640
464
560
448
-80
-16
96
64
304
-32
-32
384
256
368
-128
-64
320
352
240
288
-64
-672
-208
80
64
-336
-176
400
320
176
-320
-368
96
304
-400
-208
352
336
688
144
144
224
-112
-400
-192
-336
112
32
160
544
240
128
208
272
432
-144
64
592
496
0
-448
-224
-496
-672
96
160
32
208
672
112
-336
-496
-144
32
-160
-32
96
256
-272
-160
176
64
-96
160
-80
-144
-400
-400
-544
48
480
288
416
-16
-480
-208
320
176
224
80
-256
-288
-80
144
-48
320
-384
-208
-96
-16
-160
48
-48
-160
192
288
80
-560
-496
-112
-256
48
-320
-320
-160
0
-288
-576
-736
-208
-96
48
-240
-288
-256
-256
-304
-304
-256
16
512
528
224
-272
144
112
-272
80
0
208
432
0
256
448
416
-192
-560
272
368
-192
-192
128
0
352
400
80
272
624
480
240
752
0
16
-192
112
464
-416
-208
96
96
-144
-32
-176
192
-416
-384
-416
128
608
-192
-336
-112
-32
368
256
-112
240
-112
192
272
528
160
96
320
208
336
768
128
-48
-176
-240
-16
256
-96
-128
128
192
-416
-288
-208
-64
160
144
-192
-448
-112
208
320
16
-272
-160
48
112
-16
208
-16
-32
-48
-176
32
-32
-144
16
-448
-336
-128
-336
144
112
-16
32
592
192
528
-272
112
320
208
-80
-112
-240
80
304
208
-304
-288
64
-192
-320
-224
-128
64
-208
192
352
320
544
96
592
560
96
-112
160
400
-80
144
192
144
240
224
192
368
240
592
336
480
800
832
432
-96
-32
-224
-16
512
464
160
-128
96
48
688
512
64
-432
-384
320
-176
-352
80
240
-320
-720
80
416
736
272
-400
-256
-160
208
144
-592
-352
-288
-192
160
208
-64
-128
-64
-272
-304
192
208
288
176
-16
32
-384
-192
-16
0
-144
-192
-368
192
-144
-192
128
32
112
256
-144
80
64
-112
64
128
-16
128
-224
-96
176
-544
112
-368
-112
-352
-320
176
-176
-128
576
688
-144
-144
160
-128
-64
-48
-464
208
144
-64
-128
-256
0
-352
-544
240
-240
-112
192
-336
-96
-288
-288
-352
-112
-144
-384
32
112
32
256
80
-304
-144
-128
-464
-80
80
-48
-32
-160
-288
160
208
-64
48
256
368
32
480
-32
-48
-432
-320
448
432
192
0
-48
112
-32
432
96
-368
-352
288
432
400
-128
-320
192
416
112
-144
-112
-288
96
272
-32
16
368
112
160
464
528
448
48
-96
176
192
112
-64
-96
-224
-48
-208
-96
160
240
112
48
352
-240
112
224
192
544
112
-48
0
144
-288
-224
16
-656
-352
320
-176
80
-32
-208
-48
-64
-16
-96
-16
-336
64
-224
80
256
96
208
-240
80
-16
160
-16
-336
-480
-80
80
-16
0
144
-80
16
16
-128
96
-416
-176
-128
192
16
-240
208
400
-128
-144
64
-144
192
96
-32
-288
0
-112
-352
0
80
-16
-368
-400
96
-160
384
-48
-16
240
256
16
-160
288
208
144
352
-176
-240
560
-48
512
608
544
288
64
-496
-192
336
336
144
80
-48
400
192
368
64
208
624
0
-192
-352
240
-96
-224
-144
-32
-48
-176
112
624
416
400
-48
176
512
-32
-560
-240
-224
-400
-160
0
-16
144
512
-48
-48
-336
-640
-192
-368
16
-320
-192
144
-48
-224
416
400
-112
128
-96
-160
-144
-128
-176
256
192
16
-208
-368
-352
-416
-96
-176
336
160
-192
-80
-48
96
-48
-496
-336
416
272
16
320
272
-240
-272
-240
144
240
-160
-272
416
-16
240
64
-336
0
304
0
112
-32
240
320
496
-80
-160
-48
-16
160
32
-256
-192
-240
-464
-448
-192
-112
-128
-528
-208
144
416
96
-384
-160
-192
224
336
192
176
192
-192
-336
160
32
-16
112
80
-96
-32
448
208
-32
-128
128
496
544
64
-160
-288
224
288
-64
-256
-336
-240
16
64
-144
48
224
560
384
624
496
304
256
128
240
16
-400
208
512
-304
-144
496
-144
272
480
384
-16
176
-160
176
-384
-480
352
304
-288
-352
-480
-48
304
32
176
64
352
-144
80
-32
-160
-16
160
-144
-464
-368
-208
144
656
-64
-224
16
752
224
-16
-192
-256
752
400
-128
-80
176
400
-336
-432
160
-160
16
48
128
448
-240
-400
112
528
-112
544
1264
496
-304
160
-160
-448
-144
80
96
48
-144
-560
-352
-80
-368
-192
208
96
32
32
-240
-16
-112
-48
-464
-160
-80
304
64
-256
-384
112
16
272
-96
0
160
432
208
-80
-144
-192
-320
64
80
192
464
-48
-336
-480
-368
112
352
384
304
448
576
480
240
0
80
32
272
144
352
288
-224
-32
176
-144
-144
-192
-304
-240
-32
128
80
-32
-48
-240
-512
-368
-128
640
880
336
32
272
256
464
464
112
112
-192
48
256
-16
224
272
336
-256
48
-64
0
-384
-192
-160
-400
-80
-208
-112
224
-80
-224
272
-96
-32
160
-144
352
-192
-256
80
-112
-272
128
272
48
176
0
-96
-352
-256
48
64
240
320
-160
-96
176
-16
176
64
-16
-304
-352
-688
-560
-64
192
608
-64
-16
-608
-176
-336
-320
-208
80
64
-208
-176
-224
-416
48
-288
208
480
-16
64
160
-192
-528
-352
-320
-32
288
-208
48
-32
-160
176
256
-96
112
320
192
-160
0
-96
-128
-288
-624
-32
416
16
-624
-608
16
-352
-112
-48
96
96
-144
-32
176
16
144
352
-80
-16
-176
-16
272
816
528
400
-176
-384
144
-336
-624
-368
-144
-144
-128
64
-80
-160
-32
-112
-224
-496
112
144
-192
-192
208
272
96
288
848
736
528
-144
-512
-608
-256
-256
144
144
-32
272
-64
-640
-240
112
112
48
-144
-16
-112
-144
-320
-96
-320
-32
-160
-208
-352
-208
176
-544
-416
48
-528
-448
-1232
-576
-400
128
80
-128
-640
-192
96
-240
16
-112
48
224
-240
-128
-256
-768
-480
-416
-224
-560
16
-224
16
-288
-720
-464
-624
-656
-736
-432
-416
128
320
336
-16
144
-128
-96
-272
-288
-96
528
320
512
-144
-32
96
352
-160
-304
-112
208
-192
-176
224
336
160
-144
-320
-368
-32
272
16
-96
-16
-384
-400
-160
-320
-64
96
80
-128
-64
-48
-112
-672
-288
-224
560
16
-64
-48
-304
-160
80
128
128
256
48
-320
-144
-80
256
-64
-480
-432
320
352
144
64
-32
-448
-448
-256
-304
-528
208
576
32
-240
-512
0
112
224
528
656
336
320
-32
-192
336
-64
-32
288
336
96
-144
-64
-128
352
624
144
-16
144
288
-336
-288
-32
112
-128
-272
-112
80
112
-112
288
160
-144
272
384
112
-112
-16
-256
-16
-320
-480
-272
-368
304
256
112
-416
-224
-112
-224
-160
368
352
-16
-336
-224
-16
144
560
112
-64
160
112
-336
-464
-192
-64
320
-96
160
112
144
-240
-144
0
-416
-592
-352
-96
224
-208
-624
-144
160
-192
-608
-688
-240
80
224
-144
240
160
416
112
-528
-624
0
352
320
-48
-400
-112
-80
-160
-400
64
-224
-96
-336
-240
272
-368
80
304
16
-320
-432
-464
-64
-16
144
176
-288
-96
-16
-16
48
-320
-336
240
240
-16
-128
-208
512
656
-16
-288
-160
-48
-656
-288
-240
-224
96
-336
-528
-368
448
336
208
16
80
304
-272
160
16
-48
-80
192
176
-80
576
656
304
160
176
96
-528
-384
384
384
112
80
-144
96
-64
-64
-112
-384
-32
352
272
32
-112
48
304
160
-160
-432
-336
-144
-16
-384
160
64
-48
176
224
0
288
656
672
-176
-80
16
256
-16
112
352
96
64
-32
-208
-464
176
64
-224
160
-512
-336
-16
-176
288
-16
320
304
256
480
48
-352
-528
96
-64
48
-112
-48
-416
-128
768
224
352
560
240
96
-160
-384
-32
560
448
-368
-432
-496
-48
-32
-144
80
-32
-112
-32
224
-368
-32
144
80
144
160
304
384
96
-256
384
160
-48
448
336
496
544
-528
-976
-384
176
-64
-496
-368
0
-32
-304
-64
304
-112
-192
-48
48
-224
-32
-304
352
976
16
-560
-192
-128
-32
208
416
-160
-160
160
-208
-240
-208
-624
112
48
-384
16
-48
96
384
64
-432
-208
-64
0
80
160
288
-64
-160
80
32
-288
-400
-464
224
320
128
-128
-240
-288
-384
0
144
304
64
176
224
352
432
384
144
432
240
272
208
-16
-304
-256
528
672
-176
192
-48
208
352
16
16
192
-144
-368
-176
16
-320
-112
0
-448
-208
-256
208
-32
-144
-384
-304
16
-96
32
-432
224
144
368
416
-576
176
496
48
-368
-848
-272
-192
-144
-64
112
736
304
128
480
608
-320
-16
272
416
-96
16
32
-240
-16
-48
-288
-32
-224
448
-16
144
-64
-160
-384
-368
-576
-128
-480
-16
-272
144
288
96
-96
-272
240
-64
112
16
128
-176
-480
-144
160
-256
-336
-400
112
480
240
-208
-448
-176
-192
-112
-304
-16
48
-512
-416
-544
-496
-112
-176
-272
48
368
80
-208
-320
-80
-16
160
-32
-288
80
368
-320
-416
-160
0
-240
-224
176
-160
-176
-480
304
0
-208
-400
-528
-288
-496
-176
64
-304
480
160
-256
-256
688
288
-112
112
-64
-496
-416
304
592
-80
608
432
368
208
-16
432
128
0
0
-304
-128
-352
272
448
-48
-272
-16
-16
-128
-208
-16
448
160
416
288
288
80
-80
16
-32
-464
-512
-176
-224
-48
144
32
320
-144
0
272
-112
96
-272
-272
-48
192
-288
-256
-80
-64
-160
-208
-32
96
0
0
240
32
-496
-176
-192
-576
-32
496
160
-592
-704
-368
-448
-32
240
272
80
-112
128
-32
-544
-160
224
352
48
288
-416
-432
-336
-32
112
96
112
80
320
-240
-128
-16
80
-112
-224
-416
-416
-336
128
128
-576
-64
736
32
-48
-432
-320
-496
-32
96
208
496
240
-144
64
256
288
640
272
0
-32
48
16
64
160
240
304
208
64
240
288
-176
-320
-32
96
-592
-576
64
-304
-64
-144
96
144
128
32
-48
-384
-336
720
560
240
-128
-112
-96
224
48
-224
32
144
80
-240
-288
-48
352
-480
144
192
-64
16
-192
-128
288
176
-400
-464
-96
-224
-400
-512
-128
192
16
-256
112
-352
-496
-16
-208
-48
-192
-336
256
96
-96
-176
-192
-32
464
672
192
-544
-192
144
-64
-144
400
480
416
16
-128
-608
-624
-448
-224
-208
-160
16
-112
-160
-192
96
400
32
96
-128
0
272
224
-16
-288
-176
64
-80
160
448
48
-128
-192
-176
-384
-160
128
304
256
-96
464
208
288
-464
-544
-400
-528
-208
-192
208
448
-128
-288
-16
176
64
384
-16
-480
-464
-272
-448
-592
-400
-208
-544
-32
-64
-240
768
944
336
-80
64
32
64
16
-96
-224
-112
-160
-224
128
-128
-144
96
-240
-240
336
-224
-208
208
416
-128
-592
-432
-560
224
128
-64
0
272
368
112
-336
-720
-32
64
-64
0
32
112
192
256
16
352
80
32
368
208
32
-176
-112
-16
224
-208
-224
336
16
16
416
288
-64
-96
-96
80
-16
48
-80
416
496
224
-256
-640
-64
16
32
128
-112
-192
96
64
-64
-80
112
288
-144
-208
48
64
656
672
336
-208
208
160
208
64
304
-432
-240
-192
-288
384
592
256
-224
-144
384
400
192
64
96
-272
-496
96
32
-736
48
144
32
-672
-384
-32
112
320
-224
-448
-352
-80
240
560
336
16
0
-32
-16
528
272
320
304
-192
112
-320
-416
-32
-208
-32
320
432
-96
-352
-272
208
-176
16
-112
112
192
-384
-96
496
368
-304
160
256
-80
-96
224
48
48
384
288
-16
-112
304
-672
-416
48
480
-32
208
480
128
-112
-496
-496
-304
-112
-368
-208
64
-320
-16
48
-224
272
-16
112
-80
-64
-560
-96
-160
-16
-240
-32
-496
-240
0
-240
368
352
160
240
384
-208
144
256
64
-288
16
240
-144
-224
80
-208
160
-224
-528
64
192
16
-224
-528
-368
-208
-240
-256
48
208
208
-368
32
592
176
-112
-32
-240
-160
144
48
-128
0
-64
-64
-816
-352
192
416
0
-48
-128
-128
-16
-16
144
352
96
-128
-144
-496
272
368
496
-400
-176
-624
-672
80
-768
-240
-80
-48
32
416
368
0
-112
512
144
16
48
128
448
368
96
96
208
208
0
-832
-352
368
352
-32
48
272
208
-48
-16
256
240
320
224
160
832
64
-368
64
368
80
-256
-160
-96
-64
-96
96
496
80
304
288
176
-64
176
160
224
96
-160
352
-160
-96
256
304
-208
-16
240
-32
-464
-432
208
240
-544
-320
64
-176
-512
-160
-16
-192
-416
-432
0
400
144
272
320
320
336
224
368
448
160
-176
64
304
528
288
-256
-640
-288
-160
16
-208
-208
-128
112
-96
-368
-240
-80
176
208
144
-480
32
368
240
480
192
192
144
448
0
-128
-144
-336
416
368
-208
-272
272
-64
416
176
96
-160
-32
224
-128
-240
-80
-64
80
-128
-144
0
48
272
160
-16
-528
16
-176
-208
16
-112
256
128
0
-96
-272
-624
-320
-208
-128
-240
-512
-112
-240
-96
144
432
64
-80
400
-144
-288
-352
-416
224
176
544
640
144
-256
-32
80
80
192
-384
-576
-736
32
288
-208
-288
-176
304
528
240
64
416
-112
544
272
0
-336
-48
240
192
192
-64
-48
192
32
-80
256
0
176
480
-64
-336
-80
64
304
304
416
-672
-672
-672
-480
-240
-352
-304
-288
-368
-336
-176
336
0
96
-128
144
-64
800
560
-192
0
-64
-512
-576
-144
224
-384
48
144
480
368
208
-192
-256
-272
32
32
64
-32
256
400
160
128
-416
-272
-208
-384
32
64
176
-128
16
-64
480
176
-368
-304
-48
48
-464
-704
-48
-368
-96
400
-160
-64
80
352
48
112
112
-112
-224
-192
-464
-528
-160
272
-48
-256
-272
48
-64
-80
48
-192
144
112
-208
-96
48
64
496
720
336
-368
0
-208
144
-64
-192
-16
144
288
368
272
-336
-608
-384
208
-112
80
448
416
64
96
368
-80
64
160
-256
304
0
-688
-16
-128
-160
-64
208
-96
304
208
192
-176
128
-192
-144
-256
16
272
-272
-128
-80
48
-80
-336
-272
320
384
-96
128
432
-32
80
80
-160
304
432
16
448
224
208
112
144
-112
32
-368
-240
128
-336
272
-304
-144
-96
336
176
-336
352
464
-96
416
640
400
320
96
-240
-192
-112
-304
336
240
-176
176
-288
-336
-80
0
176
-96
-64
-32
224
224
256
48
-384
112
-336
-560
-496
-400
96
240
16
-208
-144
-192
-160
-256
304
144
-432
-432
304
-112
-208
-480
-672
-544
-544
64
208
-128
-512
-96
320
400
-144
48
-96
-80
608
16
-400
-400
-112
-144
16
224
-128
-336
48
240
-128
256
-272
-624
-336
-64
-272
-304
-672
-192
384
80
-336
96
32
240
176
-384
-416
-240
-48
32
144
16
272
64
-176
144
496
336
-480
0
384
432
352
0
208
176
96
-272
-80
16
-256
-592
-320
16
528
192
-192
-288
-176
-176
80
368
416
32
-416
-128
-288
-144
-112
-384
-32
416
16
-208
-304
128
192
-16
192
-96
-16
-464
-224
-112
480
272
-560
-496
512
464
48
-400
-432
-608
-144
0
80
80
-608
-432
160
224
144
-192
-272
-112
112
-496
-272
-160
32
-336
-352
-16
-256
-112
-64
-384
-512
-176
112
-512
-512
-112
48
48
-144
224
384
448
-96
-80
-224
-704
208
304
112
208
48
304
-16
-48
272
16
-368
-192
208
160
64
-304
48
-144
32
-288
-256
-112
16
128
-176
208
-448
-720
-16
336
384
-16
-128
192
0
-48
128
240
96
-64
80
-704
-448
240
-16
-32
176
-192
112
-240
-320
-192
-560
-352
-176
-352
288
624
400
144
-304
336
256
80
0
-608
-176
80
528
-64
-256
-48
288
112
-144
112
-16
-320
0
144
-32
208
352
-368
-432
-208
-80
-176
-192
-96
112
576
688
192
-272
-416
-224
-208
128
592
272
144
-336
-64
-176
208
336
48
432
208
144
0
192
112
0
608
128
0
144
-128
-160
-16
-144
32
-128
-336
-80
256
192
0
288
64
-368
-80
112
0
-448
-240
-384
-304
-176
400
272
224
160
384
32
400
480
224
-96
48
16
336
144
-176
-96
-288
-80
176
-384
-432
208
448
-448
-240
32
0
-256
112
160
-448
-160
0
32
16
32
0
-80
80
-32
-96
-288
-144
48
-272
48
16
160
-64
48
64
160
-384
-528
16
-224
-256
-64
80
-32
256
96
-784
-112
96
448
64
-176
-272
560
-48
-416
-240
-432
-272
-240
-352
-160
496
272
-336
-512
48
-32
16
128
192
384
0
-336
-80
144
-176
336
-128
-464
-176
64
-160
-32
336
272
64
-384
-64
16
16
-192
256
96
-112
-32
144
32
-256
-640
-256
240
240
256
0
-368
16
144
-32
240
-144
-32
192
-272
608
528
-96
-336
-304
-304
-304
-272
272
0
-368
0
-80
-224
224
-352
-416
-48
320
64
208
272
704
608
336
-272
-160
-176
-400
96
320
992
1056
128
176
64
608
656
160
192
-160
-240
-16
256
192
288
80
-128
-16
160
256
-544
-16
208
-96
-64
-192
-640
-640
80
288
-256
192
48
-384
80
48
-400
-288
-48
144
144
-128
0
-320
288
-16
128
-240
0
-256
-256
160
192
464
256
464
320
384
496
-128
-48
352
0
-256
320
-288
-112
-96
288
208
-96
-144
16
-224
224
-48
-432
-560
-32
-192
-176
-144
-256
-384
224
512
-288
-64
-416
-768
-576
-672
-272
192
128
-272
-96
96
80
-112
-160
-64
304
416
544
240
64
192
16
-608
-432
-128
-208
64
320
208
-256
-16
128
-256
-400
-80
368
144
128
-80
-608
144
-160
-464
-144
320
160
80
-16
176
-128
-288
192
336
0
0
320
288
-432
-224
-192
-288
96
160
0
-160
-64
-160
288
-48
-272
16
192
64
16
64
-224
-432
-176
-464
-16
-416
-304
-32
96
-96
128
224
336
432
368
160
-112
192
336
48
352
448
208
320
688
416
320
288
192
-96
-256
-288
-272
32
336
64
-240
528
560
256
96
320
368
528
-176
-352
176
128
-208
-80
112
224
304
192
432
-32
16
192
-160
-64
64
-432
-144
-208
-320
-64
0
-32
400
208
-128
80
528
384
-192
336
224
176
-80
0
-16
208
-160
256
144
336
272
64
272
160
160
-128
208
112
272
-32
-272
-48
-48
-432
224
-144
-736
-304
-416
320
-224
-304
-304
-208
352
-32
352
432
336
-240
-192
-272
-224
-128
-80
-352
80
-208
16
-48
64
144
-48
80
96
272
144
-288
-160
304
96
-416
-144
-32
112
-352
-464
-416
-256
-512
-144
272
208
-144
-112
64
416
176
-96
192
128
-80
32
256
48
240
592
-80
-304
-304
-480
112
704
384
-128
288
96
368
256
-112
-368
-400
208
160
-272
-48
144
480
272
-176
48
224
464
-256
-160
-176
-16
-64
224
-128
-240
-272
-496
416
432
256
144
224
-32
288
160
-240
-208
-240
-16
-480
-288
256
-32
-144
-432
-560
96
-224
-272
-384
16
384
112
-464
64
-112
-176
-240
64
208
-192
-496
-128
-464
-576
-208
-576
-496
-368
-144
-272
-432
-304
-192
448
192
-528
-576
-672
-592
-64
96
-160
-16
144
-160
160
0
-32
-32
128
-16
384
336
64
-16
-208
-176
-192
-160
-256
-320
144
400
80
-112
-48
-608
-224
192
64
608
32
-416
-416
-320
64
592
192
-256
-288
-128
-112
-496
-112
160
320
416
368
128
-160
160
16
80
160
-48
272
144
-160
-336
-512
-144
240
-128
160
-256
-128
-256
336
352
-128
352
48
-464
-256
64
-32
-48
352
592
-128
176
112
416
720
336
272
-160
-352
80
32
-288
0
-272
-160
-272
-336
336
160
-16
96
-48
-192
-448
48
336
-64
32
32
48
272
608
-144
-160
-160
-288
-240
-592
-176
32
256
160
16
304
-96
224
-144
-432
-256
176
32
-208
-272
464
352
-16
80
0
-384
-64
-240
-368
-160
-208
96
-512
-272
80
176
-400
-112
-32
224
640
-32
-176
224
368
160
160
96
-32
-224
-144
-336
-96
80
-304
224
512
704
160
80
-160
-224
-320
-240
-256
-48
-528
-416
16
192
-112
352
528
128
304
464
-48
-240
-144
304
-224
-240
-144
192
-112
144
336
-48
416
320
288
-112
-304
-352
64
16
-304
-144
-240
-192
16
-80
32
64
16
-288
-368
-304
48
-304
0
464
416
-32
-416
-80
-256
-96
-32
-144
-272
-144
496
608
-160
-80
-176
256
64
-32
-288
-224
160
-208
-256
256
-96
-576
0
-16
64
64
-368
-272
128
-320
192
240
608
32
-112
-304
-352
64
224
368
176
-48
48
144
224
-352
256
400
-272
-144
64
-64
-320
-96
-208
-112
80
384
448
-224
128
176
-336
32
-176
-400
-128
-192
-496
-288
560
496
272
64
256
16
144
352
208
-32
-16
144
80
256
640
224
-96
176
96
64
192
80
-64
-48
400
192
-80
-80
160
16
-400
-192
-32
-96
128
304
-32
176
144
-112
144
144
32
208
304
160
-64
-400
80
464
688
368
160
-80
320
0
-400
-416
-208
608
464
768
96
352
512
-176
-352
-48
176
-352
-176
-80
-320
208
160
-80
-80
-32
304
368
128
-272
-192
160
-272
-272
576
416
-288
-128
224
-96
-96
304
-176
-128
-432
-512
-544
-288
208
-336
-224
128
288
-400
-64
304
-192
-384
-576
-112
-160
-672
-272
-48
-112
208
112
144
240
192
288
-320
16
256
224
176
144
-48
-192
-320
-192
-16
16
112
-96
336
432
128
-336
-16
208
496
432
-48
-576
80
608
112
384
432
320
-192
-432
-32
240
0
320
320
352
384
-32
-224
-64
-256
-816
-288
176
-16
16
-192
-448
16
320
-80
272
-48
-336
-592
32
-384
-560
80
160
368
592
288
96
-336
176
-160
-112
-128
-96
-160
-64
16
-176
400
-224
-224
16
-144
-144
-224
208
-48
-480
-96
-48
-320
224
256
-32
-96
160
304
528
288
96
544
-224
-128
160
96
-32
-96
128
-16
-160
-112
-144
-240
-48
272
32
-400
-160
-240
-560
192
-432
-368
-352
160
240
-288
16
-400
-528
96
-128
16
-304
-448
-64
208
128
128
176
-160
-64
-32
-640
-432
-32
480
96
272
496
432
32
-16
416
-32
-256
-112
144
-64
80
-240
48
-448
-464
-144
144
64
-240
-80
112
400
208
-96
224
192
64
352
128
-144
304
-176
160
704
-16
-352
-432
-96
-128
112
-384
-224
-320
-112
-288
288
32
-224
48
-96
-560
-48
624
-240
48
128
-128
0
-48
-336
224
256
144
512
304
48
80
-64
-384
-272
16
144
48
160
64
-48
176
-304
-496
-128
0
64
-144
416
-224
-240
-256
-384
208
608
-112
16
-352
-336
-256
-208
-320
16
448
224
256
176
-96
-592
-688
-160
0
-288
-528
-272
-208
48
-176
336
512
176
0
-112
-128
352
752
-16
-80
320
304
144
-64
-176
272
240
48
-400
-320
144
288
96
288
0
112
80
-432
-176
336
48
0
128
176
-32
-48
160
144
32
288
336
576
208
-96
320
64
-336
176
48
-208
-96
256
-32
-96
-224
-304
-256
64
-160
-144
-208
-800
-240
-208
128
592
16
32
176
240
-256
80
-32
144
-176
288
80
-144
-32
-176
-96
224
-384
-288
240
80
-160
432
-48
192
-48
64
208
-80
-112
112
320
176
0
-256
32
-64
64
-48
-128
-144
-208
-512
64
304
288
176
480
256
-272
320
192
0
-208
-304
-144
-288
272
320
-272
-448
-320
-336
-144
512
464
-288
-208
-96
80
288
624
-256
112
-112
32
368
-176
-160
-336
64
352
-64
0
224
-160
-384
-384
-320
112
320
-96
-64
0
-128
32
-112
-64
-80
0
304
752
160
-144
-304
144
16
528
208
-256
80
656
864
48
-320
-384
-320
-80
320
256
-176
64
-256
-512
-256
-144
-96
0
256
784
416
-32
-64
0
-16
-32
-96
160
144
32
48
-160
208
384
432
-224
128
176
528
496
352
-288
-416
-16
160
-384
-208
-528
-224
-48
-512
224
448
144
272
-80
-80
-96
-160
-240
-256
-288
-128
64
256
352
400
-80
-16
-80
-288
192
-144
128
64
336
160
-336
-64
32
-400
-176
416
224
-160
-288
32
304
304
528
-416
-400
-640
-496
384
528
112
144
-208
-144
96
-352
0
-48
-16
256
-160
-688
-80
-400
-144
96
192
-16
-80
240
-16
-272
-208
-464
304
48
-208
-32
-112
288
416
528
480
192
240
-272
-64
208
-32
544
112
48
-192
-400
-448
-576
-256
-208
128
320
192
224
560
-64
0
80
-64
-16
-624
-416
-32
64
576
224
288
256
-192
-160
-464
-560
304
496
352
624
64
-160
-80
96
576
256
-400
-16
336
320
0
48
-32
112
-240
112
48
368
-112
-64
112
128
-96
240
32
128
112
32
-16
-256
-496
-288
160
-400
-464
-496
-240
-256
-352
-256
-384
-576
-256
-80
432
176
176
480
-272
16
272
144
480
496
-176
-336
80
368
16
256
368
288
368
-464
-752
-144
-64
-128
-112
48
144
144
304
-160
16
176
112
-224
0
-16
-240
-272
496
512
-160
160
320
336
256
128
352
288
320
336
256
384
64
-128
-80
-224
-80
-144
-416
224
880
256
64
352
160
-176
48
272
368
336
-32
0
384
624
240
-256
288
496
400
-208
240
-112
-320
32
-224
240
-192
-336
-304
208
112
176
496
448
128
336
496
0
-64
112
96
-208
-416
-384
-64
-48
96
96
-176
-96
-368
160
320
48
-496
-672
-144
336
-192
-528
-704
-400
176
368
512
224
320
112
64
320
-48
96
0
144
96
-32
64
112
-112
16
144
-176
32
-176
-16
-80
-320
96
-240
-576
-272
208
144
16
432
128
-336
0
544
288
80
-128
-368
-112
240
576
32
-64
304
-32
288
256
416
-96
-480
-48
384
-32
-96
336
272
416
336
-48
-256
-176
-48
496
416
48
112
-16
176
96
448
-64
-656
384
-192
48
176
-240
288
608
592
-128
-560
-176
288
384
-48
-256
176
480
288
-160
-528
-544
-320
240
208
96
544
112
-64
-160
288
176
-224
-32
288
208
0
144
192
432
608
160
-160
112
544
32
-128
-176
-176
-112
-64
0
-368
-320
32
112
192
-16
-336
-320
-144
-112
80
688
112
-464
-384
48
256
16
-336
64
352
336
320
768
32
0
352
384
64
-144
96
-192
-128
-160
-112
-592
-544
-256
192
-192
-512
-128
288
-480
-384
-144
-48
272
-320
-352
96
0
-688
144
528
16
-112
-32
288
288
352
240
48
336
-80
-144
448
208
272
224
32
128
-480
-16
-208
-80
48
-128
-224
352
48
-112
-144
176
-128
-608
-320
496
336
352
64
-576
-112
64
64
-176
-80
192
16
160
-128
-64
176
128
-160
0
496
-208
0
-592
-448
336
144
-224
-192
256
-256
80
48
160
-144
-64
-208
-240
-64
208
-80
-16
-96
-208
-400
-512
-192
48
304
448
256
416
-176
-464
-640
-288
192
160
0
-144
0
576
256
-32
352
192
416
32
528
592
48
432
368
528
400
144
-272
-432
-336
32
400
144
208
-48
-528
-288
48
-208
-208
0
192
-96
-48
-112
368
400
432
400
320
256
64
-368
208
48
-64
416
320
160
-48
256
-352
-304
48
-144
-656
-256
48
32
-480
-672
80
-272
-192
64
240
96
496
-112
-128
352
144
-112
320
160
-512
-16
480
544
608
-64
16
-128
-208
112
112
272
160
-368
256
304
384
32
-16
-352
-288
0
-288
-288
-128
-368
0
160
-144
32
-224
-288
64
-272
-192
256
272
272
-144
-688
-48
112
-96
-304
-192
320
256
256
112
272
112
-896
-336
-464
-720
-224
576
608
-32
288
320
-608
-544
-32
16
-48
400
128
224
272
368
-480
-832
-32
-400
-320
128
192
16
-32
48
128
464
-192
176
-32
-320
-64
80
-96
112
128
128
-32
-112
16
192
-32
-256
-272
368
304
416
-224
-400
-288
-464
48
-224
-304
-64
80
-64
160
-16
48
-192
608
400
-448
-272
272
512
96
320
-80
240
80
-224
-560
-736
-64
80
240
-112
-272
-80
-16
-288
-288
-288
-176
64
256
-64
-64
112
-80
-96
-176
-64
160
384
416
128
-272
-336
-240
-208
64
528
160
-144
-320
-64
96
-16
-368
-144
448
256
-224
-336
48
-16
-288
-176
-624
-400
32
432
-240
-464
160
-48
-288
-64
400
144
-304
-16
80
352
240
0
-320
-144
-336
-480
-16
96
96
-320
-480
-640
-592
-80
144
-144
0
-32
416
-96
144
-128
64
-368
-144
400
112
-384
-464
-224
-112
32
-464
-160
432
64
272
320
-64
-240
48
-96
-144
-80
-240
-256
272
16
-272
112
464
320
208
-608
-848
-272
-64
-16
192
384
-144
176
416
-64
-240
128
160
-288
-496
-544
-288
-32
80
-224
320
16
64
368
336
-80
32
112
-320
-592
-256
-160
-192
432
688
-144
-320
304
304
-112
-192
-32
-112
288
480
384
624
48
-64
144
256
48
-48
304
224
-320
16
-80
-48
-320
-48
64
48
16
32
-256
-48
304
304
672
528
176
416
256
16
288
96
16
-48
-256
-80
-96
-384
-320
-192
48
64
304
-48
-112
-16
160
160
400
528
704
304
80
96
352
-16
-32
560
-336
-272
-400
-304
208
-176
384
256
-608
-592
-752
-656
-512
-336
-112
352
464
-48
-32
-64
-160
-560
16
576
192
-128
240
80
-96
-240
-128
112
0
-560
-240
0
-128
-272
-256
-400
-48
48
320
208
80
272
96
208
144
-96
-320
64
288
368
-288
-192
-320
-144
-16
320
464
0
-304
-528
-176
624
128
128
352
48
-128
-640
-208
-112
256
320
-16
-304
0
-112
-160
48
640
304
-384
16
32
192
112
-176
-256
-48
48
-320
-192
-320
-224
-80
-96
-32
432
400
-208
-160
-112
-272
-64
-240
128
-48
-192
-224
-256
-304
-368
80
144
-96
32
-320
-496
-272
-592
-288
-304
-528
-496
-544
-384
496
448
192
-48
16
784
304
-112
80
448
400
-208
-288
-224
80
304
512
176
-288
192
0
-384
720
544
96
-128
-272
-336
16
-112
-176
-608
-688
-80
208
320
16
-288
-160
112
-112
96
256
-416
-208
464
-288
-64
-128
32
752
80
-256
480
144
-64
48
-176
96
688
704
96
16
-160
64
-256
-448
-160
-80
-80
-32
128
32
-304
-64
176
192
256
-368
-624
208
240
-48
-368
48
272
224
256
208
64
32
160
-368
-144
288
592
240
-400
-448
-432
-192
144
48
240
176
-384
-112
64
80
-416
-32
80
-240
-432
-640
-832
-464
0
208
-336
-464
-192
-16
176
144
-192
-176
-144
96
-96
-112
224
64
304
-112
16
-192
400
176
-16
160
352
128
-32
-80
-416
-384
384
176
64
16
160
160
-368
-560
-320
0
432
368
-192
16
-320
160
480
240
288
-48
-224
-352
-176
368
416
160
144
64
-128
-48
64
-48
96
368
160
352
208
592
-16
16
-128
-256
96
-32
336
32
224
-176
-464
-496
-640
-32
-48
-64
-176
-32
176
-160
192
160
-400
48
320
-480
-640
-64
-384
-192
-16
16
-640
-896
192
448
256
16
-48
288
656
720
112
96
432
352
-80
352
256
-32
112
-128
256
800
272
-320
-32
144
-208
-64
112
-560
16
-288
-368
-256
-48
-32
48
16
576
288
-48
-288
288
-240
112
-96
-432
-320
96
-64
-208
240
224
-320
-192
304
480
560
288
-272
-368
112
176
-224
-256
-864
-384
-32
-96
-32
-512
144
496
-32
-32
32
96
-16
-304
192
112
512
256
192
-16
160
32
-32
160
240
-144
-256
-576
-560
-416
192
240
272
-96
-224
-96
-224
-320
-16
320
272
16
-336
-464
-224
368
-352
-176
112
-336
176
160
240
32
144
96
80
-112
-48
208
-448
-128
384
-112
-48
48
624
752
336
576
368
-176
-528
-208
176
272
64
128
-32
240
160
528
32
-112
224
96
-352
-160
-80
80
-64
-400
0
720
176
0
-272
176
96
576
352
288
608
288
-48
-384
-336
-16
176
320
128
96
-368
-96
-240
-512
-208
176
16
288
288
-192
-384
-192
16
80
272
-64
-208
320
48
-48
624
608
304
176
-32
32
-176
192
176
208
160
256
-112
224
-176
-16
-32
-224
-112
-192
-80
-304
-272
-64
-576
-528
-128
-256
-176
-32
-112
-128
208
-272
-272
-208
160
-256
-272
288
-128
-64
-48
160
224
-112
-128
-144
-224
-80
160
32
-208
-288
-224
-64
208
-32
-304
32
-80
64
-320
48
-640
-352
432
192
160
-32
-128
-16
272
-288
-352
-288
288
160
48
192
288
0
144
496
608
480
128
128
-240
-400
-288
80
576
368
288
-176
32
112
-144
-48
-32
-240
144
112
48
272
400
-224
48
-176
336
464
32
48
-16
448
144
496
336
-48
144
208
336
-48
128
0
-32
32
144
160
-256
-256
144
-80
48
-192
-112
208
-272
-496
320
48
-80
288
144
-560
-256
-80
-160
-304
-336
-160
-592
-240
0
592
528
-192
-96
0
128
112
-32
-208
48
368
112
176
-64
-208
192
-32
80
-144
-128
160
304
-320
0
48
416
16
-224
128
128
-144
-48
64
-320
-240
-336
-400
-288
-112
32
256
-528
-320
-272
-496
-240
-96
0
96
-336
192
-16
32
-400
-656
-304
-224
48
448
144
-320
304
736
-48
-192
-32
208
480
16
0
176
-32
-208
-624
-464
-400
128
352
688
976
1392
832
608
368
0
-48
-224
-240
-48
-464
-144
-448
-416
272
176
-16
336
256
-384
-144
-128
-304
32
128
-96
-304
304
208
112
16
256
80
-320
-64
-64
-320
336
176
-96
96
304
-64
-256
-352
0
288
-32
240
448
32
-48
-64
-32
272
0
144
-272
272
-80
160
-112
-32
176
400
320
32
-256
-192
16
432
112
-320
192
64
272
288
80
-528
-256
-304
-288
288
112
-496
-128
64
-400
112
16
-272
-160
64
16
80
464
-32
112
496
-48
-384
-48
528
32
176
544
208
-64
368
144
-288
-192
112
-224
-288
-224
-352
-352
-208
176
544
-48
-400
112
-144
-352
-64
160
-240
-240
-64
-176
16
-64
-336
96
-128
-144
-112
128
-256
-656
-464
80
288
96
-256
-192
160
-32
-224
-432
-160
-128
-640
0
48
16
256
512
-224
-272
-128
336
-16
32
-144
320
-80
-32
672
160
-96
96
64
32
352
-16
48
176
160
16
-304
-320
-224
560
336
-304
-320
-112
272
688
144
192
96
544
16
-272
-320
-304
128
384
176
-496
-416
-528
-592
176
128
80
48
-112
80
-96
144
96
80
352
800
624
144
-240
16
-16
-528
-528
-448
160
208
-192
-336
-160
48
-64
-224
-112
-224
-32
496
-64
320
-112
-32
16
160
176
-128
112
0
384
624
112
112
-16
0
-288
0
304
288
240
-128
-32
320
144
416
304
672
464
-240
-352
48
304
224
-208
160
-96
288
208
400
208
-352
-192
-96
-64
0
-128
48
368
144
-432
0
-384
-224
32
-544
-288
-352
-32
48
208
192
-256
-640
-352
-432
-176
128
-240
96
304
368
-208
128
-336
-80
-432
-640
-400
-432
-384
-32
-272
-320
-768
64
80
96
-96
384
-48
-512
192
544
304
384
-304
-48
-80
-208
-128
-272
-432
240
544
368
-208
-256
64
-288
-96
288
32
-416
-240
160
304
64
80
-304
96
112
-16
336
320
96
496
-48
-144
384
-32
-416
112
80
-240
-336
-752
-240
-752
-384
80
528
-64
-256
128
-16
608
192
-192
128
-64
-112
192
496
320
288
528
288
-80
-32
240
-128
256
-240
128
-160
128
480
80
64
288
192
704
112
-352
-352
-160
-112
352
256
480
112
-224
160
-160
-128
16
784
-208
-304
-240
-432
-512
128
336
80
160
-128
64
224
-256
-496
-368
-384
-272
-48
0
-144
416
-448
-464
-192
-608
-320
-224
32
608
320
-368
-480
128
208
-352
176
-208
224
352
48
160
48
-192
-272
-128
-80
64
144
64
-272
-144
-720
48
608
48
320
-128
-352
-400
-384
48
112
672
160
160
-240
-288
208
-224
-48
-320
-464
80
-528
32
64
-208
560
272
112
-320
-592
-80
480
320
-32
-160
64
-496
-560
-224
-224
-112
-112
-112
-48
0
-416
-128
-256
-320
-624
-496
0
224
128
320
0
320
0
48
368
-80
0
128
-16
192
80
160
-288
-160
304
304
-192
-144
-128
-336
-96
224
-304
-432
-336
-320
48
-32
128
192
448
144
-112
-400
608
352
512
-192
-352
-80
512
-16
240
144
-64
-256
-528
-288
-400
0
272
576
496
-192
224
480
-112
272
48
-224
-480
-384
-224
-80
-336
64
96
-80
0
176
208
0
368
-64
32
112
-416
-336
-288
256
16
176
352
-208
-288
-416
16
272
48
752
384
-288
-80
512
128
-160
112
-304
-352
0
176
-112
16
-512
-256
-176
288
144
-96
-96
-256
-880
-400
-240
-304
-416
-64
-432
-112
-208
-96
-160
176
688
816
464
-192
752
160
-368
-592
-160
-352
-176
96
80
-144
576
736
624
-16
112
-224
112
-64
-400
288
16
-400
-240
224
208
-624
-240
-256
-400
-160
256
-32
336
160
-32
448
-256
352
-32
-224
0
208
192
336
352
-144
-32
0
-288
-208
48
112
704
560
240
-32
240
192
-128
80
320
-48
-464
-112
64
-208
-272
-304
240
192
-64
-384
80
-176
-96
352
-224
48
96
240
112
288
48
160
80
464
384
352
480
-48
-464
-384
-368
-64
96
-96
-160
-160
16
-208
-368
-272
-656
-560
128
64
-240
96
400
80
-256
-96
176
176
304
-208
-352
-288
-176
192
432
240
128
-16
-320
-96
-96
-224
-480
-496
-528
-240
16
-48
16
-256
-448
-160
-240
-144
-368
-176
-176
-400
112
304
352
64
-112
480
160
-176
160
-320
-224
-32
672
496
448
384
480
32
48
-160
-192
400
416
-368
-208
288
480
256
48
368
80
144
16
32
256
16
-256
-112
-176
160
160
-96
-272
432
192
144
-32
-160
-176
-64
-160
96
80
-64
-336
-416
128
-256
128
64
-160
-336
-512
-416
-544
-560
-256
304
176
320
576
112
-160
304
128
-64
-16
160
368
96
-432
-224
-48
-480
-208
16
-48
-16
-224
-112
-208
-160
-336
-272
608
288
-352
-384
256
416
-96
32
48
-304
-16
96
64
-320
-304
144
256
-128
224
-64
-336
0
32
-80
-80
-512
144
400
-48
-16
-128
480
432
-336
-112
16
-288
-208
144
272
160
-352
-592
-320
112
-64
-224
-336
-128
-80
-144
128
80
416
240
-128
112
336
352
-256
-720
-176
96
96
368
-80
-80
-448
-144
48
-48
128
432
512
128
-400
-192
288
48
160
-48
288
96
144
64
0
128
64
208
-272
-208
128
-80
-80
-272
-32
64
-128
-176
-80
-448
-32
48
-608
16
128
-112
176
240
128
-32
64
0
-16
208
160
240
48
-288
-112
560
176
432
-352
-432
-48
-32
-192
-64
0
192
-112
-304
48
-192
-192
112
176
-16
-368
-368
-448
-64
32
192
-336
-512
-352
-624
-32
96
-176
240
208
368
528
-64
256
-128
-48
32
288
400
-224
0
352
-32
-160
-96
16
256
-192
-176
-16
-96
288
-64
96
-48
128
96
64
-48
288
32
-64
-208
-160
160
-320
-32
-96
16
0
-48
48
112
-240
-416
128
208
160
96
224
-80
-112
-64
240
448
768
336
-144
-528
160
592
32
-176
48
592
48
-208
-128
64
224
-32
-32
-32
-240
352
544
-80
0
-112
-608
-16
432
0
16
416
384
80
160
-48
384
-96
208
240
-48
-64
96
-64
160
720
336
-416
-336
-48
400
528
80
-288
-176
-160
-240
-336
-656
-224
-368
-80
64
-480
-560
-528
-64
432
-208
16
784
320
272
96
128
-32
-288
-256
224
160
176
-480
-496
-96
128
-16
-128
-256
-256
-304
48
-320
-432
112
-192
240
400
480
464
160
-112
-176
-640
-320
-320
-288
-64
320
704
160
-48
112
176
272
528
224
-608
-272
32
320
-400
-144
-176
96
336
192
112
224
160
80
-208
-80
208
160
112
-96
32
-304
-288
-64
240
96
192
304
80
176
176
-304
16
-112
-432
208
272
-48
-128
416
-80
32
320
432
-272
-176
-48
240
576
160
48
-112
32
144
176
16
112
272
32
192
-112
320
-48
-32
224
224
-240
-80
-144
-160
288
480
208
-304
-352
-176
-256
80
-272
-16
208
-112
96
64
-240
-272
-144
112
-240
192
0
-384
-496
-192
-208
320
112
-224
208
32
0
304
800
-320
-176
96
576
336
-176
-192
-16
-64
80
384
240
-256
-368
304
80
-304
144
-16
64
-416
80
384
224
-16
656
432
496
96
-16
400
32
48
16
192
224
-144
-112
304
-352
-240
160
112
-272
-464
-224
-32
-336
-272
-368
224
464
352
-80
-192
96
-288
80
-240
64
-144
-272
240
288
32
-336
-608
96
-48
-288
-80
-16
128
288
-32
-384
-416
-560
-544
-240
272
32
-336
-272
-160
-240
-160
-144
-272
-128
-32
96
224
-192
-80
-448
-288
96
-656
-192
-64
208
96
-416
0
336
-160
-608
-848
-560
-416
-288
-32
-336
-96
400
464
272
-16
-32
160
256
-176
-240
-384
112
0
-496
-400
224
272
-336
-192
-240
-128
304
208
144
48
208
16
112
-512
-80
272
-128
-272
-208
-224
-416
-384
-544
-736
-464
-32
-96
96
-176
-320
-256
-320
-112
240
256
-32
-336
-176
-288
112
528
-128
-384
-192
96
64
192
576
816
432
-80
-224
64
80
-272
128
112
320
16
160
-128
-208
-32
-240
-672
-480
-688
-528
-272
-64
-16
96
384
-64
-304
-336
-144
240
-288
-416
-144
0
160
-96
-64
-512
-320
-352
240
688
144
-144
-160
-256
-256
272
224
-80
-224
-128
-240
-80
-176
-288
576
368
32
0
-64
80
176
-16
32
-96
-48
-240
-720
-176
0
48
-80
224
176
384
-80
-560
-192
160
176
-160
-432
-32
-80
-80
-272
16
-80
128
624
288
-480
208
720
-288
-400
-416
-416
160
432
-336
-592
-48
-96
-144
32
-288
-192
544
-80
-560
-128
288
-96
-448
32
-448
-272
80
144
-272
-32
16
-192
128
48
320
240
320
32
144
-176
-336
304
176
128
64
128
-96
288
288
32
-128
-256
448
368
-64
-16
-272
-464
-128
-16
-96
-288
112
256
304
176
48
80
-416
-304
-144
80
144
832
368
-80
-160
-208
-336
16
224
-400
-48
304
256
-256
-528
-496
256
-240
-128
-176
144
304
160
304
464
240
16
336
512
480
208
-96
-96
176
96
-240
384
16
-336
-336
-272
-160
176
144
-176
-384
-288
-288
-304
-272
-48
80
480
656
-304
-288
-320
-240
240
192
432
336
80
144
-16
176
256
-80
-592
-16
64
-288
-240
-336
-192
112
160
-64
-368
16
192
-160
-336
-240
-32
-48
160
48
32
-144
96
-464
-272
-192
-208
-528
-64
-96
128
96
32
192
144
-400
-352
-272
-352
-400
192
112
480
384
96
96
80
-384
-80
336
384
336
80
32
144
272
-80
256
272
16
-208
-496
-688
-240
-416
-240
288
-16
-400
32
272
688
304
96
-96
32
-176
32
448
624
480
80
176
-16
-224
-128
-384
-64
144
-80
-112
-368
-192
-32
-224
-176
-160
272
480
-208
256
496
96
16
-176
-192
-432
-32
576
128
-48
240
-112
-368
256
288
32
-432
-32
464
-80
-160
-32
128
64
-32
336
-208
-32
176
496
128
-160
-496
-576
-416
-400
-256
32
-256
-208
192
96
-96
128
64
272
64
-32
-96
-144
-32
-80
-176
-368
-208
-128
-48
-96
-96
-160
-384
32
448
400
-160
-128
-16
-112
-64
-144
-256
-336
-144
-272
-320
-336
-256
0
208
112
-96
-32
-144
-144
192
256
48
-96
-240
-464
-352
-464
-256
-32
48
-512
-240
-96
-400
-160
160
-208
128
48
-48
-256
208
48
-32
-128
656
288
-112
-368
0
400
144
-208
-208
-80
-592
-480
-64
112
320
480
208
-192
-16
-112
-64
-32
-176
416
240
208
288
-288
256
96
-272
-208
-336
16
-16
-112
-208
-224
448
192
-240
-208
80
272
112
320
384
336
944
448
-144
-320
16
-288
-560
-112
112
-272
48
112
16
-80
160
176
304
-128
32
272
128
-432
80
0
-304
128
-368
32
224
-192
-96
-464
192
-96
-256
-272
64
256
80
-224
-144
-768
-496
64
-144
96
544
160
240
384
352
144
-352
-256
-336
-240
48
-304
-784
-176
144
-240
-240
304
336
128
0
-32
-288
-464
-240
-80
96
176
-48
-96
-464
-304
128
-288
-528
208
160
-144
-256
-48
-96
-16
16
32
-112
192
144
0
-48
-160
-32
112
-336
-352
64
320
416
112
96
-368
240
-176
80
-80
304
144
-144
480
624
224
128
176
112
-96
-112
192
176
-208
144
240
-384
-272
-80
-288
-352
-160
-160
0
96
-496
-432
-416
-224
96
208
-32
304
112
64
-416
-368
-240
-272
-352
-64
-288
-368
-96
-160
-448
0
528
-96
-480
-96
-144
-176
-64
-16
144
96
-688
-224
256
-16
128
208
544
112
-288
272
144
48
-208
-288
-176
-640
-80
-64
0
-176
224
176
-112
-288
-144
48
336
208
368
-16
-176
192
288
336
144
224
-368
-48
32
304
0
48
464
432
-16
-400
-16
608
640
416
272
96
-272
-112
512
96
-96
320
560
464
256
240
-304
-224
48
192
-96
-304
-160
-352
32
176
384
640
464
416
544
48
384
64
240
160
64
560
1024
-128
-432
144
368
176
16
-32
480
-240
64
896
16
224
-512
-416
-464
-288
208
176
-448
-224
496
496
176
-128
-32
-48
-192
-208
-32
-528
-304
-496
-144
-176
-208
-48
192
-176
-304
-224
-272
144
0
0
-272
-128
-64
192
96
112
240
784
-32
-304
-144
192
-64
-112
-224
-192
-80
208
560
64
96
256
368
-160
-320
-352
-96
-400
-256
-160
80
128
144
64
288
384
320
320
80
-64
688
576
384
-64
-416
-336
96
-64
-320
-320
-112
-112
240
144
192
-480
-160
240
560
-128
-384
0
-192
-96
752
544
-352
112
48
0
400
800
464
-176
432
784
528
288
80
64
480
448
0
464
528
32
-96
-128
64
-64
-272
-144
240
384
-112
80
-224
-96
256
192
144
-144
-96
560
208
192
80
-32
224
-208
-96
-480
-432
240
-96
-144
496
80
240
512
816
896
656
-240
-528
224
432
96
-208
112
16
-80
160
160
16
112
-608
-560
-528
144
272
16
-176
-240
0
32
96
-544
-384
256
-16
-416
32
-80
464
160
-144
-448
-48
-448
-368
80
-80
-464
-672
-160
96
-192
-352
-512
352
256
480
544
144
-80
-208
-320
-256
48
-192
32
112
160
-176
-240
576
32
32
288
192
0
-64
-336
-816
-320
-192
-256
-224
288
-160
96
240
176
240
192
-160
-128
224
240
144
48
-64
-224
-208
-48
384
256
128
-208
-480
48
128
-16
-208
-112
-672
-176
160
112
-272
-128
-272
0
-128
-544
-320
-64
-240
-224
80
512
96
-480
-304
-224
-176
0
256
448
384
416
96
48
-48
112
368
-304
-64
-96
-400
-496
-320
-576
-16
464
-128
-256
144
16
-256
336
432
-64
-16
-64
112
16
-192
48
-176
-128
176
192
-416
-544
-800
-704
-256
288
688
608
80
-192
0
-64
-176
64
-64
-528
336
608
320
208
304
192
-288
400
720
-144
-336
-736
-352
208
416
160
-336
-256
-256
-192
0
-240
-304
48
-368
-144
96
352
-112
-464
-448
-128
272
144
-64
-144
-32
112
96
-16
-272
-512
-256
-112
-48
624
80
-64
384
32
-32
-144
-320
0
-416
96
-144
-432
-16
96
48
-128
32
320
80
-64
208
320
336
480
224
-144
-384
-288
-16
0
-144
-240
48
80
-240
-464
0
-128
416
32
448
656
112
-224
-304
-32
-224
0
-64
64
496
480
416
320
-112
128
240
400
224
-144
272
464
544
96
-128
-112
-144
-336
128
656
176
-208
112
496
304
48
480
240
-64
512
448
-288
-272
-400
-928
-112
-80
128
304
176
32
-16
272
208
-48
-208
272
560
288
64
128
176
240
656
224
-320
176
288
0
-112
176
704
416
160
336
-208
-576
16
0
-208
-16
-272
16
112
672
16
-480
80
256
464
320
-224
-272
64
0
416
192
-304
336
240
176
0
272
-112
-496
-208
-64
-288
-480
-96
-80
272
-96
-48
448
544
-272
-96
-208
144
432
624
176
-128
-176
-336
-272
-368
-128
464
272
368
-48
144
320
528
560
288
0
-48
-288
-336
-224
-240
384
-208
-320
-80
48
144
48
-160
304
496
512
176
-224
-496
-352
-144
-480
-96
-176
432
-144
-192
-240
-208
-192
-304
-800
-368
-560
-288
432
464
128
-80
-288
-464
-384
-304
224
608
464
208
0
-368
-624
-448
-320
-32
32
368
-336
-384
96
352
-48
-112
320
-80
-48
96
64
-80
-192
192
0
-224
-80
-80
-80
-16
288
64
-272
-464
-224
0
-160
-80
-112
144
208
384
176
-64
-128
256
32
-176
-304
96
336
-48
112
48
48
0
272
384
-160
-384
-32
144
112
16
144
0
-384
0
-112
-160
16
-304
-96
128
448
96
-128
-400
-656
-528
-512
-336
-160
208
-160
-384
-272
-416
-448
-112
-288
224
208
96
160
144
-304
-448
0
-352
-464
0
-64
0
144
288
-480
-336
224
-32
64
288
368
-160
-352
-384
-304
32
320
-208
-304
-272
-560
-224
336
96
-48
16
128
224
-560
-336
256
-320
-128
-384
-256
16
64
-224
-192
112
160
-16
352
400
144
-336
-384
-368
-32
-32
224
64
112
-224
-512
-288
-32
112
16
-16
32
-480
-640
-800
-192
32
384
-80
-128
-400
-448
-352
-176
-416
400
336
256
416
-544
-320
288
384
64
-448
80
240
576
80
-224
288
-288
240
400
320
176
304
336
-16
736
112
-336
-304
576
416
-96
320
192
288
176
128
-160
-432
-176
80
-752
-528
192
160
0
80
128
-64
64
576
672
-48
224
-16
-128
96
-176
-256
-80
224
624
688
-256
-128
416
-192
0
-16
640
320
-160
304
16
32
192
-192
-384
-272
-128
288
496
144
-96
32
192
16
-32
-176
96
-48
-48
-80
48
272
368
176
128
48
32
-320
-80
64
272
384
-160
-256
-208
-144
-96
-32
176
208
208
-32
-32
336
-16
-80
-96
144
320
176
176
16
416
160
-176
-240
288
128
656
144
-304
-400
160
-16
432
128
-336
-224
-208
-160
-256
-432
-512
-432
-96
-208
240
-176
-432
-80
32
-192
-368
128
272
128
192
-32
272
560
512
448
-240
-400
-400
144
-64
-32
256
496
80
-256
-560
-48
-176
-288
-400
-192
-768
-96
-480
-288
720
464
112
288
-208
-512
-96
-144
480
784
480
-96
-128
256
-48
-304
448
336
32
-272
-224
-16
720
256
-400
-736
128
688
48
-384
-176
-448
-480
-80
400
-32
-336
-208
-336
-288
-112
320
32
-432
-176
-400
-368
144
272
128
-352
-224
128
176
-48
-224
-144
-224
64
32
-16
0
176
96
112
272
-80
16
-176
-128
-560
-224
-128
64
208
-160
-672
-528
-368
-112
16
240
368
-160
-224
224
288
-208
-176
-320
48
-32
-272
336
128
160
-192
-320
-256
-112
32
144
336
496
144
-256
-368
272
-16
-16
-272
-544
-16
-272
-384
-32
448
0
-336
-320
-400
32
-96
-64
-64
-112
144
176
-736
-80
-192
-480
-160
-224
-384
-496
-304
256
256
-192
-224
-16
512
928
640
112
272
-160
-128
464
-416
-240
128
608
528
400
-32
-320
-368
-96
-224
192
64
-144
-448
-48
-96
16
224
64
448
-48
384
544
-128
144
304
64
-240
208
448
176
-496
-416
128
400
208
-176
-240
-224
0
64
-528
-448
-352
-144
-48
144
256
288
416
576
384
-128
-80
-208
-608
-528
-304
64
384
432
16
-96
80
-144
16
-144
-80
32
64
224
-160
-224
-272
-96
-144
-16
-176
-144
-432
96
-208
-128
144
240
112
-256
-304
160
224
464
656
-64
128
-128
16
640
528
16
336
224
432
80
-128
-256
-32
240
-528
-176
128
96
-80
224
224
48
-112
-128
-480
-336
176
48
304
160
384
-32
128
160
-176
-32
64
-112
96
-352
-384
160
256
176
80
-416
-368
-224
32
-48
-48
176
-32
0
-96
128
144
-192
32
-320
-336
336
16
-272
144
368
624
464
-288
-128
-288
-96
384
160
-160
-96
96
-304
-80
32
-96
-128
176
-336
-368
544
528
336
-112
-464
-496
-400
-160
-112
192
-32
-144
144
256
144
432
16
432
16
-592
-848
-416
-304
272
-96
-96
-256
-448
-128
176
128
-192
-112
240
112
192
192
192
64
-16
192
624
176
144
80
128
240
208
-128
80
544
752
32
96
288
192
112
-16
-272
160
448
-208
-736
-288
80
-16
-64
-64
0
-128
-80
-144
-208
32
16
-176
-352
-272
128
0
128
-96
-192
-544
-384
-64
448
608
752
288
784
304
288
-272
-32
16
224
176
-48
48
-176
256
-240
-96
-144
48
-368
-96
-64
64
-80
-288
-272
160
768
-112
-240
0
-192
-432
-48
-128
96
384
512
288
-48
272
-320
-368
-96
144
-176
0
176
320
192
-16
112
32
-32
-448
-352
-48
32
-64
0
128
-128
144
112
-64
-240
208
16
-320
256
144
-128
176
-192
-80
528
32
-560
-256
112
-80
-48
-272
-64
64
112
-80
-416
-288
-304
-320
-224
-224
112
512
32
-432
144
144
-224
-176
496
368
-96
-176
128
320
752
464
416
-144
-80
112
224
112
176
-96
32
448
-48
-288
-416
-304
-432
-64
288
-464
256
-240
-224
64
-80
-192
272
-96
128
-96
128
96
-96
528
128
80
112
-288
-288
192
-80
432
80
-528
-144
224
-48
192
160
288
368
192
-192
-336
-208
-64
-208
-16
96
-64
-240
-176
-384
-192
112
96
-256
-144
176
-48
-368
-112
192
80
352
48
-144
48
-192
-464
16
-304
-224
-144
-352
-336
-64
256
-208
-320
-496
-64
-160
-112
128
416
224
464
464
0
144
288
-96
-16
-208
-432
-64
80
48
-112
-528
-208
-96
-192
-32
-352
-384
-96
288
-192
-48
-192
32
96
384
560
272
-96
-304
64
512
112
256
-96
-544
64
592
256
208
352
224
512
528
16
128
-32
176
-112
208
-96
-192
-48
-224
48
-256
-464
416
16
-144
320
224
-64
-432
-192
-256
64
-480
-528
-32
-128
-48
80
224
-496
-640
-16
336
96
-144
400
16
16
-32
64
-64
-224
-480
-480
-432
-176
-176
176
336
240
176
288
144
-320
-464
144
16
64
-352
-144
-640
-512
-352
96
0
288
64
96
288
-16
96
192
304
208
208
368
272
784
416
-176
48
176
-64
320
240
80
-208
-16
256
0
256
256
592
352
-48
-16
208
240
400
48
48
-48
-336
-304
64
-400
-512
-480
-224
144
352
336
-416
-672
-464
-240
-160
96
224
256
32
-480
-560
-16
-272
-160
400
192
-512
-448
16
-160
64
48
112
144
0
-32
80
256
464
128
0
-96
32
192
-144
-16
464
272
-320
336
96
-16
144
288
-272
32
144
-320
-48
96
-64
-64
-64
176
320
96
-96
208
384
208
-96
-400
-272
-272
48
-48
-144
-256
-384
128
544
304
-400
-288
-112
-32
-64
-208
608
176
144
112
-112
96
16
-208
272
400
176
-224
208
-48
-128
-128
0
-160
-272
-320
-224
-80
320
-64
336
-96
80
224
-160
-336
-800
-160
-176
-128
-48
16
-32
32
-208
176
80
-128
-96
-288
-352
-416
160
-144
-96
-112
-208
-224
320
224
16
-400
-560
-160
272
384
544
192
224
-112
64
-48
176
-48
48
224
576
240
-64
160
0
-176
-128
-80
256
176
192
512
304
224
208
656
160
-560
-496
192
32
0
-64
-320
-368
-416
144
-128
-80
224
-416
-272
-192
16
-48
576
624
-224
-320
-480
-480
-336
-288
0
16
176
272
144
192
-16
-32
320
-16
-256
-688
-288
416
448
224
96
224
352
176
272
-160
-288
-512
0
192
-80
-304
-208
-16
-208
112
368
704
-128
0
-16
240
-272
128
512
32
-80
192
464
96
256
-176
16
240
-304
-288
464
304
-80
0
-512
-192
-160
-368
-32
-176
-464
-432
-80
-208
-576
-80
-320
-352
-224
-48
-16
-128
-16
-96
-304
-32
512
336
-528
-64
608
176
-256
48
496
0
16
16
-80
-32
-96
-480
-80
144
-32
-256
-160
-512
208
496
-144
64
-128
-32
48
240
-208
-288
400
272
-336
-160
256
64
480
64
32
-272
-144
-608
-416
-192
-32
-336
-64
48
-352
-80
-16
112
-288
-480
-384
192
128
-64
112
-192
-48
-272
-208
-672
-32
-208
-16
-64
-160
-288
-240
-32
-336
-320
0
224
160
-128
16
288
-48
160
272
128
96
208
48
128
464
336
256
0
-400
176
240
272
32
128
-368
-272
-352
-272
-128
48
-416
-96
-480
-208
320
496
48
-560
-32
256
-144
-32
192
432
176
-32
-160
-112
-240
-304
-304
-464
-336
0
-160
-176
432
96
64
96
-96
-592
-240
96
544
160
224
-368
-640
-304
-144
-48
-192
144
256
-240
-112
-112
-96
-288
-160
-176
512
336
-32
144
304
96
-160
-96
-16
208
192
208
-368
-384
-96
-160
32
80
-144
-160
224
256
-80
-80
-256
16
240
384
656
432
-64
32
176
-64
-304
384
368
208
-256
-144
-592
-496
-176
-80
16
32
-240
0
256
128
96
-128
-64
-128
-240
-352
-304
-352
0
-208
-256
48
384
-208
-496
-240
-112
-48
-48
32
288
96
-80
-400
-336
224
352
-272
-256
224
-80
-512
-288
-128
-272
144
-256
144
-16
-528
-112
-208
352
352
64
-96
-464
-304
-64
64
-112
-192
16
80
128
-224
-384
-208
368
160
-128
-256
128
-128
192
416
80
-368
-560
16
-208
128
-80
-112
-240
-112
128
-432
-32
-96
80
416
-224
-336
-144
-160
-128
240
544
624
672
576
672
448
176
384
-320
-544
-368
-64
288
-288
-64
-112
-64
352
304
-48
464
224
-192
-304
64
192
-208
-144
464
-80
16
128
-288
-416
-160
16
-144
-272
48
304
-320
-480
448
-400
-560
-448
-304
-48
208
208
448
352
96
-432
-352
48
16
-32
-16
-32
80
304
368
-64
-416
-256
-48
160
128
80
-288
-352
-80
16
256
336
272
-16
0
-176
64
544
224
272
288
-208
-336
32
96
80
-224
176
-256
368
-16
-384
-160
176
128
-64
-64
-96
48
-320
-448
64
512
96
96
416
368
-288
112
-224
-176
-256
-320
336
80
464
128
0
-160
-176
368
-96
-400
160
-112
-112
272
384
-288
-208
16
-112
-224
-288
-144
-416
-400
-512
-240
384
96
-368
-160
-144
-80
-32
112
560
624
144
-96
-176
-144
-96
-32
-368
-320
208
480
-272
-336
384
416
400
144
352
-48
-160
-464
-560
-624
-288
-336
-576
-160
-176
80
-352
-256
304
528
96
-416
-224
-176
-320
-464
176
112
384
-64
-448
-224
288
-96
384
416
-240
-384
-192
64
512
368
-288
-176
-176
-160
32
-160
352
256
208
48
-384
-64
352
-48
-192
-176
32
-48
-304
128
176
-160
-128
80
-64
128
-48
0
16
-48
288
304
96
224
48
-208
-512
48
64
0
-48
-32
-192
64
160
48
160
0
96
-256
16
-64
160
-304
-224
-32
208
80
-176
-128
32
-304
-496
96
224
-304
-144
96
-464
16
-320
-1008
-336
432
224
288
192
64
-368
-240
224
144
976
432
112
-240
-352
-192
-256
-64
256
336
-96
16
224
304
592
-48
320
192
64
160
-80
-512
-400
-48
-48
-256
-304
-208
-64
112
128
624
208
-672
-176
-160
-464
0
240
-400
-128
224
-144
-352
-400
-464
-240
-272
-224
224
192
96
-64
-176
-496
-464
-272
208
0
400
32
-144
16
-80
-32
48
560
256
-576
-32
432
496
144
448
416
-16
0
-256
-128
-256
-64
32
16
224
160
864
1008
432
-112
80
-128
-80
-128
-80
176
-192
-272
-176
96
-96
-80
-400
-64
400
-80
-112
-48
16
-272
-32
-48
128
272
-112
128
624
-64
-256
-160
-176
304
16
-112
560
-64
160
192
176
720
96
-352
-96
416
96
0
576
240
592
352
208
144
288
-304
-112
-64
-160
-384
0
64
-384
-384
80
176
64
-304
-192
-272
-80
-304
-256
208
32
-320
240
-80
-176
320
-112
224
432
704
112
-224
-64
32
48
-224
288
528
96
48
208
32
-272
80
304
176
368
-80
-224
-480
-448
-160
320
-128
-32
64
48
160
112
-256
-288
-112
-160
-48
-64
-64
-144
-64
32
-32
16
-144
224
416
144
416
-96
-96
192
-112
-416
-208
-48
-288
208
128
-160
-496
-1072
-272
-304
-96
-48
-336
-160
-160
32
-480
160
144
-464
-240
208
176
-304
-400
64
-48
-224
-256
-240
-400
256
272
48
-256
-16
-144
-32
-48
-240
64
-16
0
-48
-176
144
-128
0
-64
368
-192
-16
96
-192
-16
-576
112
144
-64
-96
-384
-512
-240
-384
-256
-144
-240
-128
-96
-64
64
-224
-640
-400
-32
-64
752
400
224
144
-160
-352
-112
-208
112
224
272
448
32
-400
-144
-208
-80
48
128
144
-400
-192
112
432
432
368
-16
240
80
320
-400
-512
-128
80
32
-96
32
-336
-16
-256
-320
288
-256
-352
-464
-240
144
64
288
-16
-160
-112
-32
32
-416
32
112
-144
32
448
64
144
-112
272
272
-176
-304
-96
144
48
0
0
-272
-368
-512
-240
144
-96
-128
112
416
-96
112
576
480
384
192
-256
-96
-16
-144
-208
-48
-336
-32
-80
224
544
320
96
-144
-96
80
-192
336
-256
-144
96
640
224
0
448
144
0
-16
-448
-224
-128
-160
-448
368
464
-80
224
-80
304
320
96
-48
-240
-224
32
384
304
800
528
288
144
336
-272
288
64
-384
-112
240
-144
224
416
720
512
176
-112
32
128
-80
-48
-192
-48
608
848
496
384
48
128
-320
-464
-368
-320
-208
352
160
128
224
176
-192
128
208
112
288
496
-112
48
464
192
-304
-272
16
-528
-624
0
624
416
0
-304
112
112
-80
-544
-288
-416
80
-480
-416
160
-144
32
240
48
208
528
-336
-576
-160
160
80
-128
176
16
-368
-224
-176
112
128
80
32
304
48
-464
-448
-304
48
352
160
464
48
-736
-288
320
-16
160
176
-64
0
32
-192
-64
-256
176
160
48
384
32
-224
-320
-256
-128
112
656
192
144
112
352
464
112
144
-144
-160
496
64
-144
0
-32
-32
0
240
-208
-400
-528
-16
-624
160
368
48
-64
432
736
544
96
-256
16
-96
208
640
416
352
496
352
-208
672
624
-272
64
800
480
1184
1088
352
112
0
-16
368
544
672
528
-64
-320
-128
48
352
160
0
32
-160
32
-48
-416
-544
-304
32
-272
160
384
176
48
160
112
-160
240
-32
64
-560
-16
0
-48
-240
176
464
480
-144
-16
-176
96
-64
-64
96
-64
-320
352
320
80
-144
-240
96
-352
-496
-16
32
-128
-32
352
256
240
-176
-544
-336
-160
-112
144
-48
272
-192
-224
-128
-544
-224
-208
-240
-224
-160
112
64
-224
-96
-288
256
576
336
192
-160
240
-176
64
528
-192
-384
-272
320
176
-176
-288
-80
-96
-128
-352
-432
0
-192
-336
-48
-160
-144
48
-336
-336
16
0
-240
144
320
96
64
176
304
-160
-304
-80
272
304
-80
-128
-64
144
0
-480
32
112
0
272
-144
-352
320
288
-224
-16
320
112
80
80
80
-32
-144
-256
64
224
304
-64
-144
448
400
336
240
-192
16
80
16
-80
-144
128
-192
32
224
64
832
368
80
-336
-128
-32
176
16
80
64
-176
-144
-432
-416
-240
-336
-16
448
128
112
-80
-304
-16
0
-448
-672
160
160
144
320
128
0
-176
-256
-176
-240
-176
208
-224
176
176
-336
64
192
-240
64
-352
-96
192
-176
224
80
192
144
272
192
-32
240
32
-528
-416
64
400
-48
64
288
80
544
336
160
176
160
320
224
256
-64
-384
-640
-64
-64
-368
176
-240
-128
304
240
32
112
528
288
-64
-224
160
160
-224
80
192
368
32
-80
-256
256
448
256
96
-160
-256
176
-384
-336
64
16
-176
-80
-464
-80
176
-112
-32
224
400
480
-32
32
48
-464
-192
-144
-32
-128
-64
464
-144
-144
-480
-48
208
16
48
80
-352
-272
192
368
16
480
272
-192
-160
-96
144
-432
-432
-64
256
-128
112
16
-272
-560
-160
-64
-32
32
-192
-432
-208
-208
-256
-432
-160
240
64
-160
-224
320
208
-160
160
16
-240
-336
-416
-560
-16
-80
-272
-544
-352
-144
-416
192
400
48
368
-368
-544
-224
0
192
352
-400
64
304
-224
224
-128
-96
64
-368
-160
304
-160
-80
0
-128
16
-48
-208
0
368
224
400
-48
176
-320
-288
-432
96
160
272
112
464
448
432
16
-304
-224
-368
272
-288
-304
-80
-208
-144
-128
-112
336
400
-304
-160
240
592
368
16
-16
-32
-192
112
128
-96
-368
-144
528
336
-96
-496
-320
-400
-48
-80
448
464
192
432
304
64
16
64
-64
-64
-16
-208
-240
80
640
112
368
464
96
-192
32
-192
368
176
288
528
400
112
128
528
144
-368
256
256
64
352
224
-336
112
224
-176
-112
-112
-80
-512
-208
128
384
-288
288
320
-16
-400
-544
-448
352
112
-400
304
160
-192
272
112
-464
-432
-464
-272
400
-112
-512
-448
240
48
368
-160
-96
192
272
0
-464
-464
-48
304
-352
-16
32
-464
-224
192
-64
368
-16
-64
352
304
256
0
-32
144
208
176
32
-144
80
224
320
128
512
0
-464
-96
-320
-384
-208
416
240
-144
80
224
208
320
528
176
192
112
-288
0
32
-256
-272
512
80
-112
-192
304
128
96
0
-192
-48
-128
-112
-448
-80
-128
80
160
192
-96
16
-256
-448
-16
-240
-480
-448
-368
0
400
-80
-288
-736
-272
-272
-400
-160
320
288
-192
192
640
-16
80
128
-96
128
-336
0
-160
32
592
208
-112
-240
64
32
-496
-96
32
-48
560
208
-432
-176
-208
-224
336
48
-48
288
-368
-368
-208
64
-352
272
288
144
0
-16
96
-144
-96
224
48
-160
-384
-512
-304
-64
176
-80
64
192
-384
80
384
-256
96
-160
-240
-144
-32
32
352
-160
-464
-208
144
16
-432
-128
96
-96
240
176
-272
-432
-304
-176
-304
32
-16
-160
-400
-128
608
400
-240
336
640
48
-352
80
224
-368
-96
-208
16
-144
160
272
544
368
-16
208
320
80
160
176
-592
-480
16
240
272
-64
-16
16
32
-144
160
224
-32
-16
320
208
-272
-80
-64
-16
528
416
288
128
-32
-336
-128
96
576
144
-48
96
688
432
-64
128
448
512
-48
-288
176
592
-112
-192
320
-192
-224
240
448
304
112
496
-32
304
544
160
-400
-352
192
-160
176
240
-224
80
208
112
-272
-112
-96
-256
160
96
-144
-352
-224
176
-80
16
-384
-432
-288
-64
128
64
-464
160
336
80
-384
-512
-368
-160
272
400
-160
-208
48
64
144
96
-640
-352
448
288
688
832
112
-176
-96
-352
-64
-192
-16
96
128
-304
-432
-48
-208
-48
-416
-736
0
112
64
304
592
144
-64
-96
-416
-640
-224
160
-64
-80
-32
-304
-688
-496
-384
-432
352
-16
-320
-272
-144
-576
-256
64
-80
352
288
416
-128
64
-208
0
128
-288
-208
144
-96
-368
-16
-64
-96
464
240
0
256
64
-432
-400
-96
400
448
320
368
0
144
0
16
-64
48
384
-64
144
544
112
-224
176
240
16
-512
-224
-144
-80
-64
160
64
160
-624
160
208
-304
-304
-352
80
80
-64
192
240
400
240
-32
-256
-320
-208
-144
-272
-224
-64
320
352
448
320
480
0
-176
-144
128
-32
-208
-320
128
-112
256
48
-80
416
384
80
-304
-816
-304
-176
-160
64
32
176
-96
288
-32
96
64
-16
144
304
96
-224
-256
160
-48
-304
-496
-512
-432
-16
384
304
192
256
224
512
624
240
-96
176
368
592
272
224
-16
800
464
-208
368
-192
-16
144
32
-128
128
-96
-640
16
-192
176
128
448
320
-448
-96
272
80
-112
-176
160
128
-224
-352
-320
-288
-112
96
0
-304
96
16
48
-48
720
208
-656
-32
256
112
-272
-288
-112
112
80
-160
96
304
-304
-240
-304
112
304
496
352
176
112
208
624
-192
-16
-96
176
-96
0
256
256
256
-176
-176
160
160
240
464
144
-96
-16
352
208
656
304
32
-80
-32
-192
-16
144
96
-80
-224
400
224
144
432
-160
-384
0
-160
256
192
-256
-32
-624
-96
400
160
176
384
224
192
-48
160
-80
-144
-96
-112
32
-128
512
-192
464
240
-128
-32
-96
-144
224
176
512
-96
-448
-16
-48
48
-32
144
48
-64
176
352
-240
-384
160
32
-192
-176
-144
176
80
-208
-384
-528
-448
256
-336
-544
-368
-384
-192
272
352
-48
48
-208
-80
576
736
-192
-480
-96
-112
192
-160
-272
272
656
-256
-128
-176
96
144
336
144
288
112
16
80
80
576
256
160
496
256
-560
-208
48
208
128
160
240
144
272
0
320
656
-64
-288
-336
-192
16
-128
112
-80
-224
80
224
-160
-176
-48
-224
-304
80
-16
304
336
336
624
640
-16
-80
-96
-160
-128
-176
-64
-256
96
32
-144
208
448
-240
-288
-864
144
352
-528
-368
176
368
336
-80
256
96
-480
-16
416
-288
-32
-416
-464
-704
-560
-352
-32
-192
112
96
-128
-64
-128
-176
-224
-336
-336
32
112
-528
0
96
-112
144
-224
-144
-464
80
-288
-192
-288
-144
-368
48
-256
-128
448
128
336
224
0
368
160
336
272
208
64
-176
-320
-256
-240
-320
192
224
224
208
-16
-144
-192
512
-80
-16
96
-80
176
160
-208
80
512
-16
176
112
64
544
224
-560
-176
-112
-32
0
0
-336
-48
-128
-160
-224
144
80
-256
80
304
352
224
128
304
80
400
576
-304
-144
-144
-416
96
96
432
32
-96
656
304
0
-64
640
288
176
448
320
256
112
-128
160
768
112
-176
352
304
544
-16
-256
-32
-80
-336
-208
96
272
-64
-384
32
128
-240
112
176
16
-368
48
-16
-128
416
-80
-96
480
224
128
-160
128
224
-32
-96
-16
-272
-480
-48
-320
-496
-48
496
96
176
160
-208
64
176
288
-224
-336
-112
80
-304
-368
384
144
-80
176
0
16
160
-80
-784
-896
-224
48
320
176
272
64
-432
-48
-576
-240
48
464
-272
-192
-176
-288
-112
-432
-16
-128
-272
-160
64
208
-192
-352
-64
192
-272
-128
64
-336
-432
-160
128
-304
-560
-208
-288
-384
0
160
-384
0
-416
368
560
352
16
-80
-144
-336
32
80
-112
-160
224
-48
-288
336
320
32
-112
-288
-32
-352
-80
304
64
-224
-224
-96
16
128
-144
-80
0
176
-32
-224
256
-64
-192
-144
-320
-464
400
-160
0
96
-160
208
-64
64
224
-240
-352
-224
-208
80
240
-192
-592
-384
-272
-192
-384
-112
-128
160
224
528
-128
-32
-224
-384
-608
-336
96
-224
-16
224
496
192
144
288
304
304
-192
192
160
80
352
96
224
-32
-192
80
256
592
-224
-400
-96
16
192
64
32
-256
-224
-304
32
-208
112
-224
-288
-320
-400
-272
-176
-432
176
224
16
256
128
128
-400
80
224
-48
-496
-448
96
16
352
-80
16
544
368
-16
-32
-128
464
144
16
-144
208
-32
176
336
48
-64
-112
-176
-80
208
192
-160
64
-208
-400
432
704
80
400
-96
-432
-544
-96
432
160
112
32
16
224
0
336
-288
-272
-192
-208
-304
832
224
-64
-64
32
32
-192
-48
-304
144
-112
80
416
112
-160
-176
-192
384
352
-256
80
-480
-16
256
320
80
192
-144
-464
336
96
-96
96
384
64
-512
-384
48
-48
-160
-304
-16
160
-144
640
464
144
192
304
112
-592
-176
-272
464
368
256
160
-48
-16
304
-96
176
688
0
-80
400
144
-112
-416
-304
-480
32
-48
-144
-464
-432
-400
48
32
80
-288
128
224
528
96
-224
-48
-160
192
560
48
-432
-672
32
192
16
-32
-240
-368
64
528
-32
-176
-432
-560
-336
-288
-368
-272
-448
-448
-192
432
-160
-704
288
-144
-384
-240
208
112
-640
-400
448
368
-432
-416
-48
-96
-720
-416
-624
-784
-224
-400
-48
32
-496
-240
-592
-112
192
-304
-320
-224
96
-112
-272
-304
-448
-432
48
48
128
-96
240
0
112
-176
-256
-192
160
-144
-272
80
-128
112
-144
-112
272
176
80
-80
304
128
272
208
-688
-192
16
64
96
-464
-16
80
128
-144
-128
-336
224
560
-240
176
224
256
48
-64
-256
48
-16
-304
0
-64
96
-336
-256
48
320
336
560
384
-32
-512
-48
128
-288
16
64
-96
-144
-352
-448
-80
-96
-352
-400
-64
464
608
-272
-192
-336
-352
112
432
224
384
16
144
0
-80
384
96
-288
-48
-384
-176
-256
352
560
608
160
128
240
16
96
-96
-16
176
32
384
416
48
-32
-224
160
-304
-208
-304
-32
-352
-64
832
-240
-96
32
-208
112
48
208
-208
-144
304
304
80
368
336
112
-272
-160
16
400
432
-320
64
48
-16
336
0
32
208
144
-48
-48
0
-176
-32
368
592
624
544
48
-496
288
432
-208
-400
-576
-32
400
-144
-528
-192
-144
272
256
48
384
304
-192
-32
-128
224
528
336
464
592
192
-272
-672
-352
176
32
304
352
176
208
-384
-464
-64
352
0
80
-64
0
528
-48
-464
16
16
-128
128
-464
-192
-192
-352
48
-192
-96
-96
-80
-144
-496
-208
-112
-288
-32
-432
-560
-304
304
64
32
240
128
192
272
368
208
-48
240
320
464
272
320
240
400
704
608
80
-320
0
-48
48
-128
0
-352
-256
0
128
-256
64
-32
-384
-144
240
304
160
224
272
304
-160
64
-208
-176
-16
176
-288
-48
-592
-528
304
256
-144
-128
-576
-480
336
640
704
624
288
-80
64
144
-128
224
528
304
208
192
272
288
-256
-208
-64
192
-160
112
288
112
0
80
-320
-400
-272
-112
32
48
-496
-192
-304
352
592
-336
-160
-32
-48
80
48
-256
-96
688
-288
-176
608
16
-368
-608
-336
-256
-272
-80
288
64
-64
-144
-16
-160
-176
-192
-592
-576
-144
-208
32
48
-48
-224
-192
-368
320
-48
96
-176
-384
-272
176
128
0
-112
64
-48
0
-160
-176
-112
-48
144
-208
-160
336
160
160
112
-144
-112
-176
-224
-432
-224
432
368
160
352
-144
-304
-240
0
256
368
128
416
-64
-304
-160
0
-32
-128
-400
-240
320
-176
128
-192
-16
32
-352
240
144
-336
-240
-320
-416
-112
336
400
-48
64
192
-448
-416
-336
16
-400
-144
32
-272
-336
-400
-272
-496
-336
-144
-272
16
48
400
112
224
64
-256
-16
256
112
432
592
464
-320
-208
-112
-16
-208
-752
-64
-112
-160
288
96
-352
-256
-192
-32
32
-192
-336
-144
-128
16
32
144
80
0
448
864
304
320
-32
-48
-48
144
-192
-416
-192
272
224
-288
-80
112
208
-304
96
272
80
-288
-304
-624
-16
144
224
176
80
-432
-272
-80
192
304
144
192
-272
384
576
-352
-64
-112
-80
-448
-464
-224
-160
256
288
368
48
-192
-208
-144
-80
208
-128
-176
-192
-240
0
0
160
208
176
-32
-192
-432
-192
144
-336
32
-336
-384
-144
-352
368
16
-352
-224
-256
-112
448
1216
128
32
-288
-400
-16
-160
-48
-48
304
80
32
432
32
208
-96
-128
-240
-64
-160
-480
64
-128
48
752
608
208
-48
-256
-272
64
-96
320
352
16
192
-320
-400
-80
400
304
352
48
16
-368
-192
128
48
272
576
256
-368
-256
-80
144
144
-128
-128
-288
32
320
48
16
-384
-784
-512
-176
-192
128
48
336
-48
128
-16
32
-528
-384
112
128
224
96
-64
48
384
320
-336
-32
64
-176
-16
-368
-304
-272
-64
-544
-448
192
-112
-48
-272
-288
224
384
-16
-224
272
352
96
-160
48
464
464
0
-32
-272
528
496
192
0
-192
-448
-272
160
240
-192
-528
-144
48
208
-480
-64
0
-160
-16
112
-80
-448
-560
-736
-48
256
48
-112
128
176
16
32
-352
-448
64
288
304
80
416
464
-272
-512
-272
208
224
48
-112
-304
-96
-128
-192
16
-224
32
-32
48
144
400
112
192
-416
-288
-48
208
192
-64
-80
496
176
304
176
32
368
-224
-48
-32
64
-144
-16
336
-48
240
208
-224
-192
-416
-928
-240
-208
0
-400
224
80
-496
-48
128
-304
128
64
-416
-256
-128
304
-224
-176
640
784
272
-384
-592
32
-304
-368
-576
-976
-512
-96
-80
-640
-592
208
240
112
64
-464
-288
-48
-272
-416
-48
-272
16
-112
-192
48
-16
-80
64
320
-32
-384
-96
48
-336
-432
-160
-352
-512
-224
48
-48
-64
-176
0
-160
-272
192
-208
-240
-112
48
-192
-192
48
-16
-80
-416
-384
-224
-256
96
-128
-368
48
-160
-96
-192
-128
-368
-240
-16
208
32
288
416
32
64
-160
-128
240
-96
160
240
192
-176
144
112
176
272
-160
80
-128
-128
64
192
-128
256
336
-96
-112
-32
64
384
416
-208
368
288
112
-48
288
240
-32
16
-64
-176
-32
208
-32
-224
-240
-208
-64
512
80
-240
-464
32
368
-96
48
-400
-704
-272
-160
-144
-272
-448
-192
288
160
0
-144
80
128
160
288
-96
-96
-48
-80
512
416
16
-640
-192
64
-272
-352
288
208
32
-464
-704
-112
0
-32
144
-288
-560
-352
256
448
336
96
-320
-80
48
16
-160
-416
-240
-240
16
240
48
352
-144
240
288
320
240
480
0
-112
64
-96
288
-208
80
352
-112
0
-160
-96
-384
-464
16
-192
192
192
112
192
80
80
128
288
256
-304
-528
-240
160
-32
-64
-224
176
336
192
-112
-112
-192
-32
-48
320
144
-32
112
240
224
528
-80
-304
272
624
192
384
-448
-64
-272
-48
208
0
-32
-112
432
592
16
288
0
-48
96
48
320
240
144
80
-352
112
-112
-160
496
528
32
176
544
64
-336
-48
-16
112
-240
176
48
80
384
128
96
-256
112
432
-240
32
96
112
-112
80
-16
-464
-272
-208
304
512
368
-80
400
592
-208
64
128
240
-400
-336
80
272
-16
-288
160
784
112
240
208
400
208
256
-304
-16
-288
-512
64
368
-80
-304
272
-96
0
128
352
48
144
32
-464
-480
48
272
16
128
592
16
-144
0
-32
-64
-48
416
752
320
-128
-160
160
-64
-96
-288
-96
224
112
-32
48
80
-64
-48
-96
192
128
352
480
192
-48
432
560
-160
-48
-48
-368
-512
-96
96
368
96
-96
336
-64
-624
-320
-432
144
320
-64
-80
464
240
-336
-336
-224
-224
-224
-368
-32
-208
-128
208
960
0
-352
-32
576
224
96
-16
-64
16
208
-32
464
256
128
48
-128
112
208
608
608
128
-176
128
288
336
112
160
528
416
-48
480
304
80
64
128
272
-80
-272
16
-80
-192
-176
32
-96
-400
-384
16
400
80
160
-144
272
-48
464
480
-128
-256
144
-256
48
96
272
16
-224
-288
80
304
-208
16
128
64
320
192
256
464
512
128
144
224
-304
-640
-464
160
112
-144
-48
-672
-256
160
32
144
304
528
-240
-256
352
-128
448
-240
-32
624
592
368
256
384
-304
-704
-400
128
240
-80
0
-176
-544
-112
128
272
144
240
160
-224
-400
-368
-112
80
256
368
-80
-448
-688
96
272
544
416
-16
240
464
256
0
240
416
544
-208
-592
-208
-128
-16
240
160
48
64
-384
-432
224
272
-16
128
224
80
-32
272
528
-16
-112
-16
64
32
-64
-144
288
96
128
-208
-288
48
304
336
272
32
400
64
96
-32
-288
-96
16
-432
-400
256
512
352
-192
-304
-64
-448
-672
-464
-240
-336
352
256
-112
-48
-32
0
-112
-224
-432
-320
96
-368
32
176
-192
-480
64
64
-368
-400
-352
208
-96
-256
-464
-352
-480
-80
512
192
0
288
-224
-240
-160
-32
-176
-336
160
224
16
64
-256
16
352
-240
-288
96
128
-336
-240
-32
-208
-176
-112
80
-64
-288
-80
-416
-80
80
288
256
304
336
16
-32
80
208
80
64
-192
-256
240
288
-128
-176
64
48
-224
-208
208
-32
-176
240
160
368
384
448
272
-192
-160
416
672
1040
528
-400
-384
240
240
656
256
416
528
32
400
64
-464
48
256
272
208
224
80
-304
-176
448
80
-320
64
-256
-544
-240
272
144
256
112
32
0
608
-64
-416
320
432
208
-464
-224
-16
128
-64
-160
-16
64
80
80
-16
-176
192
-96
-400
-176
-96
-288
-688
-608
-560
-336
-32
-96
112
-16
448
-64
-304
128
80
-96
288
144
96
240
48
-368
-208
96
-272
-112
-272
-160
-144
-16
0
432
608
-16
-304
-160
-80
64
-16
-688
-480
-576
112
160
160
1152
240
-96
320
432
352
128
-400
-448
256
384
-32
176
400
336
176
288
-352
-160
-160
-192
-448
-448
-336
-112
-48
336
528
80
-160
-544
-240
-112
-464
-192
-16
96
208
-48
-80
-416
-688
-368
208
400
-96
32
224
240
-128
-272
176
128
160
80
336
-384
-576
-448
-64
-48
-48
-128
96
-448
-304
0
-96
96
400
96
-112
112
112
96
384
192
48
-176
-64
256
144
400
-512
-448
-112
-192
-240
-368
-416
592
64
-256
96
-208
-288
16
128
128
256
16
80
224
-16
-64
16
-496
-176
192
160
0
-64
-256
304
144
112
-272
-224
-64
-64
-112
-352
-320
-112
48
256
-16
-512
176
-288
-368
-272
-16
160
224
0
-64
-32
128
0
-192
-432
-320
-528
-16
-144
-160
-96
-96
0
320
368
256
-384
112
0
192
-64
-384
-16
-336
-416
-224
-496
32
-16
256
416
384
432
-64
32
64
272
224
224
400
304
64
-128
-432
-384
16
-48
-192
-352
-288
128
448
112
-80
-32
304
272
480
144
-48
96
-208
-480
-176
-144
-48
-288
224
16
80
288
416
256
512
496
608
496
336
64
-32
-64
-208
448
128
-368
-208
256
-224
128
352
176
-144
-160
-64
-128
-464
176
208
0
32
400
-384
-400
-368
192
96
64
-160
-192
-320
112
-80
-400
256
-96
48
96
-192
-160
-112
-224
192
96
400
128
-144
-48
368
400
112
-208
-320
-384
-384
-48
-336
-368
160
144
48
16
208
256
64
448
-48
-48
-272
-368
352
256
272
-176
240
-320
-464
-624
-192
-160
-368
432
96
48
-16
160
272
480
336
-96
-512
-240
416
320
-112
-32
-32
-32
128
320
272
-48
208
208
688
208
272
-144
-80
288
448
-416
-1136
-752
-416
-288
-336
-576
-144
-32
-224
240
80
192
560
304
256
-16
-32
64
-320
-384
-576
-208
-400
-128
272
256
32
400
368
304
368
320
336
352
32
144
32
-176
96
976
48
-256
-176
0
-128
-128
-208
-656
-192
-16
-320
-288
-80
208
-112
-80
416
160
-224
-464
-176
112
-32
-208
-320
-304
16
-192
-608
-448
-416
96
480
272
656
208
-240
-48
256
80
-224
0
576
464
-448
-208
80
576
736
-48
-304
-432
48
368
-64
-352
-592
-48
384
384
256
208
-176
80
-112
256
-128
-64
-272
-448
-272
320
320
144
112
-48
64
0
-656
-432
240
272
80
624
64
-288
-80
-128
-304
-624
112
128
-192
-480
-432
-208
-304
-432
0
-192
112
160
48
-288
96
576
496
48
-368
-64
112
48
176
400
400
-16
48
320
528
-16
48
80
-96
176
304
96
-272
208
-16
32
-32
464
896
448
-384
-208
-144
16
128
-48
-208
-160
-112
80
144
288
-288
-496
-240
208
64
-208
-512
-32
-64
416
224
80
-80
-512
-352
-320
-624
-256
-48
-288
384
240
-112
-288
256
-96
320
-288
48
-96
-240
-96
-64
-240
-512
0
-160
-112
80
528
336
112
144
464
560
64
-224
256
-208
-432
-352
-480
-528
-608
256
-240
-416
-48
-128
-480
-256
-368
-128
176
320
496
192
768
368
-496
-256
-288
-352
-448
-192
-16
144
-32
112
144
-544
-368
-144
-48
192
48
-112
-288
-576
-656
-48
-144
-368
-320
-48
-368
-288
480
208
128
272
-336
-96
48
80
-416
-352
128
144
-144
288
160
-16
880
416
480
400
96
368
96
640
416
-64
352
336
-176
32
128
912
480
16
144
208
-240
0
528
256
0
32
192
-544
112
256
-80
160
-352
80
-128
-192
-208
-288
-32
0
224
48
-16
160
-192
-496
-368
32
96
160
-80
-288
-240
-144
416
-176
48
64
32
224
-224
0
368
432
256
368
112
-192
16
80
368
16
-224
-480
-272
240
720
-128
-208
-96
80
256
64
-112
-560
-496
-496
-384
-144
-32
-144
224
336
96
-80
-144
432
320
-64
176
288
-256
48
-144
-208
-272
-176
208
496
272
-256
-64
-48
-480
-448
192
160
688
224
288
448
96
-48
16
144
32
-288
-80
-48
-192
-144
-192
160
368
528
-96
192
480
448
-176
-208
400
320
320
-336
-32
-224
-496
-352
0
384
48
176
-224
-864
-144
144
128
0
-304
-432
32
80
-272
-208
160
-544
-368
-272
-224
48
384
256
-304
-192
0
96
-112
560
832
176
-48
144
208
544
192
656
288
-96
-400
-464
-592
-464
-208
-32
-256
256
544
-304
-64
160
-48
240
576
-352
352
96
-272
-128
-224
-672
-624
64
752
288
-176
-128
96
368
144
320
336
112
32
384
0
-208
352
96
176
-144
-640
-352
208
64
-432
-272
240
-176
-400
272
-96
-320
80
0
-304
272
240
256
128
96
432
192
-208
-64
-384
-464
-304
-64
224
112
-112
288
-48
80
-80
-368
-384
-32
0
-512
-48
-80
-112
48
-112
-96
-128
176
-288
-896
-560
-208
-256
-32
-96
240
384
512
-432
-624
-144
-96
-496
-64
192
128
-48
192
256
592
-96
-480
16
-16
-224
-192
144
224
576
224
144
-96
-240
-80
-48
-16
-112
224
192
-160
-192
-112
464
240
-16
32
208
-208
-64
368
128
-272
128
384
-144
416
320
176
384
176
-304
-160
32
-128
304
-160
-16
160
-240
-544
-592
64
128
-496
-224
-80
224
-496
-512
-144
-256
-64
640
64
-48
-176
-224
-560
128
144
-336
-640
-304
400
240
128
-144
-816
-336
-336
0
96
-240
-320
-192
-304
-64
208
336
560
192
-240
-432
-240
224
240
-192
96
-80
-240
-400
-368
-656
-800
-720
-80
-224
-512
-64
496
624
144
256
-96
-80
-352
-320
-512
-192
192
32
208
256
240
560
224
-80
-160
176
208
112
320
-16
-400
-16
352
-544
-448
-512
-192
-32
256
-192
-176
-96
-160
288
400
-192
-624
-640
-368
160
784
368
-176
224
304
-80
96
-464
-272
176
16
96
48
224
-352
-96
-48
-112
192
96
80
96
416
144
-128
256
32
176
304
224
-128
128
288
-336
-160
-464
-128
352
432
144
208
80
400
144
304
112
-480
-496
-416
-576
-480
80
144
-128
224
368
-96
-144
-16
-240
-240
304
16
-496
-112
144
48
448
304
384
-16
-48
144
496
448
272
272
592
80
80
-208
-480
32
-352
-336
256
16
288
80
-64
-320
32
16
320
64
384
304
528
384
0
-80
-96
-480
-16
-336
-544
32
192
256
672
304
144
-272
-320
-192
0
16
192
-144
-112
-400
-576
-464
-16
0
416
208
384
400
-352
-288
-320
240
-400
-112
-416
-464
-16
48
-256
-400
-128
-128
208
544
80
192
368
112
-448
-192
-16
32
-496
-160
176
928
112
304
576
-144
96
-80
-128
48
-144
16
160
-96
-96
-16
-80
-48
32
-96
-192
-576
-368
-480
240
768
-528
-368
-144
-688
-576
-576
-160
336
-240
-160
-32
160
64
-192
64
240
-64
-144
288
208
384
32
-208
16
16
-80
80
112
80
32
384
480
-32
96
-192
96
720
304
-656
-576
16
128
-96
240
48
-48
-16
144
48
112
-256
-192
368
208
80
-48
240
208
-320
-272
-128
-16
80
-64
320
16
96
-208
64
96
112
-192
80
-32
512
752
320
96
176
-64
-288
-608
-320
-176
16
240
80
-304
-544
16
-16
-128
-208
192
288
-48
-80
176
-192
-16
-240
16
96
352
368
384
-64
-192
-80
336
32
320
-16
32
-352
-352
-160
-96
-16
-496
-176
-400
48
64
-320
-144
-128
160
160
-96
64
64
-96
-256
-208
-48
-336
-800
-112
64
16
-352
192
224
-144
-320
-512
-480
-16
-464
-288
224
-224
48
64
16
-192
0
144
640
752
336
272
112
-144
-96
-432
-752
-464
-64
-64
-384
-32
-352
-240
-416
-512
-592
-304
176
64
-112
-256
64
-304
16
-400
-96
80
-16
-432
-896
-96
-48
-80
-16
-432
-384
-208
0
-208
-80
880
592
-160
-96
-240
-352
112
560
0
-352
-624
-592
-240
-64
-144
224
16
-560
128
304
144
-32
-112
-288
-208
-464
-16
-368
-544
-416
-288
32
480
288
112
-640
288
720
480
224
-80
32
-112
-192
-112
-48
336
16
32
-96
-304
192
-16
240
-336
-384
-160
-512
-288
320
32
80
32
-176
-288
-608
-368
-304
-320
-16
-32
-224
128
16
-64
-112
-32
-560
-192
144
192
-48
-16
96
48
-64
48
480
480
192
192
-416
-16
112
256
288
-64
-384
-160
-144
-400
-736
-240
-368
96
304
-48
-256
528
368
288
144
-720
-32
-80
272
-96
208
-16
-512
-464
-448
-560
-160
80
-208
16
176
176
-160
-64
-176
48
-96
-64
-304
-320
32
-368
16
-224
0
32
400
208
80
-96
496
1088
352
80
-64
-112
32
-32
-224
-80
-64
-144
-160
-160
256
112
-208
-32
160
-64
-208
16
224
688
560
32
160
624
288
160
32
-32
-240
-80
-208
-256
-400
688
64
-400
0
-528
-32
416
576
32
-400
-48
64
112
-384
64
512
-272
-1088
-432
-224
-272
-192
-16
-320
-448
-576
-528
-48
-112
-208
352
-192
-96
-192
32
16
-720
240
512
32
-176
-144
160
368
32
-64
-448
-416
112
448
48
-80
16
64
96
304
128
-336
64
-112
-528
-288
-240
-240
-240
288
-96
-544
304
-48
-112
48
-224
-16
352
80
384
288
-336
-224
-400
-160
64
-128
-448
-288
112
208
624
96
-304
16
-272
-112
-304
-32
288
-208
-128
384
480
608
32
-208
-176
-304
-112
-128
16
-112
-304
16
464
-176
-816
-384
-400
-432
-192
-320
432
-48
-320
-608
-480
-160
176
-128
-304
112
96
-272
-288
-176
-288
-336
16
-48
80
32
-160
-400
-112
-528
-144
-96
-96
-16
192
-80
16
656
320
16
-80
32
448
144
304
-96
-480
-144
224
16
240
240
48
-32
208
-64
-192
-304
-400
160
64
48
-112
-544
-512
16
-224
96
256
32
176
-112
-32
-480
-624
224
176
-80
-240
-192
-512
-208
-464
-192
64
352
-336
-112
128
496
304
304
144
224
-336
-448
-240
-240
-64
-192
-16
-80
-352
-208
144
336
160
-80
32
128
320
48
96
-192
-304
-160
-96
240
224
272
-176
-320
-272
-480
-240
-16
224
160
-160
-224
288
544
240
-64
-368
-624
-304
-736
-384
-208
112
-48
-32
-240
32
304
16
96
-240
-160
-224
-352
-352
-224
-32
-464
-240
96
192
-16
192
0
368
80
-112
240
96
208
208
192
288
480
-224
208
528
-240
-320
-128
240
-64
-544
-128
-144
144
304
-112
64
560
-176
-368
-720
48
-96
-528
-224
0
-16
208
192
-16
432
-288
-112
448
-16
-112
-208
16
16
336
416
208
48
-128
-176
240
304
-128
-144
160
128
96
-384
80
320
-192
16
112
-96
-144
128
-544
-496
240
576
64
-480
-592
-368
-112
-32
240
64
-32
-160
304
736
416
496
-176
64
-144
-128
0
-272
-272
-240
0
272
368
544
-112
-80
-48
-80
320
64
48
-96
-192
64
-128
176
224
-208
112
432
320
240
48
80
-16
32
304
480
208
192
400
272
528
-208
-240
96
192
0
-32
160
-16
288
-16
32
208
224
160
304
-64
16
256
144
-64
352
32
-368
448
496
-208
-256
128
16
448
-16
-432
-32
304
-224
64
64
-144
32
80
128
-96
-224
-256
-368
-336
160
-144
80
144
-416
336
304
272
288
32
64
64
-416
-80
176
192
-48
208
-16
-144
80
336
-352
-192
16
-80
-176
176
-224
-640
-624
-496
-256
192
512
256
96
32
-96
16
128
416
256
272
-208
-144
368
416
-96
224
112
16
528
512
352
592
576
-432
-176
208
704
-80
-416
256
448
544
-96
-176
32
576
608
64
-112
-416
-352
-240
-112
-144
144
0
-128
256
128
432
288
-240
-208
-32
-192
-768
-384
-144
-64
96
160
0
-176
-192
-144
-16
-48
176
128
-352
336
784
352
-224
-128
-144
-848
-704
-416
32
-128
-176
-192
176
-64
-144
-96
-64
-288
96
-48
272
544
-336
-48
288
-80
-112
240
160
176
-32
-64
96
-368
272
48
400
256
112
320
240
80
32
-272
-208
384
64
-256
416
448
304
-16
-48
-304
-656
-672
-320
304
112
-176
224
272
416
-176
256
80
192
0
-112
-192
-144
-160
-112
-304
224
576
464
0
-432
256
144
432
384
-112
384
272
160
176
-256
-544
-432
-96
304
-208
-80
224
496
-144
-128
160
144
-96
0
320
-304
-32
-224
-480
-416
-352
-400
368
144
-80
96
96
384
-112
-320
-208
-16
-80
16
192
-368
-784
-176
208
288
-576
-144
528
144
272
352
224
192
-32
-192
160
528
320
560
528
-128
-160
0
48
0
-80
-240
-128
160
320
-160
-432
-224
352
352
96
-448
-400
80
304
-48
-32
144
144
-128
-256
288
-224
-64
496
512
-144
-240
-320
-352
-576
-320
128
192
-272
-416
-80
-192
-368
64
80
-240
0
-144
-320
16
-272
-736
-320
320
-144
-816
-608
-80
320
16
-208
208
-64
-528
-496
160
-240
-64
-96
-400
16
144
-256
-464
-592
80
-672
-160
-16
-320
-128
-576
-288
-240
416
-128
-48
48
-80
400
144
-32
192
-336
-176
-64
32
-32
-16
96
-96
-272
-16
400
128
-144
-32
400
208
-496
-448
-16
496
384
-208
-192
208
-144
304
544
448
128
208
-48
-96
736
336
48
288
192
144
-128
192
64
560
688
176
144
-304
-496
-160
-96
-96
112
128
-288
480
320
-432
-432
-432
112
176
-64
-80
-32
64
176
-64
-64
144
64
224
224
256
640
128
-32
176
368
-80
-96
-288
16
-160
-144
-336
-640
-272
-144
64
-112
-256
272
288
128
-32
32
352
-80
48
160
352
544
448
224
176
-144
-416
-64
-128
448
48
-400
-80
224
160
-16
-112
64
-320
-96
-128
-176
-352
-336
-144
-192
128
0
-32
-144
-528
-176
-176
-224
-176
-496
-96
0
-512
-16
128
80
-336
-64
320
96
-176
-592
-176
16
176
352
512
-48
-352
-64
32
-288
320
224
-112
-192
208
-464
-576
-16
96
544
320
-112
256
16
-416
-496
-48
288
320
-288
96
352
0
96
416
-160
-384
-192
-240
96
640
560
0
48
80
64
80
32
256
-32
-64
-512
-16
-80
-192
144
320
320
480
752
-48
208
704
48
48
16
336
224
736
192
16
-208
-816
-160
496
-96
32
304
176
160
-48
160
-96
112
48
416
-80
-576
-208
336
-112
496
320
-240
64
272
-32
224
-96
256
480
224
560
-32
-336
-432
-64
-256
-304
-128
-16
-64
-96
192
64
208
160
-288
272
-400
-384
192
608
-224
-432
-112
-272
-80
-64
-384
-64
-432
144
336
272
-288
-192
128
-128
160
320
240
-352
-256
-80
-416
80
32
144
-80
80
48
-112
288
160
48
624
608
112
16
-208
-176
-464
-544
-176
80
160
-208
-64
-224
208
-320
-288
-448
-576
208
-16
256
176
-80
-32
-16
128
16
288
-384
-448
-512
-208
880
304
-192
-288
-192
192
0
-112
-96
96
-128
-64
-320
32
368
-144
-368
-352
208
384
96
-64
-112
-208
64
144
352
208
-400
144
144
-544
-240
-112
112
-240
96
-160
0
16
48
-192
160
208
-480
-544
-304
-256
160
-80
-32
432
16
-320
-224
320
16
-80
-96
112
544
432
-192
384
384
-240
-384
272
32
-208
656
560
-176
128
128
160
304
-16
112
-128
144
-32
144
-48
176
240
-160
-32
240
0
-512
-240
-480
-720
-80
176
-64
96
112
-80
272
176
240
0
256
0
-16
16
-80
-176
-496
-432
-128
-144
-272
-64
-144
144
-48
-384
-160
-160
-416
-480
-224
16
544
368
-208
32
288
48
240
112
32
-224
-224
64
-384
-16
-208
-272
-192
16
-32
32
48
-176
-208
272
224
-288
240
128
-272
-288
16
-320
-320
-128
-128
-160
128
-496
-448
352
672
320
0
-288
-32
144
336
464
384
224
-96
-480
-528
16
-32
-48
576
640
-464
-96
-272
96
256
64
96
-544
-208
-192
-368
-352
-80
-240
-208
-272
-416
-64
512
640
-48
-48
-288
16
240
272
-96
192
-208
288
-128
-544
-288
288
256
-320
-64
272
-160
-16
-208
96
-64
-464
-400
-512
-192
416
240
272
-192
-272
-144
16
-272
-336
-432
-224
272
416
-192
-192
-480
-224
48
-240
-144
-320
-544
-736
-192
-288
-160
-16
16
-288
-208
-64
-112
-32
-32
208
128
-160
-128
-544
-480
16
-64
-400
64
-96
64
-224
272
-48
-128
-256
0
64
432
-288
-416
-160
0
-128
-96
-320
-48
-48
112
16
384
176
160
336
192
544
352
-96
-560
400
-176
-144
-16
-96
-256
-176
192
-160
-160
-192
-224
-16
48
16
-432
-160
240
128
0
64
144
144
-304
-32
384
352
96
-352
416
464
-96
96
192
0
320
-32
-704
-128
704
416
160
288
48
-208
416
208
64
224
48
-208
16
400
64
48
-64
160
-512
-448
-208
-240
-80
-272
-192
-48
-432
-464
-544
-336
-208
-96
-80
144
-448
-112
0
336
416
432
-352
-432
-272
-272
592
320
48
-224
-112
-304
-256
-336
-16
96
192
32
384
272
-256
-320
528
880
480
464
96
320
528
64
-368
-208
-208
-208
-128
-400
-192
-432
112
448
-48
-400
304
144
-64
-16
64
-48
-208
-32
-608
-464
-128
224
112
16
304
288
-112
-448
304
384
64
336
-128
48
-352
-576
-320
-48
336
224
-96
-336
-80
-288
-16
112
-176
-224
160
208
368
-112
-96
320
544
144
0
160
-176
96
352
-80
-160
-144
384
240
-192
224
160
-128
-480
96
224
384
192
-448
-288
-224
384
176
-96
-32
208
-64
-288
-352
-288
192
384
0
128
-608
-272
160
-304
176
-64
480
112
-64
112
-16
-16
16
96
320
96
-96
-32
-32
-144
288
672
80
-320
-32
560
-64
-512
-512
-416
80
-384
-224
0
80
64
-112
544
848
0
48
640
672
592
560
768
-96
32
-96
96
272
432
80
464
272
112
176
-256
-352
-432
-496
-464
-16
208
-16
-288
176
224
592
-32
-368
-432
416
512
-128
304
432
-48
-320
208
64
-128
16
-384
-256
-16
208
-192
-320
96
336
208
336
-80
112
-16
624
240
-208
144
64
-80
96
-400
-256
304
-256
-32
-256
-144
112
80
48
-32
16
-48
-224
-32
272
256
-80
-128
192
-256
0
208
208
656
816
112
-128
112
128
624
272
-96
144
144
240
16
368
-208
-272
-32
128
432
-80
-48
112
0
-768
-112
160
-336
-256
-224
-704
-688
-32
400
560
704
384
384
-96
-416
-528
-352
160
64
-64
128
432
160
240
160
-208
-304
-144
-64
320
-128
-48
32
-368
-16
336
48
96
336
176
192
-112
-448
-48
-144
16
-128
336
656
-176
-352
-192
64
160
336
304
176
-144
-112
-160
-80
-112
-272
464
208
-192
-400
-32
464
-48
-160
-176
272
336
-128
192
-128
-176
128
480
-112
-80
-240
224
112
160
352
-256
112
128
0
-352
144
400
416
400
432
-192
-320
-128
-208
0
240
320
-32
-208
432
432
-96
-368
144
-48
64
-48
192
-112
-32
-96
96
-32
304
48
-176
-336
-272
-480
-368
208
-256
192
336
-32
-512
-96
-144
144
128
96
208
112
144
112
-240
-272
160
-96
256
64
-16
496
288
-304
-336
-128
-272
176
512
256
32
384
336
112
128
-224
96
368
432
288
368
320
144
-400
-528
-272
-320
-192
-32
48
272
128
80
-32
-96
96
-112
144
-32
192
48
144
272
528
384
368
-208
-496
224
512
192
-144
-48
-656
48
400
-176
208
432
464
-16
304
-32
-176
-304
-80
384
288
176
288
64
-384
576
320
-352
336
480
400
240
288
240
-96
-240
416
528
-96
-480
-464
-304
-608
16
336
176
-352
-96
320
-176
-160
64
-208
-128
32
656
208
176
48
144
304
96
-320
16
464
128
-304
32
112
240
304
-80
-240
-128
-432
-80
96
-416
-256
-720
-80
288
-80
32
144
640
80
128
0
-80
-256
-560
-272
-240
192
416
-48
128
368
224
-144
-336
-288
-400
288
112
416
16
-256
-416
-80
-128
-544
-512
-368
-416
-496
96
64
32
688
176
-160
-400
-224
-368
-32
-64
-656
-240
144
-96
-272
-560
-352
688
128
-32
288
192
-192
-96
-416
-224
176
464
-32
112
352
-224
-64
272
80
48
128
-256
-240
-96
-320
-672
-16
528
192
192
0
96
96
336
160
-272
-192
448
768
-208
-16
80
352
0
-32
176
-96
-240
-336
-384
-672
-576
-336
48
-112
-112
0
-16
144
32
-208
-416
-192
336
-352
0
416
144
-144
-288
-128
112
160
48
-64
-48
-288
-304
-32
496
336
-224
-368
-432
272
112
-480
-480
112
192
-160
112
208
-512
-624
-48
144
144
128
448
176
-64
496
256
64
-32
-160
-208
208
240
848
96
240
48
272
256
96
-160
16
-144
-368
-464
-80
96
400
416
0
-48
-32
-448
-400
-208
32
-64
-576
-48
256
224
-176
-400
-112
-464
0
32
176
-32
-48
96
96
560
-64
-384
-320
-16
-176
-224
-288
-384
-704
-176
352
112
32
624
272
176
-160
-352
-96
-256
-496
-368
-96
-288
-528
48
240
160
-528
-256
64
368
512
0
-368
-80
288
-416
-176
560
-240
-592
-192
96
144
-176
-32
112
128
32
-16
-16
176
240
-144
48
320
-320
-592
-320
16
-64
32
240
480
208
240
208
352
288
240
0
432
416
352
16
-336
48
128
-480
64
464
192
176
0
-192
96
80
-192
272
-128
96
352
112
-32
160
432
576
608
32
-240
-48
400
192
96
352
368
-160
304
144
-208
-192
-320
-224
96
80
-128
-304
160
-320
128
656
240
320
688
224
-160
-336
-176
544
224
-304
-400
-192
-80
304
336
512
128
304
608
304
224
-176
16
336
-32
80
-272
-96
304
96
32
128
-160
-64
-144
-368
16
352
496
-16
-352
-80
96
176
160
320
160
192
416
-96
64
128
-80
304
32
-144
16
48
-304
-16
-48
-416
-688
-240
208
144
-176
-288
-176
112
272
592
96
-64
48
-48
48
96
-80
-208
-64
448
240
592
432
368
336
288
160
528
-240
-112
-80
-48
80
-96
448
576
208
16
96
128
240
-112
-336
-464
-208
-64
-128
-64
-160
-144
-208
-320
-384
32
256
208
160
512
320
-272
-224
64
48
208
144
0
176
768
336
-112
48
-368
-432
416
176
176
-80
-16
144
-240
192
-48
0
-128
-96
-368
-352
-272
-352
-80
32
240
16
-368
80
256
224
-192
-560
-160
-192
-192
-256
128
112
-144
0
96
160
176
144
160
240
496
288
-432
-16
-352
-240
64
128
-192
-240
192
224
-240
-432
-48
-224
0
-304
-416
224
144
208
-96
-144
-16
80
-16
48
-96
176
208
-80
-48
176
-64
-32
-112
160
-432
-64
-48
-256
256
128
288
-304
-272
64
-224
320
16
-176
-240
-96
144
736
416
160
480
352
-144
-256
-224
0
-96
-336
240
224
208
-64
-192
-256
128
-160
32
-288
-48
464
-16
-208
-64
-176
0
-32
320
160
-32
16
64
48
48
176
16
-208
-272
-416
-80
-288
32
64
336
64
560
736
0
-176
160
240
256
320
448
176
-224
-48
240
256
224
400
-144
-160
-128
-80
96
-80
-80
-16
256
-112
48
32
48
496
480
416
496
272
-96
640
688
576
-256
-720
32
0
-128
80
192
240
304
400
128
-528
0
48
-176
-256
-192
0
-288
256
496
-176
-32
16
80
256
528
608
240
64
-32
48
64
-448
224
-144
-464
-256
-224
-128
272
208
16
-176
48
32
-32
80
-288
-496
32
560
160
-528
-32
192
-96
-32
176
-32
224
64
192
96
-176
-368
-432
-208
16
160
-80
576
352
304
-400
-368
-64
496
544
-128
-208
160
-48
-400
-336
-240
-272
-240
-352
-496
-368
-112
-272
368
288
768
272
80
240
256
0
-144
0
-96
-416
-384
-128
80
528
0
80
48
-80
-352
-80
-368
16
0
-144
-16
128
16
-224
-240
-144
80
112
-128
0
-704
-480
320
448
16
32
0
-448
64
-128
-176
304
112
-128
-272
-160
672
656
48
-560
-1216
-672
-288
-64
208
144
176
352
528
-128
-368
16
144
-112
480
160
688
528
0
208
288
240
576
336
-176
-32
-848
-736
-192
48
16
-288
272
400
-144
96
160
-288
-64
-144
224
288
304
64
-384
80
336
416
176
384
-176
-80
-368
-160
-16
-80
-592
-592
160
368
304
320
-272
0
192
-224
-368
-416
-144
-480
-192
-496
-112
208
304
96
48
240
-320
-624
288
48
-400
-192
32
-64
-96
-560
-304
480
544
-432
-288
80
624
576
304
112
96
-464
-144
-32
16
32
-432
-624
48
96
-32
32
-208
-272
48
-768
-96
64
-112
128
-768
-432
-144
-224
-384
-368
80
-48
16
288
-128
176
80
-336
-368
288
16
-160
-160
-368
64
96
240
-272
-528
-160
-352
-144
128
-384
-272
96
320
304
-208
-256
-16
448
352
240
336
-448
-544
-400
-208
-192
-176
-64
16
32
-224
-192
-64
112
-256
-64
-352
-128
-80
-160
-240
-144
0
-144
16
-176
-448
-448
-560
-464
-384
-192
-80
-160
112
-400
-96
0
-272
-112
80
96
-240
288
112
-64
96
64
-96
16
128
-208
-608
-704
-496
-304
-704
-288
-304
-320
-448
-160
-384
16
-224
-80
-32
144
272
272
-400
-624
-320
-320
-48
48
-48
496
240
208
-384
96
-32
176
-208
384
160
-64
-64
176
96
-448
-176
-160
160
-112
0
-112
192
128
32
0
-64
-240
-144
144
-128
-32
480
304
112
16
-80
-48
48
32
-480
-192
176
96
240
32
224
-128
-64
-80
-208
-288
112
-240
-320
-176
-16
208
464
32
-320
-96
176
192
208
176
368
288
-480
64
-48
-112
-368
-368
-128
-48
-288
208
368
16
208
-48
-320
-448
-672
-352
-96
368
208
-208
208
96
-176
-32
-208
176
304
-208
64
-80
-336
-480
-288
-416
192
112
-368
-96
320
224
-480
-272
-288
-560
-640
-368
-304
320
-80
-144
224
32
64
-208
-592
-480
-208
-496
-496
-608
-16
288
-256
16
896
752
336
80
32
224
0
-480
-608
-448
-304
16
240
368
-16
-16
-16
-160
608
192
-176
112
-208
16
0
-272
-160
16
160
-80
-480
-336
-656
-144
-384
144
256
-176
80
-320
-704
224
176
-208
-272
-176
32
-80
512
-160
-80
96
-48
-304
336
-208
16
96
240
0
512
-96
336
176
-144
-272
0
-208
-288
80
-64
-96
288
288
496
32
-224
-320
80
-192
-624
-32
-16
-448
-208
-496
-720
-368
-128
-16
48
304
-288
-224
400
-32
240
128
32
-48
-64
-208
-576
-496
-400
176
80
320
416
576
80
304
352
80
-32
-32
224
832
288
-272
128
-256
-368
160
672
144
-592
-112
160
336
48
224
288
304
464
-64
208
-432
-224
432
240
368
208
576
448
240
64
-208
320
320
0
-336
-144
208
112
-144
16
64
-528
-64
-272
-336
-224
-464
-224
160
32
0
288
-96
-224
-144
288
-288
176
192
160
176
256
288
-128
-32
224
-240
-256
224
352
160
16
160
48
384
64
48
320
0
-352
-48
-128
64
64
-592
-320
48
208
-320
-304
-512
-416
-16
16
96
-208
-272
-432
-336
-64
64
16
16
-16
112
176
-144
-448
-208
32
-144
-192
-512
-656
80
-64
-544
-160
-48
416
528
320
288
496
-304
-432
96
128
224
336
192
624
144
96
-192
-192
-48
-192
-48
-32
144
16
-48
48
128
192
272
304
592
-32
112
-16
272
528
128
-48
-384
-256
96
-80
-448
-144
128
288
-256
-128
-176
144
80
0
-160
-112
-624
48
128
112
-432
-480
208
592
-96
144
-16
96
192
560
336
-512
-320
-64
-32
176
-96
560
624
192
32
224
272
256
-32
-240
416
576
416
-96
-240
-192
-160
528
544
160
-32
384
224
-16
-368
-416
-192
-240
-272
-160
-112
-144
-304
-384
-704
-224
0
48
-48
-368
-320
-256
-288
128
-128
208
-240
-432
-560
-544
-144
-160
-224
256
416
-16
-112
-112
-96
-64
-48
240
192
224
192
-144
48
432
640
-16
192
128
352
176
112
304
32
144
-224
-864
-96
80
-224
-288
-64
0
384
32
-320
-144
-224
-400
-496
-448
96
160
-160
-96
32
48
-384
16
96
80
384
112
-128
-64
96
16
-272
-80
16
-256
-80
-352
-464
-704
-656
-320
-176
-496
-80
352
-128
240
176
-368
-144
-256
-144
-624
-192
208
-64
-336
192
32
384
64
144
176
304
16
-192
-256
-384
-384
-32
320
-144
-288
224
288
0
-384
-336
-272
128
-96
144
80
-336
-448
-96
-256
64
176
112
96
272
496
336
384
64
-144
320
-16
-64
0
-112
208
288
-80
-80
16
0
-32
-64
-272
-240
-16
-320
-448
176
-112
-304
544
32
-304
-368
-48
-176
-128
672
-288
-144
-16
496
96
144
48
-320
-144
352
176
-304
496
-128
-48
-160
-432
-80
-176
64
-256
-624
-784
-528
-512
-304
-160
-160
-304
-368
32
64
-512
-368
-256
-528
192
192
-160
-96
176
128
-64
-272
-400
-144
-432
-480
-560
-448
-192
-496
-320
-192
-32
176
-656
-432
448
144
192
560
176
-352
-144
16
128
272
-48
-192
-96
96
-384
-16
304
80
208
192
-304
-160
-480
-176
256
64
48
-128
-96
320
368
256
144
48
64
-480
-16
32
128
400
32
240
304
-48
32
256
-144
128
16
304
144
224
304
128
176
-32
-320
-112
224
656
48
304
304
48
-112
-16
256
-176
-624
-896
-672
-16
-560
-224
-64
-608
-208
240
128
-224
-624
-256
-320
-320
416
48
16
400
-640
-352
80
-64
208
128
-192
-320
384
-16
336
-64
-112
224
64
-64
448
-80
-400
-304
-16
-336
-176
32
-48
80
320
288
-240
128
0
0
-400
-544
-384
272
0
768
272
160
560
288
256
336
160
192
16
16
288
-96
-336
-240
-64
272
-144
-128
-480
-128
592
576
288
-64
-112
-32
96
-240
-224
-112
-96
416
176
192
-112
-48
-48
-160
288
240
272
-48
-480
-144
352
432
0
-320
-128
176
-240
-512
112
256
-192
192
256
96
272
256
224
384
160
240
416
224
-16
288
384
-272
-272
144
-272
-528
16
480
-160
-96
-304
-656
-96
352
80
-80
-144
-320
112
-224
-400
-224
224
96
-256
-272
128
48
-208
192
288
-16
384
-160
-336
-48
0
-112
-272
-400
-288
-224
192
-80
-144
-320
176
288
336
544
-160
-96
112
16
32
-16
-336
-144
224
128
288
352
240
48
-240
320
752
0
-112
160
-224
-432
64
64
-256
-128
-16
0
176
368
736
352
128
208
208
512
-160
16
304
-192
-368
-208
-544
-80
-144
-256
-240
80
32
16
320
384
0
336
304
112
272
-96
144
-48
32
-192
-528
-480
256
192
256
528
256
224
384
576
144
176
144
-112
-384
-272
-384
32
0
160
176
512
-128
-32
-160
-304
160
208
-64
-48
-256
176
160
240
272
-64
48
-208
-192
-112
-272
16
-528
-384
352
256
320
160
160
368
624
384
336
480
-80
16
-416
-672
-384
-240
-720
-64
816
768
640
80
0
384
480
272
-16
-256
-256
208
480
96
-128
-208
224
48
-352
-352
-48
96
416
176
-208
96
48
112
144
-448
-256
-240
-48
16
-128
-480
-96
-48
-208
416
368
464
-16
224
384
192
-256
-208
-336
112
240
-224
48
0
272
112
-128
112
272
352
304
352
384
256
0
-272
112
144
-336
32
528
528
144
-208
80
112
96
320
16
-48
304
-240
128
-64
64
-288
-160
-320
320
-224
16
-144
384
464
-224
-160
48
-48
240
64
64
-48
-304
-128
-480
-944
-320
32
-128
352
-64
48
128
192
176
-48
-240
-256
-640
64
32
-224
80
0
-192
80
-288
-144
-96
64
64
512
496
-272
288
448
256
-64
-112
80
-144
224
368
-192
-128
-112
-288
-528
-416
-16
144
-480
-80
-32
-160
192
64
-32
112
-192
-192
-176
-272
-432
-192
64
304
368
48
-576
-240
352
80
240
-96
-16
-512
-464
96
-112
-384
-256
-240
32
240
-176
96
-560
-448
-16
-400
-112
-96
-80
32
-112
-400
304
400
48
-96
160
-176
-80
-320
-160
-304
128
224
384
128
-224
-208
-320
-352
640
528
-96
528
48
-368
224
-16
-32
272
-208
-416
784
256
-112
-384
112
0
-528
272
208
176
192
-80
320
560
352
-48
32
-48
288
320
384
-128
-608
-240
-752
48
480
-352
-720
-176
-256
-496
-576
-432
-208
304
-288
-16
-96
-224
-16
-112
160
128
144
-560
-128
528
0
-64
-176
-400
-80
144
16
384
400
16
-32
-64
-448
-144
-208
80
720
576
288
80
80
-80
96
0
-112
-208
-240
-432
0
-272
448
272
0
-240
224
-32
-192
-64
240
528
-704
16
-224
-80
-112
16
64
80
160
-224
-128
320
-448
-288
256
32
-112
-16
336
-224
384
320
208
-160
-384
0
-464
-752
-592
48
368
192
144
112
208
64
-480
-480
-528
-224
-176
80
224
-192
-544
-320
-544
-48
-144
128
16
192
-416
-672
-480
272
-160
-176
320
704
320
176
512
208
-160
16
-80
-176
-96
384
528
-192
-160
-288
-96
352
-144
-304
-256
80
512
96
32
128
176
64
64
384
544
16
-240
-208
-144
176
432
-80
-240
384
320
-208
-384
-448
256
-80
352
288
-128
48
416
192
48
-480
-176
112
-128
384
368
336
448
-128
208
464
288
48
128
-256
-64
144
208
624
240
48
-48
-336
-672
-112
-336
-304
224
544
592
176
-384
-144
80
192
480
64
-352
80
-160
-80
384
0
-16
96
592
528
128
48
-160
272
-192
-80
112
112
384
-112
144
-32
-224
272
128
-144
-112
-192
320
80
-192
-272
-16
64
-160
144
-16
-160
-704
-112
64
-144
-128
640
432
80
-64
-336
-96
80
-272
-448
-368
-304
-160
112
288
-80
-48
-432
-576
-144
-448
160
-192
-64
400
-208
-496
-432
-336
-112
-336
-736
-272
528
224
32
-224
-352
352
224
-208
-336
48
208
224
-16
464
496
-112
-160
288
-48
-272
-80
112
-32
48
48
-96
-48
-208
96
192
320
-160
-384
-480
-448
-288
48
-16
-224
-192
16
-272
-352
-144
-496
-784
-240
496
-224
-672
-144
-64
272
176
32
96
528
320
-176
-288
-336
16
0
32
-240
-48
-352
-48
-240
-272
160
-96
176
272
320
-16
416
400
96
240
304
-144
-464
32
0
-96
-160
-128
-144
-432
-192
-432
-368
336
416
80
96
-48
-96
176
-48
208
-272
112
256
-80
-80
560
16
-304
-256
-304
-384
-864
-720
112
176
-176
-32
-352
-320
48
400
448
432
192
256
-80
0
-288
-192
368
432
-160
272
176
-48
-272
-112
352
80
-224
80
0
160
-48
-432
512
176
368
-336
-320
-208
96
48
-352
-432
-192
80
-240
-160
-112
304
-32
-64
80
32
64
48
192
288
-240
-192
208
-496
144
464
304
32
-64
80
-96
112
64
128
32
144
48
-112
0
304
352
-528
-336
320
288
144
-144
288
32
-32
-48
112
-208
-176
224
0
-528
112
240
336
0
-272
-144
-400
-528
-80
208
208
-304
-176
496
192
96
-176
-80
-224
-608
-320
-80
-144
-272
80
-160
-48
208
-176
-208
368
128
128
160
256
384
176
-448
-320
-96
176
224
384
32
560
-208
48
-80
-64
80
272
16
-592
-480
-224
-192
0
320
-272
96
432
80
-672
-528
-304
-112
64
-160
144
-320
0
-48
192
0
-576
-144
240
368
-448
-416
-480
-96
64
-144
-400
0
112
-208
-576
-160
-32
-176
-160
-512
-128
-96
96
272
224
32
96
400
224
48
-224
-576
-160
-112
-480
-544
-544
160
192
336
256
272
-48
-512
144
-16
160
320
464
272
-64
80
128
80
176
688
48
224
-288
-256
-192
128
-160
112
-208
32
624
608
224
-224
-16
0
336
960
496
512
656
656
288
-160
160
-224
-448
-448
208
384
-16
-192
-96
-128
-160
-416
-64
192
224
112
224
-144
384
80
512
80
-128
-192
-384
-144
-192
112
-208
256
240
-128
64
-528
-624
-192
-176
-240
224
0
-32
-16
144
-320
-32
112
16
48
-80
64
272
112
-224
-240
-48
64
496
544
224
528
16
-368
-112
0
-176
-112
-80
-464
-144
-192
64
-64
-384
32
-272
288
-64
-320
-224
-16
-384
-240
-96
-80
144
0
-32
384
192
-144
64
192
-32
64
64
208
-240
-400
-80
96
-240
-160
224
16
64
688
224
-64
144
-96
-400
-352
-288
-464
-144
448
-128
-352
-656
-448
-176
-160
112
160
-144
-160
144
48
128
224
-160
176
80
0
-224
-400
-352
-480
-208
64
-32
32
80
-16
-336
-304
336
400
0
-352
-208
288
-16
-368
96
304
-320
96
336
-592
-336
416
144
-272
160
64
-16
-240
-48
528
816
80
-384
-96
64
-128
-384
-176
320
208
112
-288
-464
-272
-64
192
-96
320
400
-80
-128
0
-224
-160
64
400
272
-304
-320
128
80
32
96
32
-240
-112
448
288
128
208
-208
-384
64
464
656
-176
96
224
-480
-464
-128
-288
-480
-192
-16
-336
-400
-192
208
192
112
528
640
-96
-416
-240
672
-224
-528
-304
-32
-16
-240
-32
304
-544
-64
384
496
544
272
240
288
368
64
-32
240
800
480
-288
192
-64
16
-304
-192
-192
96
-288
-288
-128
-48
-576
-352
64
224
320
240
-176
-160
48
-448
-720
-112
-192
560
544
-176
-128
-32
16
224
544
208
288
96
-192
-112
16
144
-144
-32
224
240
64
32
32
-224
176
544
288
96
288
560
640
208
368
304
240
128
64
416
-208
-368
176
-224
-80
128
-528
16
16
320
176
-48
-96
-272
-224
-32
288
480
592
-176
208
528
112
224
-32
-592
-240
-320
-32
-96
-480
-48
-144
96
-48
0
432
656
240
-192
-608
-288
80
256
-320
-192
64
336
304
160
192
-48
208
160
96
-208
64
-192
544
-128
256
80
192
-352
-368
-144
496
352
560
-272
-224
-48
-256
-304
-320
-496
-176
48
-176
128
224
16
48
-160
32
-272
-720
-144
-464
64
112
48
144
-64
-224
-304
-144
224
64
-96
256
-176
-336
-80
-64
-176
-288
-448
-320
-160
192
-144
-240
-464
-80
16
-240
-240
-16
112
-176
-112
-96
-48
288
144
-16
-16
0
0
-96
16
0
-464
-464
176
-48
-656
-96
320
128
80
656
464
256
-48
-64
208
16
-64
128
224
160
176
-240
-496
-144
224
208
336
304
128
-112
-80
112
-96
304
-448
160
384
64
-304
144
688
-16
-528
192
-32
64
208
-80
-176
-272
32
400
-160
144
-320
-240
-128
480
672
-176
-160
448
448
-176
-448
-240
112
-16
-224
416
112
160
528
144
-368
-128
96
16
0
256
352
272
272
256
-176
32
48
96
-112
-336
112
-112
-608
-288
-112
160
112
-80
-320
192
544
624
-16
-96
-80
16
-16
-320
-384
-192
16
-128
176
240
160
80
64
-32
-144
160
-128
-496
144
48
176
-64
288
528
528
416
384
-64
-160
-176
-224
-192
352
64
144
192
224
-112
-304
-64
-160
-112
-176
80
-112
-320
288
176
-80
-400
96
-240
-384
-128
80
48
-176
240
224
320
-256
144
160
-448
-48
608
480
224
-112
-304
-368
48
-112
288
496
-16
-464
-240
128
176
144
64
480
128
336
-96
-16
-64
-32
256
-32
-416
-288
-160
-208
-288
144
208
160
-224
16
256
544
784
736
160
-112
-464
288
128
32
480
208
96
-336
-272
-400
-352
224
128
-272
-240
80
400
-112
160
-160
-80
-80
-640
448
32
128
-320
-336
-144
256
-208
-272
-272
384
112
-288
-192
-480
-720
-208
272
-64
-480
-352
-112
-32
-304
-48
272
304
176
-192
432
192
-352
-80
-80
480
288
320
272
400
64
16
-416
-640
-240
48
-80
-208
-320
-32
240
496
304
336
96
-416
-448
-112
128
128
160
80
96
288
224
272
-128
-304
-48
-224
-480
-272
320
16
144
64
96
-64
-112
-64
-112
-304
-224
112
208
-176
-144
0
-304
128
160
384
272
16
-240
-192
-368
-416
-384
-192
320
288
-160
-192
-96
-240
-192
-272
-528
-192
64
80
-80
-80
-112
32
-144
-384
192
-32
-320
-320
-384
-208
-80
432
-192
32
-16
-96
-512
-656
-608
-768
-624
-288
-208
-288
-672
-320
-128
48
-16
160
-208
-48
48
-256
-160
-32
144
128
-224
-96
336
-400
-448
32
608
416
128
48
80
48
-192
0
208
304
112
80
384
576
96
-464
-384
-320
-32
48
176
-32
-176
80
-336
-784
-112
592
-208
-240
-384
-400
48
-304
-416
144
192
256
352
64
-176
32
224
32
16
-592
-928
-320
-240
-352
-256
-96
16
144
1120
480
240
272
0
-288
-544
-208
32
-256
80
-320
-368
-320
64
-112
176
32
-112
144
-384
-192
-336
-64
656
448
-64
144
272
112
-96
-80
144
400
-32
272
576
32
-16
-496
-512
400
544
-224
240
368
384
176
176
0
80
-416
-352
-224
80
256
80
192
304
272
-320
-272
-336
-352
-224
48
144
176
96
144
-336
0
-32
-208
-208
192
256
-176
64
208
96
-208
-192
32
208
64
48
-352
-544
48
-80
304
256
-272
-48
416
256
-16
-160
-240
-352
-112
208
416
224
32
-80
304
320
-48
320
336
560
496
-272
-560
192
-320
-544
-160
160
32
112
240
-64
-576
-192
-288
-80
144
-80
-160
112
80
-160
-256
-384
-288
-192
-16
-416
-128
112
560
576
480
336
112
96
272
448
240
-16
-368
32
240
-176
-112
-320
-224
272
-32
-16
-112
-432
-416
-96
96
272
464
208
32
-64
-336
-304
144
-160
-64
-432
-96
0
-48
432
400
0
-112
-256
-64
48
80
80
144
112
352
-32
-112
-80
-256
288
192
96
576
64
-224
-16
336
432
256
16
320
496
240
-48
-48
544
-176
0
240
112
192
-112
-352
-512
-272
672
64
-176
-304
32
-32
288
368
688
272
176
0
-48
304
768
96
400
-16
32
448
272
144
64
-160
-384
-64
-320
48
-144
-496
-192
-16
256
16
-416
112
240
-64
-32
64
288
-160
-48
-32
128
464
368
144
208
32
-176
-160
288
464
160
-112
-224
-192
-176
-368
-784
-160
144
64
96
-240
-112
544
864
224
-240
16
-16
0
-288
-288
48
-320
0
-64
-32
64
64
400
48
96
-16
32
-432
-224
-272
-112
-224
352
128
128
560
224
128
96
256
768
464
224
48
-32
336
272
272
368
-16
272
224
416
256
-208
272
512
160
-160
16
208
240
-144
32
160
192
160
240
304
-256
-320
208
-112
144
256
-64
320
304
-464
-784
-672
-176
-416
208
288
368
-288
-464
80
64
432
-32
32
-176
336
-16
-400
-352
-480
-336
-32
288
128
288
-496
64
256
-112
192
272
288
160
0
-240
80
96
-224
-48
544
400
-32
-128
-128
32
-336
-304
-96
336
80
-112
64
96
16
336
16
-448
-32
656
784
208
784
400
528
160
336
112
-480
-368
-112
0
112
400
384
224
288
624
288
-96
32
16
496
816
128
80
96
-352
-128
-400
64
-32
-208
192
-128
-304
144
-176
-320
48
416
368
32
-720
-464
432
576
128
-320
272
288
192
-48
32
-240
-352
208
224
208
224
-544
-112
-272
-336
-176
-64
-192
-672
-512
-96
176
480
368
80
80
-208
48
512
240
-400
-336
-432
-480
-192
480
560
-288
-416
240
-176
48
-48
592
160
-432
688
0
0
144
-192
-336
-576
-160
304
176
-112
176
640
752
208
-64
32
-128
-128
-48
-64
-320
0
-96
160
-80
96
592
256
-32
-640
-304
160
112
256
224
-48
-16
-80
96
-64
-144
-80
-144
-112
16
16
80
-192
64
-256
-304
-128
-464
-352
-256
-48
-560
-208
-368
-64
288
-352
0
-880
-544
-48
-304
-192
624
176
16
224
496
16
-672
-256
-304
-544
-256
-528
-224
-336
-208
48
80
192
96
-32
-272
-256
-624
-480
-320
-48
-224
-160
144
384
-96
128
-48
-192
256
128
-80
-176
-448
-16
-272
-432
-288
592
-32
240
-320
-176
0
-160
-16
80
192
64
-112
320
288
64
-368
-320
0
-240
48
0
-32
-464
-720
-336
128
288
592
-432
304
368
-176
0
-208
-144
-224
-496
-496
-80
112
192
-160
-144
-528
-400
-528
-496
144
352
-112
160
224
-208
-176
-112
-304
-176
48
-256
112
-32
16
288
32
64
192
-80
-80
80
352
448
368
0
-192
384
448
80
-336
-32
128
208
288
144
480
368
16
0
528
80
-320
-336
-112
-80
96
-176
-48
-64
-192
-400
-352
-128
112
464
160
16
-128
-240
-64
48
-288
-288
32
-144
-160
-32
48
160
32
-272
272
-224
-176
144
-208
-384
-224
-208
-176
-176
-48
-48
-256
-192
0
-16
176
384
432
272
112
208
336
352
64
-96
0
432
-80
-432
80
0
-288
-144
208
208
240
-96
-64
-256
-352
-288
-528
-304
80
256
-160
-80
160
256
-304
0
208
-16
-96
-160
288
240
-80
-208
-64
208
0
-224
-208
0
128
128
112
176
-208
-368
-176
224
80
288
304
144
-80
-64
-224
-224
-80
272
368
160
-32
128
48
-48
592
-400
-192
448
464
-112
208
-288
-432
32
432
0
176
-240
-384
96
-176
-176
-256
-320
-416
16
224
-224
-80
128
160
192
-416
-480
-496
-384
160
336
-208
-512
48
-32
-96
256
416
336
-352
-208
-128
-368
-240
-464
0
640
-208
96
272
-448
-336
0
64
320
96
-192
-368
-80
32
192
624
176
-224
-80
112
208
-368
-96
-224
32
80
-528
-400
256
-256
-384
-16
-112
-32
784
608
-336
-688
-560
-384
-96
-512
-64
80
-448
96
-80
-336
-128
96
240
304
-144
-368
-208
96
-48
256
512
-352
-352
368
-64
64
416
288
0
464
160
16
80
-656
-496
144
-368
-208
-112
-528
-320
416
-224
-432
-400
208
0
192
608
464
-272
0
48
-464
-288
768
480
-16
368
560
384
240
560
240
16
112
-208
-176
32
128
128
-64
-240
-96
-144
-112
160
64
224
16
160
416
-224
-240
208
368
-160
32
208
256
128
0
96
-144
-384
-528
144
32
-32
-128
-304
256
64
192
80
-80
-272
-416
-16
-272
272
352
-16
-512
-656
-144
-16
-192
48
144
128
608
176
-48
144
144
-416
128
256
384
16
32
-208
-128
48
288
192
240
288
144
160
-272
48
64
128
-448
-592
-464
-192
224
96
-208
-256
-208
-176
-48
-16
-112
128
80
96
240
240
-272
-704
-80
320
368
-432
0
512
192
432
512
592
432
-368
-144
-320
-336
-160
-480
192
880
512
-160
-176
-208
64
-128
-256
-336
-48
240
96
-368
-144
192
-224
-112
-256
336
224
528
144
176
896
160
496
512
-224
-464
-128
64
96
-176
336
16
-192
-272
128
-16
112
144
-224
-336
-240
112
240
336
224
-160
-176
-32
-240
-384
-32
224
-192
-512
160
64
-432
-432
-128
128
512
-160
-112
-512
-464
-112
320
368
464
464
480
-32
-448
-32
384
-48
0
336
144
32
-64
160
80
432
-384
-384
544
32
-240
-176
-400
-32
416
48
-336
224
16
-80
-80
-256
0
320
416
64
-64
-128
176
-368
-192
304
208
64
112
16
528
16
-480
-352
-160
144
336
-256
-656
-304
-16
-240
288
704
288
96
-144
-32
496
-32
-160
-256
-192
-336
112
256
144
176
448
-16
-192
-80
0
-128
-272
-272
-176
-400
208
0
-16
-96
16
80
-496
-416
320
400
288
-112
368
272
144
224
416
160
0
-288
368
512
448
320
608
64
240
-144
-448
-416
160
-128
-256
-144
96
-304
-128
-224
-144
-160
-96
-304
304
624
480
160
-96
-64
-48
0
160
-96
-96
640
240
-160
-176
496
-16
-16
-32
128
-416
-416
64
240
-176
-416
-144
176
-416
-32
48
176
64
288
-48
-128
-48
16
-32
-144
-144
-512
128
512
-48
-128
-192
32
-48
448
336
-64
-16
-112
384
-64
-448
-544
-592
-416
-112
-112
-272
16
-160
-176
208
224
144
160
80
400
-144
-528
-240
128
224
320
-112
304
112
512
64
192
-16
-112
-272
-272
-208
-96
-48
400
640
416
272
48
-256
288
752
432
416
384
800
336
576
432
-112
-160
288
112
-64
224
432
-400
-128
-160
-192
144
-128
-144
96
80
48
320
128
16
-80
432
432
-128
-128
-400
-176
208
368
64
0
224
-64
-208
-464
-96
0
176
-224
-400
-160
16
176
32
-464
-224
-480
-144
-160
-80
160
416
480
96
-432
-448
-368
-256
16
112
-96
192
-96
-272
128
224
400
720
-208
48
-128
-496
-320
-48
400
704
704
320
64
336
800
336
176
144
48
32
464
64
208
352
256
32
160
400
-384
-64
-256
48
64
-128
-560
-208
-320
-352
-352
-288
-336
96
176
-192
352
80
112
-224
416
48
-416
-480
-288
-320
224
-304
-272
-768
-352
-224
-496
48
384
304
96
32
-144
-320
-256
-288
-64
-272
-48
-208
-560
-240
-64
-64
-32
-80
-608
-480
-224
80
-496
-256
0
128
-80
-288
-80
-128
48
48
256
192
-128
144
528
176
64
256
336
-304
-496
192
240
512
0
16
144
-368
-64
-64
-272
-384
48
-496
-992
-704
-336
-48
448
-32
-384
-16
-352
96
288
64
128
-720
-176
288
32
-96
240
-64
-544
-384
96
512
80
-240
-96
112
400
448
-32
-240
48
-48
-192
-160
192
48
-96
64
464
608
144
192
64
-464
0
128
64
-64
-96
464
320
208
-144
-656
-352
-96
-400
32
16
-16
-160
-304
96
0
128
224
-64
-64
-160
-144
-288
32
-16
-112
-96
-576
-368
-304
-48
48
176
-624
-368
128
192
-16
160
-160
48
544
64
-64
-48
144
64
128
112
-352
-528
-288
-416
0
16
272
320
352
512
272
112
-384
-320
-32
-688
-256
64
64
0
688
400
272
-192
-240
176
-112
-448
-448
-608
-368
-208
-144
32
-112
256
-272
-480
80
64
-176
-320
32
192
48
208
-32
-240
-240
384
224
128
80
192
-80
-80
16
96
128
-368
-32
240
208
-480
-512
-352
-32
-16
-96
-320
128
64
192
-224
-448
-320
-160
32
-160
-176
-240
-208
-464
-288
128
64
144
128
240
-96
-192
-192
128
192
448
496
0
672
240
-208
-176
-240
-240
-208
-64
-96
-384
80
64
144
256
224
112
48
176
-432
0
64
-48
-64
-240
368
624
304
0
-448
-208
96
144
-32
-240
16
-32
112
-112
-128
-336
-32
512
112
-208
-96
-192
-176
-64
-208
32
176
-384
-368
-96
-160
-16
-160
-128
-240
-112
-304
-432
-256
-128
-352
96
192
96
208
-176
112
32
272
224
368
288
-336
80
128
160
160
-80
-208
240
336
-496
-48
352
-192
-288
-496
-192
48
-400
-64
-16
16
128
160
-288
-192
-32
208
-448
-368
-224
-16
32
240
-128
-192
-48
-160
-256
128
-176
128
-320
-320
0
-48
384
448
496
-16
352
96
-144
-192
-208
-48
-192
96
160
192
128
-96
-64
208
-176
-272
16
96
96
400
0
-16
-416
-336
-304
-208
128
-80
0
-144
288
368
192
-208
224
112
272
256
-112
16
80
-592
32
192
-416
112
-256
-496
-80
-416
-272
-272
-528
16
128
96
96
-48
144
-48
-128
-272
-96
144
-48
-384
-384
-336
32
144
-384
-592
-416
-80
-112
-48
144
-16
-16
160
416
560
-544
-336
-336
-304
-192
192
256
-224
-272
-224
-720
-368
-48
80
-32
-112
-128
0
-144
-240
416
-48
-64
-80
-160
288
-16
192
-48
336
320
176
544
208
-80
240
336
512
64
368
-192
-448
624
16
-208
-96
-368
-624
-208
400
368
112
-192
-48
16
-144
32
-112
-288
-256
-112
160
80
368
-64
160
272
16
-144
-320
-16
688
-64
-448
-496
-144
320
240
176
224
128
320
384
304
48
-208
-80
32
-160
0
-96
-224
-288
-384
176
112
256
352
-64
-160
-400
-352
160
-96
-96
-480
-400
-208
-144
-144
32
192
16
208
560
112
192
80
-592
96
128
-96
-128
-528
-528
-160
-64
-384
-224
-96
-80
112
272
64
128
-272
-304
-256
0
128
368
336
208
64
400
272
432
160
48
112
-48
64
432
320
368
-96
-448
-352
384
96
-160
-224
-160
96
-16
160
-160
-64
352
0
-192
-112
352
-176
-160
544
80
-96
-80
-320
-432
-416
-48
-352
-144
-592
-784
-304
-256
-48
464
128
-80
64
-16
32
-608
-224
336
208
-112
-352
288
-64
-384
-32
-608
-320
-304
-384
-160
-112
-304
96
208
-336
16
0
240
-224
-240
-112
-640
-304
16
128
784
0
-192
48
0
-208
16
96
-480
-496
-304
32
-256
-144
-224
432
32
16
96
-560
496
352
112
400
624
560
0
144
-32
320
720
-144
-368
-608
0
0
-64
208
224
256
192
96
-656
-304
160
240
-32
-48
64
64
16
-368
-96
128
240
160
64
-208
-304
-80
-320
-96
-64
80
144
496
176
48
560
-144
176
208
80
64
-96
-304
-80
400
160
-288
-624
-368
-288
-240
-192
-272
-416
-176
512
656
688
208
48
-48
-176
-416
-240
-736
-240
224
32
48
32
112
160
-384
96
64
-208
-80
-480
16
464
720
224
-48
-64
-128
-512
-400
-352
128
544
-48
-176
-208
128
-32
-160
304
-192
-192
-192
-240
0
-256
0
32
576
400
-272
-464
32
352
64
-224
368
48
-176
208
144
16
-128
-384
-96
16
-448
352
640
496
240
112
496
32
528
-224
-224
176
-656
-448
32
-272
-400
32
144
144
96
-336
-112
32
336
-192
-496
-288
48
64
-16
0
-224
272
288
48
-368
464
352
320
256
-128
160
64
-368
-320
-64
48
32
-144
-16
-16
-240
32
-400
-384
-128
224
112
64
96
336
144
16
-304
-176
-160
-336
-48
-240
-80
-112
-64
64
96
336
448
192
-16
-64
16
-80
-576
-304
-416
-256
-368
-160
-16
624
368
112
672
176
-368
-16
128
-224
-80
-288
48
-272
-16
-256
-352
160
-16
160
-48
272
32
160
352
688
-16
-656
160
448
352
96
-16
-80
-256
-112
432
32
-96
-304
-96
-240
-240
-64
80
336
320
-80
-224
-416
-256
-192
-144
144
80
-304
96
-48
-80
512
256
240
416
304
-288
-224
-288
-160
-480
-560
-608
352
288
240
160
656
400
176
528
-80
-288
272
-144
224
192
48
448
80
-192
80
96
432
256
-32
-192
-80
176
-352
-320
208
-256
-544
-336
-688
-256
-112
-16
224
-48
112
-16
160
112
80
-192
512
-16
512
528
-176
64
368
368
64
-384
-320
32
-400
336
688
160
-48
-528
128
288
64
256
96
-64
-96
-208
-368
160
0
-640
224
0
144
-144
-416
-400
64
64
288
592
-384
336
16
-352
224
-112
192
528
32
-224
-400
-112
-80
-192
-208
192
-16
-256
32
-144
-512
-720
-256
512
576
368
-64
-208
-32
-320
64
256
384
224
208
224
240
496
-64
176
-480
-496
208
48
-880
-688
-288
-176
144
0
-320
-400
288
768
384
48
0
400
144
336
144
-240
-400
-80
192
-176
-192
-736
-96
384
-80
-288
-80
-16
144
-32
-96
512
32
-32
512
-160
-48
128
80
-96
-224
-144
400
64
-272
-128
304
-208
-144
112
-160
-656
-704
-176
96
240
32
-80
-208
160
32
-48
288
640
-32
-128
-496
-224
-96
144
-352
-80
448
128
-48
-272
-16
256
496
-64
-352
240
544
336
176
192
368
368
256
768
288
64
-176
-656
-416
-304
512
64
-352
-80
496
544
384
64
256
160
0
272
448
288
-80
16
128
816
736
-96
112
272
768
256
256
240
-256
-368
-288
-368
-96
416
48
-192
368
128
-48
320
112
208
64
-16
-384
80
400
304
-16
-496
192
416
128
-336
-112
-224
32
432
176
-112
96
96
-160
-32
-176
32
160
-16
-144
288
-336
-112
-16
-400
-80
176
32
-32
272
96
-144
-384
240
128
-192
-176
304
-496
-496
496
112
0
48
48
80
720
272
48
128
-16
-304
256
320
192
-16
80
0
32
80
-16
-272
-80
-80
32
-240
-336
-160
-496
112
464
16
144
224
144
208
-16
32
624
432
720
592
336
368
-112
-400
-288
160
16
304
-144
-608
288
16
-384
-160
-224
576
640
224
-160
480
128
240
96
-32
528
192
48
-16
192
272
224
32
-48
240
-176
-320
-272
48
-304
80
288
-32
128
-64
32
32
64
176
-16
128
288
192
-560
-208
-304
-96
144
256
48
-224
96
-144
64
352
96
96
208
272
-464
-272
208
400
-384
-400
304
80
-112
-48
-432
-48
-48
96
-16
-112
272
16
-16
64
-112
112
-208
-48
-112
320
-288
96
128
-96
-336
128
496
400
800
944
-48
96
272
-160
336
128
48
-128
16
208
704
-64
48
128
96
-576
-256
672
560
688
1072
480
272
288
528
208
-48
48
368
-608
-464
-48
-208
-336
-224
-416
-208
192
688
448
16
128
144
-192
-304
-144
-368
-384
-80
-320
-176
-160
96
-512
-304
-144
256
160
-336
176
160
-176
-432
-592
-576
-208
144
-48
-96
-384
16
496
272
-128
-32
-208
-272
-608
-816
-432
-416
-320
240
256
-224
16
-288
-208
544
752
496
112
-48
-448
-528
-16
-176
240
0
-224
-80
-32
-80
-160
288
448
-192
-80
-176
0
272
-16
-448
-240
-96
-48
-240
-128
32
-160
-144
-48
352
592
432
128
144
80
112
384
560
112
64
-64
288
160
-368
-176
272
-320
416
416
-128
-96
368
352
-128
-256
-80
144
304
-32
-112
320
400
192
80
-112
112
64
-400
-448
-208
-288
176
128
336
-112
-240
-432
-176
176
96
0
-64
-128
-240
0
-352
-320
-32
304
-32
-64
208
80
176
-128
160
96
464
208
96
496
224
-224
320
-128
-160
80
96
48
304
-64
-112
-288
-144
352
-144
80
416
160
80
-144
-64
-144
-224
-160
-112
-16
128
-192
-112
0
256
240
416
16
16
-176
-224
-480
176
-112
16
112
64
208
-80
64
-128
-96
-64
224
352
160
-144
272
272
-16
48
0
64
-64
-144
144
176
32
-240
176
352
288
336
-224
160
80
80
-160
240
368
-240
64
-288
240
352
-16
-128
-224
-336
176
320
272
32
608
560
32
-240
0
-64
240
304
-64
0
-352
-224
-96
-112
-64
128
-224
-496
-336
64
448
0
592
-160
-160
-432
64
160
0
432
64
-208
-112
224
176
-16
-368
-128
0
-224
-256
32
-208
-384
-464
-96
96
16
16
256
-80
64
336
560
480
448
224
304
192
48
-80
-272
-480
48
304
48
-48
240
16
16
-48
160
-368
384
80
-16
320
240
400
816
384
-368
-128
32
-160
352
-16
-160
80
-400
368
800
240
-112
-48
96
-560
-304
-320
-320
-704
-416
-64
304
448
128
544
400
320
-176
384
608
352
96
144
-256
192
112
128
-224
-320
-368
32
64
32
64
144
112
208
480
-384
-416
128
-272
32
304
0
-240
-320
-512
-480
-288
-16
-64
0
-288
-240
-448
-240
144
192
-288
-400
256
240
384
-256
-16
224
144
0
-704
-352
-352
256
-128
-48
-48
80
-64
-304
-608
-320
48
-304
-304
-160
-352
448
448
-32
304
16
-176
224
464
336
-160
-160
176
-96
-48
-160
-368
-224
-736
-144
-368
160
336
544
416
-96
-16
144
144
-256
-464
-112
112
48
-464
-400
-368
-288
-208
-80
32
-176
80
96
80
32
656
192
-320
-160
144
0
-384
160
-192
192
208
-368
-320
-80
-256
-96
-288
-144
-304
-224
-256
-368
-112
-96
-640
-16
-160
-240
-240
-192
-144
416
-32
-400
-80
-256
-240
32
272
528
80
-208
128
-288
-192
-560
-192
416
-496
-272
-16
-96
16
192
448
32
352
176
-48
-144
336
880
224
-352
304
720
496
592
336
112
192
224
128
-80
16
-112
-160
-176
-288
160
-112
-48
128
192
-240
-176
224
192
16
320
672
144
-64
32
640
0
160
176
32
-432
-272
112
528
640
-48
32
224
-144
-224
-16
-128
-432
-16
48
208
112
-64
-640
-192
-64
-256
-16
96
-240
-320
-400
-272
192
0
-304
64
304
-64
-208
-160
-128
-224
32
-416
128
160
-48
-288
-144
-272
-320
-160
-464
-224
144
240
0
96
672
768
304
48
-720
-560
32
-32
-464
-480
-16
336
-272
-112
576
368
48
-144
48
-16
-160
-64
208
128
112
-48
-384
-208
-240
-272
-448
-992
-640
-48
-64
160
512
256
-368
-160
-80
-176
-352
-16
-144
144
-16
-16
-128
-160
16
-64
-272
-496
-496
-592
-464
-208
32
192
160
256
144
272
-480
-336
0
-384
-176
-96
800
336
-112
-464
-544
-160
-416
-112
-32
-320
16
304
-32
-48
-304
0
-16
80
-272
-528
-624
-304
176
304
-96
-208
160
96
432
208
-272
64
-176
-384
-384
32
112
64
-192
464
-48
-96
0
352
400
256
240
16
-64
48
-368
-224
-32
288
256
16
160
496
400
96
256
32
224
-64
32
0
96
368
544
-16
-272
-224
304
-32
-176
128
64
128
592
720
448
192
512
64
176
448
128
-80
112
608
-64
-16
-96
-304
-112
32
288
208
-224
112
-144
256
576
144
-64
240
-80
-416
-368
-400
384
128
112
-80
96
-352
80
464
-224
-480
64
-160
-464
192
64
-352
80
400
0
-416
-80
-336
-80
-48
64
-64
208
240
-272
32
-464
16
192
-144
-272
-688
96
208
48
-64
-224
-208
-80
416
224
-144
-400
-496
-80
432
32
368
-176
-384
-240
-16
-64
32
160
-64
-368
224
-160
-128
336
144
-208
-432
-160
-256
-144
288
384
320
320
-272
-560
-352
-400
-48
-112
-512
112
96
-176
-192
304
208
-208
256
144
-80
272
64
-16
-96
224
-224
0
144
-16
-16
-80
-48
32
560
80
-16
-32
-240
-336
-160
-400
-432
-208
48
608
224
-288
224
96
-48
48
-32
144
-400
-256
240
80
224
448
-272
-176
-160
-208
-272
96
560
272
-144
80
-48
-352
-336
192
464
272
304
-80
-160
16
-560
-208
144
-192
336
192
-224
-352
-224
16
-48
-64
208
-224
48
192
384
160
-224
-208
-320
176
176
128
-320
-240
0
-320
-448
-192
-144
16
80
208
16
304
-480
-432
-272
-16
592
-112
240
-304
-544
-192
496
-128
-160
128
-192
112
0
-224
-80
64
112
-144
-384
-224
-96
480
-96
48
16
144
400
224
320
16
48
32
304
96
448
480
336
480
144
64
272
112
208
528
-288
48
-176
-304
-128
-144
96
-256
-544
368
48
-240
432
192
144
80
-144
-304
-80
192
320
208
-160
-192
-144
0
-320
560
48
-288
-384
-80
-336
-208
-272
-272
-192
-128
-624
-608
-256
-208
224
272
-128
-448
-368
-160
-288
-400
-496
-48
-16
-64
-32
-128
-144
-336
-112
80
592
832
352
-128
192
112
-80
-208
-128
-416
-304
-480
-368
-368
176
208
96
256
272
384
-144
-336
-144
-48
176
-448
-560
-432
-80
176
128
240
-64
-144
-384
-480
-464
96
-208
-320
48
-64
-448
-272
-368
16
-128
-496
32
-96
176
144
-32
160
208
0
16
112
288
-64
-32
-80
-736
-32
368
96
-320
-64
-32
-112
-96
-96
384
16
-272
32
-128
416
208
-32
0
-160
-128
-192
128
-176
-720
-480
-208
-208
-624
-480
-592
16
-80
-272
-240
-128
0
-64
-352
-624
-528
-256
-96
80
352
80
-96
288
-96
-304
-208
-80
128
16
240
-528
-368
-272
-224
-464
-432
-16
-32
-480
-96
32
-48
16
448
48
304
112
-96
480
112
208
-160
-224
0
-64
272
32
-480
-272
-464
-208
0
208
-656
-464
128
-64
-16
-416
-64
-208
-240
224
224
800
400
-176
-192
-208
400
416
192
-448
112
256
64
-304
304
224
272
16
208
-112
208
-208
-224
16
96
128
0
240
256
-16
224
-416
-624
-176
416
-16
0
112
416
400
-512
-352
-240
-80
-128
544
80
48
-224
144
304
224
256
-112
144
-752
-288
-304
-400
-192
-16
-352
192
-352
-96
176
112
-48
304
592
-352
-464
-288
-16
-256
0
48
-368
-720
-384
-208
-64
-160
208
-64
-16
224
320
112
240
368
-288
-576
-304
-448
-224
256
176
368
-192
-320
64
-160
240
336
400
352
176
-192
-272
80
384
0
96
192
288
352
400
112
-544
-352
96
224
336
352
-64
176
160
-96
128
160
192
80
16
-32
144
-272
-320
288
208
144
384
