0
-16
-16
0
-16
-16
-32
-16
-16
-16
-16
-32
-16
0
0
16
16
16
16
16
0
-16
-16
-16
-16
-32
-32
-16
-16
-16
-16
-16
0
0
0
16
16
16
16
16
0
-16
-16
-16
-32
-32
-16
-16
-16
0
-16
-16
-16
0
0
16
16
0
0
0
-16
-16
0
0
0
-16
-32
-32
-32
-16
-16
-16
-16
0
16
16
32
32
16
16
0
-16
-16
-16
-16
-16
-16
-16
-16
-16
-32
-32
-16
0
16
32
32
32
32
16
0
-16
-16
0
-16
-16
-16
-32
-32
-32
-32
-48
-32
-16
16
16
16
32
32
16
0
-16
-16
0
-16
0
0
-16
-16
-16
-16
-32
-16
0
16
16
16
32
32
32
16
0
-16
-16
-16
-16
0
0
-32
-32
-16
-32
-16
-16
0
0
0
16
16
16
16
-16
-16
-16
-16
-16
-16
-16
-16
-16
0
0
0
0
16
16
16
16
16
16
0
0
-16
-16
-16
-16
-32
-32
-32
-32
-32
0
16
16
32
16
16
16
32
16
16
-16
-16
-16
-16
-32
-32
-16
0
0
0
-16
-16
-16
0
16
16
32
32
16
16
-16
-16
-16
-16
-16
-16
-16
0
0
-16
-16
-16
0
16
16
16
16
16
0
-16
-32
-16
0
-16
-16
0
16
16
0
-16
-32
-32
-16
0
16
16
32
32
32
16
0
-16
0
-16
-16
-16
-16
-16
0
0
-16
-32
-16
0
0
16
16
16
16
0
-16
-16
0
-16
-16
-16
-16
-16
-32
-16
-32
-16
0
0
16
16
16
16
16
0
-32
-32
-32
-16
-16
-16
-32
-32
-32
-16
-16
-16
0
16
32
32
32
32
32
16
0
-16
-16
0
0
-16
-32
-16
-16
-16
-16
-32
-16
0
0
0
16
16
16
0
-16
-16
-16
-16
0
0
0
0
-16
-16
-32
-32
-32
-16
-16
0
16
32
32
32
16
0
0
0
-16
-16
-16
-16
-32
-32
-32
-16
-16
0
-16
-16
0
0
16
16
0
0
0
-16
-16
-32
-16
-16
-16
-16
-16
-16
-16
0
0
0
16
16
32
16
0
-16
-16
-16
-32
-32
-32
-32
-16
0
0
0
0
0
0
0
16
16
0
0
0
-16
-16
-16
-32
-48
-48
-16
0
0
0
-16
-16
0
16
16
16
32
32
16
0
-16
-32
-32
-32
-16
-16
-16
0
-16
-48
-48
-32
-16
0
0
16
32
16
16
0
0
-16
-16
-16
-32
-16
-16
-16
-32
-48
-48
-16
0
16
16
16
0
0
-16
-32
-16
0
0
-16
0
-16
-16
-32
-48
-48
-48
-16
0
16
16
0
0
16
0
-16
-32
-16
-32
-32
-16
-16
-16
-32
-32
-32
-32
-16
0
16
0
0
16
16
0
-32
-32
-32
-48
-48
-32
-32
-32
-32
-32
-16
-32
-16
-16
0
16
0
16
0
0
0
-16
-16
-16
-48
-48
-32
-32
-32
-16
-32
-32
-16
-16
0
0
0
0
0
0
-16
-16
-32
-16
-16
-16
-32
-32
-32
-32
-32
-32
-32
-16
0
0
0
0
0
0
-16
-16
-16
0
-16
-16
-32
-32
-32
-32
-48
-48
-32
-32
-16
-16
0
16
32
16
-16
-32
-16
-16
0
-32
-48
-32
-32
-32
-32
-32
-32
-16
0
-16
-16
0
16
0
-16
-16
-16
-16
-16
-32
-48
-48
-64
-64
-80
-64
-32
0
32
32
16
16
16
16
0
-32
-32
-16
-32
-32
-32
-16
0
0
-16
-32
-16
-16
-16
16
16
0
0
0
0
-16
-16
0
0
16
0
0
-16
-32
-32
-48
-16
16
32
16
16
0
0
-16
-48
-48
-32
-48
-32
-32
-16
0
-16
-16
-16
-32
-32
-32
-32
-16
-16
0
0
0
-32
-32
-32
-32
-32
-16
0
0
-16
-16
-16
-16
-32
-32
-32
-48
-32
-16
-16
-32
-32
-16
-16
-32
-48
-48
-32
-16
-16
-16
-32
-32
-32
-48
-32
-32
-48
-32
0
0
-16
-32
-32
-16
-32
-32
-32
-32
-32
-16
-16
-32
-32
-48
-48
-32
0
16
32
48
80
48
0
-48
-48
-48
-64
-48
-32
-32
-16
0
16
0
0
32
64
64
80
80
48
-64
-160
-144
-80
-64
-48
-16
0
32
32
16
-32
-48
-48
-48
-32
-16
0
0
-16
-48
-64
-48
-32
-48
-64
-48
-32
-16
-32
-48
-32
-16
0
-16
-32
-16
-32
-48
-48
-64
-32
0
0
0
0
-16
-16
-16
-32
-64
-64
-32
-32
-32
-64
-80
-80
-80
-80
-48
32
80
48
32
0
-16
-48
-64
-48
-32
32
48
16
-48
-144
-144
-64
-32
-16
16
112
144
112
80
32
-16
-48
-48
-48
-48
0
16
0
0
-16
-32
0
0
0
-16
-32
0
48
0
-64
-80
-32
16
-32
-48
-32
-32
-32
-16
-16
0
0
16
0
-16
-16
-32
-32
-32
-32
-16
-16
-16
-16
-48
-48
-32
0
32
64
64
32
16
0
-32
-48
-64
-64
-48
-32
-16
-16
-16
-16
-48
-48
-16
32
96
160
160
64
32
16
-32
-64
-96
-144
-96
-80
-96
-48
-32
16
0
0
96
160
160
176
192
128
32
0
-32
-64
-32
-32
-96
-128
-64
-16
-16
-16
-32
32
128
176
208
192
48
-16
-16
-64
-128
-96
-16
16
16
48
64
64
32
0
-64
-96
-32
64
96
96
112
128
16
-128
-208
-80
64
128
128
80
-48
-176
-112
-80
-144
-160
-96
-64
-48
-32
16
96
176
96
-32
-64
-64
64
144
160
144
128
0
-80
-80
-144
-240
-272
-272
-256
-128
-48
32
176
224
304
352
192
16
-80
-112
-208
-224
-128
-112
-112
-112
-96
-16
112
128
-32
-176
0
240
240
64
-96
48
192
128
-16
-128
-32
16
80
112
16
-96
-240
-256
-112
176
192
112
-48
-208
-208
-112
-80
112
176
80
-16
32
176
144
144
144
64
32
0
-192
-128
144
160
-16
-208
-256
-240
-160
0
64
48
32
16
128
32
-112
144
448
336
176
96
-112
-272
-256
-224
-224
-288
-128
288
304
-64
-96
48
32
-128
-192
-160
-80
-16
48
96
-96
-416
-16
496
400
-64
-400
-384
-144
176
240
96
-64
-256
-64
224
176
-112
-144
-48
-144
-336
-176
-32
96
176
-16
-64
48
112
-160
-272
-192
32
224
144
-96
-336
-240
-240
-224
0
128
160
128
336
224
-144
-64
-80
-176
-160
80
272
288
48
-256
-400
-528
-448
48
592
384
48
-192
48
96
-112
-112
-32
-16
64
80
0
-96
-240
-272
-32
-64
-192
0
480
448
32
-336
-176
64
240
16
-480
-368
-16
160
16
-176
-256
-304
80
448
384
112
-272
-96
32
-384
-624
-144
160
32
64
288
288
48
0
-32
-192
-208
128
496
640
416
0
-496
-624
-304
-304
-144
144
80
96
192
240
16
-64
-160
-256
-96
144
432
496
352
-16
-384
-704
-448
-80
16
32
48
128
0
-128
112
256
256
256
128
-400
-352
-32
0
-128
-384
-192
256
304
16
48
320
592
528
-16
-336
-256
-192
-96
144
224
-224
-432
-256
-16
112
48
64
192
112
-304
-416
-80
208
160
48
0
0
128
32
96
128
-144
-672
-688
80
288
0
-112
-64
-32
160
208
256
160
-144
-176
-48
-128
-16
368
128
-224
-368
-96
608
1152
816
-160
-672
-816
-704
-496
-304
-64
-48
176
80
-112
64
400
512
304
48
256
256
-144
-416
-368
16
544
608
-144
-896
-656
48
96
32
176
368
32
-352
-368
352
720
368
-224
-144
-16
-80
16
48
32
-176
-256
64
48
-208
-288
-32
-128
-352
-16
176
128
-224
-224
32
368
192
128
304
112
-160
-256
-64
48
80
208
-208
-528
-240
-16
0
-240
-464
-336
32
384
288
-112
-256
-160
288
416
192
-80
-272
0
0
-176
-352
-112
208
-160
-432
176
624
752
800
112
-560
-912
-256
160
-240
-288
0
272
176
32
48
-176
-368
-208
-32
144
0
-176
64
192
16
48
96
-432
-752
-128
240
320
496
496
-80
-512
-400
32
224
176
-80
-256
96
128
-112
-48
-144
-320
-336
-64
176
0
288
656
304
-400
-672
-48
368
48
-128
304
368
96
-384
-128
-32
-528
-576
-208
272
352
224
336
416
176
-496
-672
-16
192
-176
-400
-368
-128
176
416
96
-32
416
320
96
-224
-480
-784
-496
80
448
128
-128
-96
176
400
320
-16
-192
-176
-16
80
160
-48
-192
-80
-128
-144
0
192
368
-144
-384
-128
208
320
-80
-144
32
16
48
304
192
-112
-368
-496
-352
-80
208
368
656
592
80
-400
-224
-400
-704
-432
0
-48
-80
304
96
-192
-208
-112
160
400
592
480
336
-176
-640
-256
-96
-112
-64
48
-224
-464
-80
320
160
-64
0
0
16
288
560
352
16
128
-80
-512
-400
-320
-16
160
176
0
-176
-208
-192
32
304
400
272
-320
-464
-240
-48
-176
-112
64
-16
-160
-64
96
432
720
528
-16
16
176
-240
-336
-288
-592
-800
-480
-176
176
336
240
224
192
176
320
576
208
-656
-592
112
224
-192
-352
-112
-96
-304
-192
-80
160
448
464
528
-96
-432
64
512
16
-448
-272
112
256
160
16
-112
-304
-384
-64
-192
-624
-416
384
336
128
16
176
528
672
304
-736
-720
-112
320
96
-368
-64
384
144
-256
-80
160
-32
-192
32
96
-176
-336
-128
208
48
-480
-384
432
592
16
-96
160
64
-112
-192
112
400
80
-208
-192
-384
-464
64
608
480
288
128
0
-432
-416
-32
224
80
64
176
96
-448
-480
-16
160
-128
-688
-448
96
464
256
-32
-128
-64
-32
160
384
416
560
384
-128
-288
-256
-288
-304
-352
-496
-496
-288
384
784
528
0
-48
288
112
-272
-80
80
-80
-592
-800
-496
224
512
560
384
48
-240
-112
-64
-96
-192
176
496
256
-128
-160
144
400
288
-320
-768
-560
-160
-160
32
160
16
80
-96
-352
-112
576
576
-272
-576
-208
-112
48
512
896
832
272
-240
-320
-272
-160
-192
-64
-224
-384
-288
-48
112
304
240
128
240
-160
-112
288
416
-80
-512
-640
-304
0
-16
-304
-352
-240
-80
-80
-256
16
112
-48
-160
-208
-80
336
768
400
-32
-112
-240
-224
32
16
-16
-64
-224
-480
-288
176
384
272
0
-240
-240
112
64
-112
144
192
-160
-208
32
128
160
128
-32
-192
160
656
464
-464
-992
-560
-192
-240
-368
-192
160
320
272
240
224
128
80
48
192
80
-240
-384
-160
144
176
336
224
-16
-288
-304
48
16
-240
-160
128
224
64
80
448
496
-64
-192
-192
-128
0
-80
-80
-64
-16
0
64
128
224
32
-416
-464
-160
176
368
448
-96
-480
-432
-176
320
384
-16
-224
80
176
-256
-352
176
432
288
-272
-464
-144
-32
-64
112
160
48
64
224
336
256
-144
-384
-256
-16
80
-96
-176
-320
-480
-64
176
80
368
800
640
144
-368
-400
-192
-192
-336
-368
112
272
144
-144
-80
176
64
-96
-96
-256
-448
-256
208
384
336
160
160
176
-128
-368
-192
144
240
-32
-288
16
608
400
-208
-352
-240
-160
-48
80
160
-128
-288
-272
-112
16
112
208
304
208
-208
-240
256
304
16
-240
-400
-368
-128
144
352
208
-96
-160
112
304
192
-48
-80
176
176
192
240
0
-160
-160
-144
-144
-128
192
480
48
-272
-112
80
80
-160
-384
-208
416
368
-256
-448
-128
144
80
176
160
-64
-80
-16
96
176
80
0
16
128
64
-96
80
320
208
-144
-256
-160
0
32
16
-64
-112
48
64
0
144
-48
-160
-224
-224
-48
208
224
-80
-336
-448
-192
192
512
240
-256
-112
-192
-240
-80
144
144
128
64
16
-112
-96
112
240
240
96
0
-16
-16
-128
-48
-32
-192
-64
-96
-128
112
64
-288
-384
-64
-128
-144
80
160
32
80
176
176
128
96
112
288
224
-16
-160
208
112
-368
-384
-288
-384
-352
-16
112
208
224
112
-160
-400
-272
64
208
224
112
-112
32
288
416
208
-368
-752
-368
48
112
192
144
-32
-288
-128
176
112
96
96
192
-80
-256
224
880
368
-608
-672
-352
-192
-176
-64
-96
-64
-96
-80
-112
-112
-64
-64
-96
-16
-64
0
256
464
368
208
-128
-384
-192
32
96
64
-16
16
0
-304
-384
-192
-16
-144
-192
16
192
192
336
480
80
-304
-144
-32
-112
-64
144
256
-16
-432
-432
0
48
-272
-144
-224
-496
-48
688
736
192
-176
-176
-64
176
416
384
-64
-528
-416
-80
-32
-128
-96
16
-192
-496
-224
240
208
208
240
96
48
80
32
-80
-128
32
192
128
128
160
160
112
384
608
272
-640
-1120
-496
320
240
0
-160
-352
-208
-48
32
144
96
32
96
368
16
-240
-112
64
192
112
-96
-144
-80
-64
-112
-272
-320
-48
368
336
0
-176
-96
112
96
192
272
128
-48
-128
-16
176
224
-48
-416
-560
-320
96
352
256
-16
-96
0
16
-32
-208
-208
0
352
432
16
-368
-160
128
0
-176
-64
240
208
-48
-160
-96
-112
-160
-128
-336
-512
-352
48
288
320
240
304
432
432
400
-208
-496
-416
16
144
32
-16
-32
-16
-96
-224
-304
-160
48
128
-112
-320
-112
176
304
160
48
16
0
112
144
48
-16
-112
-224
-272
-256
-240
-64
96
112
-32
-32
160
144
-32
-16
-16
32
96
-32
-176
-64
224
352
288
-80
-304
-256
-48
-16
-288
-544
-272
160
400
256
48
64
224
32
-80
-64
48
112
96
80
32
144
224
112
-112
-96
-48
-224
-32
224
144
-80
-16
64
-32
-96
-48
-80
-64
32
-112
-304
-256
96
224
128
16
-32
32
80
48
32
-80
-192
-176
48
64
112
80
96
208
224
64
-112
-176
96
288
64
-144
-176
-112
0
96
144
-16
-240
-144
96
48
-48
48
-160
-288
-208
-64
16
-16
-128
80
144
208
128
-48
0
32
-160
-384
-176
16
48
128
-16
-112
-32
48
-224
-112
288
432
192
128
32
-208
32
368
192
-176
-416
-320
-112
-16
-16
16
-16
-32
-112
-64
240
304
0
-128
16
-16
-144
32
0
-192
-272
-96
160
16
-64
-288
0
256
-80
-224
48
144
80
0
-32
-32
-64
96
336
176
-80
-80
128
48
-256
-624
-400
288
368
336
336
-48
-432
-416
-208
16
-16
-48
32
144
208
160
-32
-112
-80
-16
80
208
256
32
-256
-256
32
64
-32
80
-96
-192
224
592
512
-80
-576
-288
32
80
-16
144
160
48
-224
-304
-128
64
-16
-96
-32
144
288
304
80
-336
-416
-160
112
448
336
-96
-176
-304
-256
0
208
192
224
144
-128
-208
-240
-128
-16
112
-80
-224
80
368
256
-128
-96
-112
-128
-208
-304
-272
160
352
416
352
96
-384
-480
0
240
48
48
128
32
-96
32
80
32
-224
-208
-160
192
320
288
16
-512
-640
-336
272
592
384
-48
-272
-272
-176
-16
80
144
208
256
96
32
128
208
-176
-496
-288
-80
0
64
80
96
32
-64
-32
0
0
-16
-80
16
224
-48
-224
-80
-48
-64
96
64
-176
32
320
128
-96
-320
-208
-224
-176
0
320
464
384
16
-224
-176
-96
64
208
112
-96
-192
-208
32
80
-48
-32
-144
-288
-256
96
192
256
176
80
-128
-16
336
320
0
-416
-512
-224
96
288
176
-32
-176
-80
-48
-16
96
208
304
208
-256
-208
-32
16
96
96
80
-32
-208
-272
32
16
-176
-224
-64
96
80
32
112
112
-160
-272
-256
-32
96
128
16
-48
-80
-16
240
320
272
32
-112
-64
-64
-208
-224
80
320
144
-208
-224
-80
80
96
192
288
304
112
-304
-160
-80
-96
-256
-224
-144
-112
-64
96
96
128
192
80
-96
-304
-224
16
160
160
224
336
208
-240
-256
-176
-240
-288
-192
128
224
208
64
-48
-80
-224
-272
-48
144
16
-128
-96
96
160
32
-32
80
112
-32
80
272
288
96
80
-320
-512
-240
-208
-208
-112
112
48
80
176
128
144
272
160
-128
-208
-80
-192
-208
0
176
176
-16
-272
-320
-240
272
352
112
0
144
80
-128
-224
-112
192
416
352
-32
-288
-160
160
144
-48
-64
-16
-64
-320
-400
-112
64
144
128
0
-16
0
48
32
0
0
16
-128
-208
-144
160
176
32
16
0
-48
0
0
-192
-368
-160
48
-16
48
96
80
224
96
-128
-144
-128
-160
-464
-224
240
368
80
-208
-176
80
80
-160
-272
-160
80
192
16
-208
-64
80
0
-224
-208
-160
16
288
112
16
16
32
-32
16
-128
-400
-496
-304
208
384
304
336
176
224
240
-80
-544
-288
-16
16
64
336
432
128
-112
-288
-256
-128
32
272
208
144
128
-32
-368
-512
-448
-192
16
128
128
80
80
144
96
48
-160
-288
-64
208
176
128
128
192
288
208
-32
-192
-224
-176
-64
-144
48
64
-16
80
96
80
64
192
64
-64
-176
-384
-400
-32
336
208
64
-96
-304
-48
160
64
-112
0
304
288
-32
-224
-224
-160
-176
-288
-80
336
480
64
-240
16
64
-16
-32
0
16
128
208
272
112
-128
-272
-320
-192
-64
80
32
32
48
96
176
80
-80
-160
-32
16
-16
-80
-80
-160
-32
160
48
-96
32
16
-112
-128
-80
96
272
320
160
-16
0
0
-208
-288
-112
0
16
112
112
-64
-192
-192
-112
-48
80
96
-48
128
176
176
48
-96
-64
-208
-224
-176
-144
-80
-64
-64
128
176
0
-112
-16
128
32
-16
-16
112
160
80
-176
-64
80
0
-144
-176
-96
16
112
112
32
-96
-96
-64
-112
-64
16
32
48
192
192
176
64
80
-48
-240
-272
-128
32
32
-16
32
80
-16
-16
-112
-240
-208
32
256
64
-96
-96
-112
0
112
16
32
144
96
0
16
-16
-32
64
192
144
-224
-208
-48
96
112
16
80
16
-112
-160
48
64
-16
-32
-64
16
-80
-32
112
144
80
-64
-240
-192
-160
-48
0
0
64
224
384
304
-112
-336
-160
32
192
208
64
-176
-208
-192
-160
32
80
64
16
-160
-176
-32
96
128
80
-80
-192
-48
128
64
0
0
80
16
0
128
96
-16
-16
48
48
16
-96
-160
-80
128
288
80
-192
-128
192
-48
-240
-208
-48
224
96
-208
-192
80
160
32
-176
-176
16
112
112
0
-32
16
80
256
336
160
-16
16
-16
-176
-176
-96
80
48
-80
-64
32
128
-64
-128
-176
-240
16
224
0
-160
128
224
-48
-64
-48
0
80
48
16
-32
-32
-96
-256
-368
-128
32
-64
-96
48
80
64
-32
-16
96
112
16
-48
0
128
320
288
-112
-272
-128
-112
-384
-560
-192
-16
16
112
-32
16
128
288
320
160
48
-80
-144
-128
-32
96
128
128
80
-224
-352
-128
112
48
-16
96
16
-48
48
-96
-160
-48
64
96
64
208
192
-32
-80
-32
0
32
-32
-144
-32
176
64
-160
-304
-352
0
112
-32
0
176
160
144
176
256
272
96
-112
-144
-96
48
0
-80
-192
-224
-160
-80
-32
32
32
0
-96
-176
-48
224
448
208
-64
-64
0
0
-48
16
-64
-256
-240
-112
-48
-80
-80
-32
-16
32
144
96
96
160
192
16
-128
-144
-144
-16
128
144
112
-64
-192
-192
-224
-176
-160
-80
112
144
0
0
80
128
48
-48
0
160
352
304
48
-384
-288
-160
-144
-16
160
160
16
-208
-192
-80
96
160
192
208
224
16
-176
-80
-32
-48
16
16
80
128
64
0
-256
-352
-224
-48
224
288
176
-144
-160
-48
-48
16
48
16
64
96
128
208
160
-80
-272
-192
-16
0
-144
-112
96
144
-16
-224
-240
-64
32
176
176
128
144
32
-64
-176
-208
-128
-112
112
192
80
-112
16
-32
-112
-160
-224
-64
224
128
-16
-48
-48
-160
-240
96
320
208
64
-16
-96
-208
-192
-128
-128
80
80
-16
-32
-128
-160
-128
-128
-48
48
224
208
32
0
-48
-16
-16
96
160
-128
-368
-112
384
304
-160
-208
-160
-192
-128
16
144
112
16
-48
0
112
144
0
16
80
48
64
128
32
-112
-192
-208
-96
0
176
144
-96
-240
-96
0
64
112
112
48
-112
-128
32
208
48
-32
80
-16
-240
-272
-48
32
-32
-64
-96
-96
-48
-32
-32
16
192
176
-16
-224
-144
96
112
16
-64
16
64
0
-32
-16
32
32
-80
-192
-112
-96
64
256
96
-272
-224
80
64
-32
-16
0
128
160
128
176
176
112
-96
-320
-176
-144
-256
-192
0
-80
-64
-64
-96
48
96
112
0
-32
112
224
64
-48
-16
112
144
16
-16
32
64
16
-48
-48
16
160
32
-208
-144
-48
0
16
32
16
48
16
-48
-32
-80
-16
-16
-16
-16
-16
-32
80
192
240
32
-240
-288
-112
-80
-112
0
192
32
-16
96
48
-96
-48
-32
-16
16
16
32
0
-176
-240
-144
48
48
-112
64
320
160
-48
32
112
-48
-144
-80
-16
16
80
320
224
-192
-304
-128
80
80
48
16
-80
-144
-192
-112
-16
0
-144
-96
48
64
64
48
-96
-288
-16
256
208
128
128
-48
-112
-128
-144
-96
-32
-32
-16
0
32
128
128
-128
-256
48
288
288
-80
-240
48
144
-32
-240
-240
-176
16
176
80
-160
-192
16
48
0
64
144
112
64
-64
-48
48
64
16
-64
-16
64
-16
-64
80
192
80
-160
-320
-304
-160
112
176
128
224
288
48
-160
-160
-80
16
48
32
-112
-208
-176
-48
-128
-176
80
176
16
-128
-96
96
112
-80
-128
-16
208
304
320
64
-176
-128
-64
16
-272
-432
-32
288
112
16
-80
-32
80
16
-80
-96
80
208
96
-80
-128
-16
-16
-240
-384
-192
48
160
96
-32
-96
-48
-80
16
160
336
400
352
-64
-176
-144
-48
-32
-208
-192
-112
16
64
64
16
128
96
-112
-144
-80
160
48
0
-32
0
96
64
32
-112
112
224
-64
-240
-176
-48
144
192
32
32
80
-32
-96
-64
-80
-160
-176
16
160
304
352
192
-256
-368
-32
48
64
0
-144
-96
-16
-32
-144
-128
176
256
112
-80
-80
80
144
64
-64
-80
48
160
-16
-240
-256
-64
144
-32
-128
-176
-64
0
96
96
32
192
320
208
-224
-384
-16
64
-240
-288
-96
96
176
112
96
-16
-64
48
128
0
-48
-176
-144
80
288
224
-48
-176
-192
-48
96
144
112
32
-48
-176
-288
-96
64
16
0
-64
-64
-96
-80
112
16
-64
64
160
144
32
-16
-32
-64
-192
32
336
272
64
-176
-224
-192
-176
0
192
32
-96
-48
32
48
32
16
32
48
64
0
16
-32
-144
-96
-48
-32
-80
-16
128
128
48
-48
-128
80
144
48
16
16
160
160
-32
-112
0
-16
80
160
-16
-96
-240
-224
-160
-224
-192
-48
-32
80
192
208
192
-16
-192
-80
80
128
32
-96
-112
16
16
-80
-96
16
0
-32
0
80
128
128
128
-48
-224
-160
-128
-64
80
16
0
128
256
304
208
-48
-16
-128
-352
-176
-48
-16
-80
-144
-112
0
48
0
-96
-128
16
144
128
-48
-64
96
96
-48
-48
-16
80
0
-128
-128
-80
-64
-96
-48
0
48
80
16
48
112
128
96
32
-48
0
-48
-48
32
0
-16
48
-80
-160
-48
80
96
32
144
0
-144
-80
32
16
-32
16
0
-112
-80
-64
-80
-32
16
96
144
112
0
-176
-368
-336
-32
112
128
32
32
112
80
48
160
192
96
-48
-112
-32
64
32
-144
-192
-224
-96
128
208
-16
-48
-48
-16
-48
-80
16
144
96
-64
-80
16
0
-32
-96
-32
-80
-64
32
-64
-160
-96
0
16
160
320
224
96
-32
-112
-112
-96
-64
-32
-80
16
32
224
208
-32
-144
-128
-32
48
-32
-32
-32
-16
80
192
192
112
-176
-160
-80
0
144
32
-352
-464
0
256
240
96
-16
-144
-240
-144
16
112
192
112
-32
-176
-192
-64
160
304
256
208
256
-48
-80
-176
-448
-288
-112
-48
-48
-16
96
128
32
-128
-32
32
160
128
-128
-272
-64
224
192
128
0
-96
-144
-64
64
-16
-144
-112
96
112
192
128
-64
-64
128
16
-160
-96
-16
-48
-32
80
144
96
-80
-224
-256
-112
80
96
112
48
-128
-80
16
-48
-112
112
272
80
-64
80
256
32
-80
-64
-176
-208
-160
-64
32
160
-32
-320
-336
-64
32
96
144
128
224
144
64
-16
-80
-48
64
144
112
96
-48
-144
-384
-496
-144
176
256
48
96
128
-128
-160
0
48
32
16
64
-16
16
176
272
176
32
-272
-224
0
-64
-272
-320
80
336
144
-64
-80
80
80
16
-64
-176
-224
-96
16
-16
-80
-48
0
16
-48
-48
112
176
80
48
128
48
-48
0
96
176
272
240
-48
-96
-112
-144
-80
-48
-96
-224
-192
64
112
-16
0
64
-32
-112
-224
-480
-512
-208
256
368
160
-176
-48
64
112
160
96
144
32
-16
144
80
-32
-112
-16
192
80
-208
-272
16
224
96
-208
-176
0
48
-32
-64
16
-16
-80
-64
-112
-80
-16
16
-32
-64
-64
-16
176
240
80
-128
-112
96
160
96
-64
-64
-96
-16
16
-48
-144
0
-80
-256
-224
-80
224
240
80
64
144
112
-112
-256
-112
112
96
-32
-32
16
-16
-96
-128
80
0
-144
-32
16
80
80
16
-80
-112
-96
-32
96
176
16
-80
0
0
-16
96
64
-144
-192
-96
16
96
48
96
48
-112
-96
-48
-32
-16
-48
-16
0
-48
-224
-48
192
64
64
32
96
192
80
-304
-336
-16
112
64
-16
64
48
-48
-48
32
80
32
-160
-96
0
-96
-224
-112
64
32
16
48
96
80
16
-128
-176
-80
32
64
16
-112
-80
272
448
272
-64
-336
-128
-64
-80
-16
96
160
32
-96
-48
208
-96
-336
-272
-240
-128
160
96
-80
-208
-192
-16
128
112
80
112
144
96
-48
-96
-16
80
80
96
-32
-112
32
-16
-128
-128
-128
16
352
336
-96
-352
-16
16
-80
-80
-32
16
32
0
-32
-16
-96
-144
-96
64
64
-32
32
0
16
-16
-112
-144
-16
80
48
144
192
96
-32
-128
-224
-288
-208
144
544
336
-80
-336
-144
-112
-176
-96
-16
80
-16
64
192
304
384
192
-128
-304
-128
-144
-272
-64
112
128
112
-16
-176
-80
16
-16
32
0
48
80
16
-112
-112
0
0
-80
0
0
-96
-96
64
176
64
-16
-160
-96
-16
-32
-112
-96
-16
-32
-32
-80
-48
-144
-224
-144
144
352
144
-16
80
32
-16
272
480
352
-144
-416
-272
-80
-16
144
80
-80
-160
-224
-112
16
32
112
144
176
144
-48
-304
-240
-112
-144
-176
48
160
160
80
48
0
-160
-224
-112
-16
32
96
128
128
128
48
192
416
368
16
-272
-272
-224
-64
176
160
80
-64
-80
-32
32
0
-208
-208
-48
-64
-32
112
96
80
16
-48
-48
-128
-48
48
32
0
-48
-16
64
64
64
64
-48
-16
0
80
80
80
0
-224
-208
-80
-16
-64
32
176
144
128
-48
-160
-160
-96
16
96
-16
-176
-192
48
288
240
-16
-256
-176
32
16
0
-48
-48
-16
16
160
208
16
-192
-256
-224
-144
0
128
80
128
192
64
-128
-144
-64
32
80
176
176
176
112
-96
-64
48
160
128
-224
-320
-160
0
64
48
-16
-144
-112
64
80
16
-32
96
128
48
-304
-592
-240
48
160
16
-144
-48
240
272
128
0
-16
128
64
112
80
-32
0
96
160
-48
-320
-192
-80
-96
-112
-16
80
48
0
0
80
224
288
128
-240
-352
-304
-272
-128
-48
-32
32
208
352
256
48
-128
-256
-96
80
112
48
-16
-64
-80
-160
-144
-96
32
128
16
16
0
-32
48
48
0
16
-48
-112
-192
-192
-32
80
96
16
-96
-224
0
272
240
96
-32
32
144
32
-160
-144
-48
16
128
288
112
32
48
80
-96
-240
-240
-128
0
-48
-96
-160
-128
-32
32
64
-32
0
128
80
-240
-336
32
240
96
112
80
-48
-48
16
16
-16
-16
-16
-16
64
176
128
-64
-96
16
16
0
-64
-112
32
-16
-32
-48
-112
-128
-128
-96
0
32
-48
-32
0
-16
-96
32
96
96
32
48
112
128
16
-96
0
-64
-208
-160
64
128
112
112
-112
-336
-384
-32
112
96
-16
256
528
304
-16
-272
-192
-32
48
48
112
160
64
-304
-320
-128
-64
0
96
16
16
208
144
64
-32
-16
-32
-192
-128
16
-32
-64
-16
-48
-48
-16
-64
-112
16
144
224
112
48
16
16
-16
-48
-32
-32
16
0
-80
-80
-16
48
144
48
-112
-128
-80
64
48
-128
-208
-48
240
160
128
64
-128
-368
-272
0
336
384
16
-208
-96
64
96
80
-48
-192
-128
144
176
-48
-240
-304
-112
0
-32
-48
64
208
224
144
80
-96
-96
-80
-112
-16
112
176
96
16
48
64
-144
-176
16
0
-48
48
64
128
240
288
160
-112
-128
-144
-240
-352
-224
-32
48
80
192
272
48
-208
-224
-48
128
128
112
64
-80
-128
-144
-32
128
80
-80
-176
-96
224
368
160
-112
-80
64
16
-176
-112
-16
-32
-48
32
64
-32
-112
-128
-32
-32
-48
48
48
32
32
112
96
-112
-192
-64
32
16
-16
-96
-144
-176
-144
64
144
0
0
0
-32
112
112
64
-48
-128
48
48
-112
-336
-128
192
112
-64
-96
0
80
112
16
-144
-272
-160
16
-64
-240
-256
48
192
112
160
176
128
64
144
128
-32
-192
-160
-48
-64
-128
-16
64
-96
-176
-112
48
96
64
80
80
80
48
16
-32
-112
-32
160
192
-80
-208
-192
-96
-48
0
16
0
144
144
192
96
96
144
64
-80
-128
-192
-160
-96
16
0
-128
-96
32
144
80
-112
-96
16
144
96
64
-64
-224
-208
-48
64
96
16
-32
32
-16
-48
48
32
96
80
-32
-144
-64
192
160
-32
-208
-272
-96
80
80
64
80
48
-16
-16
0
-32
-80
-80
-144
-144
-160
-128
-32
80
208
208
80
32
48
48
48
-32
-16
-64
-48
-16
0
-16
-112
-80
-16
-128
0
320
208
112
-64
-96
-32
48
-48
-144
-80
0
0
16
32
16
-48
-32
-128
-272
-224
48
224
176
0
-48
48
112
128
16
-112
-192
-112
16
-64
-112
0
16
-112
-224
-80
80
112
48
48
-16
-64
-80
-32
64
0
-48
-16
96
176
240
192
-32
-112
-16
-64
-208
-96
48
144
80
-32
-80
-112
0
0
-48
-16
96
144
96
-16
-32
96
208
-64
-352
-160
-16
64
144
80
-128
-224
-96
48
208
240
256
128
-112
-272
-80
32
16
16
-48
-96
-48
-16
16
-16
-96
-192
-144
-16
80
16
-48
-16
-48
-64
16
80
80
16
32
32
-16
-128
-144
-80
0
32
64
80
48
16
32
32
-32
-48
160
160
-80
-96
32
80
-80
-112
-176
-240
-112
0
0
-48
-96
-128
-256
-256
-128
96
128
96
144
224
160
-32
-48
0
-80
-80
32
112
64
32
16
48
-64
-144
-80
96
96
144
160
96
80
96
96
-32
-288
-288
0
144
-96
-176
16
16
-224
-288
-112
-16
-96
-80
144
288
192
-144
-160
-48
64
144
64
0
0
32
128
112
-64
-240
-192
-64
-144
-192
-64
16
80
80
64
-48
-64
-16
-16
128
192
80
-96
-160
-128
16
112
96
-160
-160
-112
-80
0
128
112
16
16
0
-144
-128
80
144
48
-96
-64
0
-16
32
144
96
16
-64
-48
-48
-80
-112
-48
32
-64
-160
-48
48
0
48
208
208
-32
-112
16
64
-48
-192
-160
16
176
144
0
-96
-96
-144
-96
-64
-64
0
208
224
48
-160
-128
144
176
80
-32
16
32
-64
0
96
48
-144
-224
-96
-48
80
224
176
96
-32
-80
-144
-160
-96
-48
-32
-32
32
128
112
80
48
48
-32
-96
-128
-256
-224
32
48
-64
-80
-32
32
16
32
-16
32
80
16
48
80
-16
-16
-16
-80
-128
-160
0
160
144
-16
-128
-16
224
176
0
-48
-64
48
192
160
-32
-224
-80
-32
-160
-208
-256
0
192
64
0
0
-16
-16
48
160
144
48
-160
-208
-208
-128
0
48
128
64
-112
-32
128
192
144
48
-32
32
48
-48
-112
-80
-96
-48
-16
-32
-48
-48
64
144
16
-32
-80
-96
96
112
32
48
32
-112
-112
-64
-144
-96
32
128
64
0
-16
-48
32
-48
-160
-32
144
176
48
-96
-96
-16
64
-16
-112
-128
-64
160
48
-80
-128
-96
0
0
16
64
48
32
128
128
64
-64
-208
-176
16
96
80
-32
-80
-16
16
16
-32
-64
-32
16
-48
48
96
112
96
48
-16
80
160
144
-32
-208
-208
-96
-64
32
48
16
176
224
-96
-192
-64
96
112
32
-48
-112
-128
-64
-32
-96
-64
80
128
96
32
-64
0
48
16
-80
-176
-64
48
-16
-96
-32
96
144
192
96
-96
-192
-96
16
64
16
-128
-240
-240
-80
32
-48
-96
32
176
112
-16
-64
0
128
80
-64
-32
-48
-80
0
64
80
128
16
-112
-176
-224
16
112
-80
-160
-112
-16
16
0
-32
-32
-64
48
304
256
-112
-432
-208
128
64
-48
32
96
96
0
-112
-144
-160
-48
48
32
-32
-96
144
208
208
32
-48
-16
16
16
0
-80
-112
-160
-240
-224
-128
112
288
48
-80
64
176
96
16
-80
-208
-96
16
32
-48
-80
-32
32
0
-16
48
64
16
-80
-64
-48
48
80
64
96
-16
-112
-80
80
96
0
-112
-112
-96
-48
48
0
-64
-48
-64
-80
48
160
96
0
-160
-272
-272
-144
128
96
32
144
176
112
0
-80
-128
-112
-80
-16
48
80
64
-64
-80
-96
-80
80
224
-16
-80
-32
-32
64
144
64
-64
-128
-32
128
144
-32
-224
-144
0
64
16
-48
-64
-96
-64
32
144
208
112
48
32
-32
-80
-80
-80
32
144
80
-64
80
192
128
-112
-304
-192
-80
-80
16
16
32
48
48
32
-16
-128
-96
0
64
32
-16
-48
-64
-48
16
48
32
32
-32
-80
48
128
80
-16
-96
-144
-96
48
64
48
-16
-64
-80
-48
16
48
32
112
64
64
144
176
-96
-288
-112
-48
-96
-32
-64
-16
-32
0
176
304
224
-48
-176
-32
80
16
-176
-176
32
16
-16
0
16
-64
-128
48
32
-112
-160
0
96
32
-32
48
160
160
32
-80
-80
-16
32
16
-96
-160
-112
-16
-32
-32
32
16
0
-32
-64
-80
-48
32
48
80
240
272
80
-96
-32
48
32
16
-32
-48
-96
-144
-176
-48
32
-48
-48
0
96
-48
-144
144
128
32
-96
-112
-32
32
-16
-112
-64
-96
-112
16
160
64
-64
-128
32
160
96
48
-48
-48
-16
32
144
144
144
32
-80
-64
0
-32
-48
-48
-80
-64
48
32
-48
-96
-128
32
144
64
-96
-176
-64
32
96
160
192
144
32
-128
-224
-208
-112
0
48
-32
-96
-64
16
-48
-112
-144
-80
48
32
80
160
128
32
16
-64
16
48
-32
80
112
80
0
-128
-160
-208
-224
-96
112
80
-96
0
144
64
-64
48
192
128
80
16
-16
16
-144
-176
-80
16
32
-128
-192
-32
32
16
-80
-64
80
128
64
-64
-64
16
-16
-16
-48
-96
-48
80
144
64
-16
-64
-112
-208
-208
-48
64
176
128
16
48
96
112
288
336
32
-256
-176
-64
-32
-128
-224
-240
-224
-112
-16
64
-16
-64
0
80
96
-16
-96
32
96
32
48
32
0
32
16
48
-80
-80
0
32
-32
-80
48
112
64
0
-80
32
64
32
16
-16
0
48
96
80
-96
-176
-144
-176
-192
0
144
96
-64
-176
-144
-128
32
176
80
-16
-48
48
240
256
32
-144
-112
16
0
-16
-48
-48
-32
-64
-128
-128
-32
80
0
-64
-32
0
128
208
160
-32
-96
-48
32
32
-16
-80
-96
80
144
32
-64
-96
-80
-48
-128
-208
-160
-48
112
240
128
64
176
80
-80
-176
0
176
128
80
48
-16
-144
-144
-112
-208
-352
-320
-16
192
160
160
272
192
-48
-144
-48
0
-80
-96
-48
0
32
0
-144
-208
-176
-96
80
112
48
-64
0
112
112
64
-16
-80
-80
-96
-80
0
96
176
144
0
-160
-176
-160
-160
-48
96
112
128
192
240
96
-272
-352
-208
-80
-48
-48
-48
64
208
128
16
-48
-144
-112
-64
-128
-112
48
160
16
-96
-16
-32
-64
-80
0
48
128
192
112
112
32
-96
-48
-16
-112
-192
-64
96
128
112
16
-16
80
32
-192
-224
-128
32
16
-80
-112
-80
-32
0
-16
0
-16
64
144
192
64
-112
-16
64
48
-16
-144
-144
-32
16
16
16
16
-16
-32
0
0
-32
80
160
80
0
-144
-112
-16
-16
-32
-64
-112
-16
128
112
-208
-288
-64
32
144
160
48
-32
48
80
48
48
0
-64
-112
-128
-96
-32
48
80
-48
-80
16
16
-64
-112
-96
16
160
144
0
32
128
128
112
80
-96
-176
-32
-16
-112
-16
-32
-160
-240
-176
-64
16
112
208
192
48
-112
-64
16
-16
-32
-96
-128
-64
128
240
112
-32
-160
-192
-96
32
32
-48
64
80
48
32
-16
-16
48
-32
-128
-112
112
192
48
-16
-48
-64
-48
-48
-80
-48
64
48
0
-128
-240
-160
64
128
32
16
144
128
64
48
144
112
-64
-192
-48
96
-16
-224
-224
-144
-112
-112
0
80
80
160
176
-48
-80
32
96
80
-16
-48
48
-16
-160
-112
0
64
96
32
-80
-128
-32
32
0
-32
0
48
32
32
32
-32
-112
-144
-144
-96
16
160
224
176
32
-96
-128
-112
-64
-48
-64
-16
32
48
64
80
-16
-176
-80
128
128
80
80
-16
-128
-80
-32
-80
-160
-112
-32
192
256
112
48
-112
-176
-112
32
112
64
-16
-32
-32
0
48
-48
-112
-32
64
-64
-192
-32
176
112
64
-16
-48
32
96
48
-64
-176
-208
-96
32
64
48
32
-16
-64
-32
32
32
16
64
80
112
16
-64
-32
-16
0
32
16
48
-16
-64
112
240
160
-176
-368
-160
64
240
160
-112
-176
-224
-192
64
112
96
0
-48
-32
0
64
80
80
-96
-144
-112
-32
96
64
16
16
48
48
80
48
-112
-128
-80
-80
-48
-48
-16
80
112
32
16
64
16
32
0
-32
-80
-176
-176
-112
-32
16
-48
-80
16
32
-64
-16
96
112
32
-16
-32
-16
16
16
48
16
-96
-128
-96
48
160
208
128
-80
-208
-48
176
160
48
48
64
32
16
-176
-48
112
-48
-208
-192
-80
-32
-16
0
0
-16
0
48
16
0
48
48
-64
-128
-48
-32
-48
-16
96
160
128
16
0
-80
-160
-64
16
48
16
-16
0
80
96
96
112
32
-64
-48
-16
-64
-112
-128
-144
-128
-48
80
16
-48
-32
64
16
-112
-64
16
80
-48
-160
-96
96
176
96
-96
-240
-48
48
48
-80
32
160
112
-48
-160
-64
-64
0
-32
-64
-16
96
160
112
80
0
-64
-64
48
144
80
-112
-144
-64
-48
-32
-80
-176
-96
128
160
64
-16
-160
-192
-32
128
144
48
-16
-48
-48
-48
0
16
0
-48
144
256
128
-112
-144
-16
-16
-48
-160
-96
-16
-16
64
32
-96
-144
-32
128
112
96
0
-64
-32
16
-32
0
96
128
64
-160
-240
-160
-96
32
96
48
-48
-48
32
128
16
-96
-96
-112
-64
16
64
64
-32
-64
-32
-64
-48
32
176
272
272
80
-192
-176
-240
-192
-80
-48
-80
-96
80
224
256
-16
-192
-80
-16
32
96
80
32
-16
-48
-64
-192
-192
-80
0
64
32
-48
-96
32
288
352
192
-64
-176
-96
32
80
48
-80
-112
-32
0
-16
-96
-112
-112
-112
-16
224
432
352
-32
-96
-96
-240
-288
-320
-80
96
80
64
16
-32
-64
-96
-48
0
64
112
32
-96
-80
32
80
0
-64
64
352
496
352
-16
-416
-304
-128
-96
-96
-112
-80
-32
-80
-128
-128
48
176
192
176
32
-144
-128
0
64
112
64
-48
-128
-128
-64
-16
-64
-304
-352
-80
48
160
224
112
0
-80
16
48
16
80
96
64
0
-80
-112
-80
-64
16
64
144
-32
-96
0
64
32
-224
-336
-160
192
400
384
304
112
-272
-352
-192
-96
-16
96
144
48
-80
-128
-80
-96
-96
-112
-304
-144
160
128
80
32
-32
-64
-16
16
16
0
16
48
-48
-112
-96
32
128
112
16
-32
-80
-112
-64
-32
-32
-64
-80
-64
-32
-32
16
176
176
160
176
128
128
-32
-96
-96
-32
-128
-176
-96
96
64
-96
-128
-128
-96
80
256
224
-128
-176
-64
0
16
32
-32
-32
-128
-176
-48
144
192
80
0
0
16
32
-48
-32
32
0
-16
-16
-16
64
80
64
16
16
-64
-32
112
128
16
-112
-144
-144
-128
-16
48
96
144
160
128
-96
-304
-128
0
16
-64
-64
32
32
-16
-32
0
-64
-160
-128
16
96
112
160
48
-96
-112
-192
-144
0
64
16
0
0
-16
-48
-16
-64
-96
-112
48
64
16
32
80
96
32
-128
-48
16
96
128
-16
-192
-176
-32
0
-16
16
0
-48
-80
-96
-64
-32
128
224
80
16
-16
240
368
176
-160
-304
-256
-128
-48
48
-16
-112
-112
-112
-128
-112
0
80
48
16
-32
0
48
48
80
112
64
-48
-64
48
128
96
-16
-80
-128
-64
48
48
16
-80
-128
-144
-80
0
128
160
128
48
0
-16
-80
-48
16
64
144
96
32
-96
-16
-32
-160
-288
-320
-176
48
128
48
48
32
-64
16
80
48
16
64
160
160
-80
-208
-160
-96
-144
-224
-144
80
192
304
256
176
96
-64
-64
-16
-16
16
80
-32
-128
-112
16
112
16
-112
-160
-176
-128
-64
32
128
112
32
-112
-80
-16
-48
-80
-96
-80
-48
32
96
128
176
224
176
-32
-320
-288
-80
80
80
80
80
0
-192
-208
-112
144
288
304
192
-48
-160
-144
-80
-80
-128
-192
-176
-64
32
48
16
80
96
-16
-48
16
96
16
-48
-32
48
32
0
-32
-144
-176
-112
0
160
144
16
-32
0
-16
-32
48
160
128
160
32
-192
-352
-208
32
144
64
-16
-112
96
208
80
-64
-16
48
-16
-80
-96
-80
-16
0
-80
-160
-160
-32
160
176
96
48
16
-64
-64
-16
0
-32
-32
-80
-144
-96
16
96
112
112
80
96
-16
16
176
144
-128
-304
-48
0
32
48
16
32
-32
-96
-96
64
128
48
-96
-128
0
96
48
-64
-176
-208
-128
16
64
80
96
32
-48
-112
-208
-112
96
176
128
80
144
64
-80
-144
-208
-96
0
64
112
144
64
-32
-16
-16
-128
-160
-64
80
64
0
48
-64
-192
-224
0
272
192
64
-32
-32
64
80
-32
-144
-208
-208
-176
-96
48
96
48
-112
-224
-176
96
304
288
192
64
-32
0
-80
-112
-80
-64
-48
-32
48
48
-64
-160
-112
-48
48
144
176
112
48
0
-32
-16
16
0
32
128
64
-80
-128
-128
-96
-176
-144
-32
112
208
240
144
32
-96
-160
-96
0
64
32
-32
-64
144
128
-48
-192
-112
-16
48
128
0
-128
-208
-128
-16
32
0
-32
128
272
176
-80
-48
48
64
16
-80
-80
-80
-16
0
0
0
0
-48
16
0
-32
-80
-112
-96
-48
0
-32
0
64
64
16
-48
-48
-96
-160
-64
48
176
288
240
16
-256
-320
-96
80
0
-32
-16
16
64
80
32
-16
-96
-160
-80
-64
0
80
64
32
-32
-48
-16
48
-96
-176
-96
32
112
64
32
32
0
-48
-16
-32
-16
16
16
16
-16
-64
-80
48
48
-32
-112
-96
32
96
128
96
32
-48
-64
-96
-48
-48
-96
-176
-96
160
112
-16
-16
-16
-64
-80
64
176
160
0
-128
-112
-48
-16
-64
-112
-96
-16
16
48
48
64
64
-16
-32
-32
-80
-96
-64
-80
0
80
64
48
32
-32
-48
32
-16
0
96
96
32
-64
-64
0
48
16
-80
-176
-176
-32
16
192
144
-64
-48
48
16
-64
0
32
-32
64
208
176
-64
-288
-352
-176
0
112
96
128
64
-112
-96
80
96
0
-80
-80
-64
-32
16
48
16
-48
-128
-112
0
96
80
32
112
128
16
-48
-48
-16
-80
-96
-32
96
32
-208
-240
-64
16
48
112
112
64
-32
-32
-16
-16
16
64
80
16
-112
-144
-96
-160
-128
-64
0
48
64
112
96
48
-32
64
160
80
-96
-80
-48
-80
-96
-80
-112
-192
-192
16
256
336
256
32
-176
-128
-32
32
64
96
-80
-128
-64
0
16
16
16
-16
32
-64
-112
48
112
48
64
64
48
-64
-48
32
-16
-32
-128
-176
-64
32
16
16
64
112
192
144
-32
-224
-144
-16
-48
-48
-16
-16
-32
-64
128
240
192
-96
-192
-48
256
336
0
-256
-240
112
256
96
32
80
-144
-336
-80
112
80
-48
-176
-224
-96
48
16
-48
-96
-112
32
288
320
32
-176
-32
96
112
224
144
-16
-64
-80
-32
-16
-64
64
-32
-224
-96
16
272
272
128
-112
-256
-128
64
160
240
80
-176
-368
-192
-32
0
-128
-224
-160
-16
144
112
-32
-64
-112
-112
80
176
80
-16
-128
-128
-16
112
48
16
-80
-144
-32
64
32
-176
-240
-48
160
96
112
208
80
0
-48
64
160
128
-80
-48
128
32
-48
-160
-160
-240
-224
-112
128
176
96
-80
-240
-320
-144
48
144
0
-80
32
48
64
96
-32
-144
-176
-128
-48
144
240
128
-48
-96
-176
-112
64
224
384
368
160
-224
-352
-80
-16
-16
16
64
48
48
48
-32
16
-112
-64
-16
16
48
96
16
-80
-32
48
32
0
32
-16
-64
-208
-256
-48
160
144
-64
-128
-96
48
128
16
-144
-80
192
176
-96
-208
-32
96
192
96
-112
-96
-112
-32
-16
-16
16
16
-48
-64
-16
0
96
96
48
0
-80
-96
-96
-32
16
64
32
0
-64
-96
-80
-64
-32
-32
-64
32
112
176
112
0
-16
16
-32
-48
-48
-112
-80
0
64
112
144
-16
-208
-144
32
-32
-96
-64
32
64
-64
-128
-160
-48
128
176
224
240
192
16
-64
-144
-128
80
128
-112
-208
-112
-16
32
0
-16
-64
-112
-16
16
32
64
144
176
64
-32
-128
-80
-16
-32
-48
-112
-112
-80
-64
-64
0
32
64
48
16
-16
-16
0
0
16
16
-64
-80
-16
-48
-32
-16
48
96
96
16
-128
-128
-32
48
160
208
144
-32
-176
-176
-48
-16
96
112
-48
-80
64
192
144
-112
-208
-192
-160
-128
-160
-144
-80
-48
16
80
16
-16
112
144
48
-16
-32
-32
-16
0
0
48
16
-16
-32
-48
-112
-16
80
80
32
0
48
128
32
16
16
-16
32
48
32
-48
-96
-176
-192
-112
-96
-96
48
176
32
-48
192
368
368
-16
-224
-144
-144
-16
80
16
-48
-128
-256
-272
-192
-64
112
256
176
144
160
96
64
80
-32
-160
-192
-48
0
-32
-48
-64
-48
-32
-48
-96
-64
-16
16
80
80
48
128
160
32
-112
-112
16
0
-128
-80
16
32
16
-48
-32
80
256
208
48
-256
-320
-144
48
32
-64
0
128
160
64
-272
-176
32
80
64
-32
-112
-128
-48
0
-112
-128
-80
176
208
0
-208
-176
-64
112
48
-32
0
160
288
336
320
-192
-368
-144
-144
-128
-32
-64
-160
-48
48
16
64
96
0
-48
-16
64
64
-32
-192
-64
144
128
96
32
-80
-160
-48
80
64
-128
-144
48
208
128
48
-16
48
208
80
-48
16
-32
-160
-96
-64
-128
-112
48
208
112
-48
-144
48
224
288
176
-208
-544
-336
48
128
0
-16
0
-16
-64
0
80
144
96
0
-80
-32
16
0
-128
-160
-160
-80
176
208
32
48
112
-64
-96
224
480
416
64
-480
-416
-160
-48
-64
-144
-176
-176
-16
-16
-32
48
176
176
112
80
0
-64
-144
-48
48
-96
-128
-80
-128
-48
48
128
32
-16
0
96
176
32
128
208
80
-240
-272
-128
-32
64
64
-48
-128
-128
-48
80
80
-80
-112
-48
-32
16
192
272
80
-224
-352
-208
144
160
48
16
48
96
144
128
-16
-160
-240
-160
-112
-80
32
64
-32
-192
-144
64
256
144
-96
-144
-128
-144
-16
0
-16
64
64
16
-128
-80
-64
-112
-16
160
256
160
-96
-160
-32
160
256
112
-128
-224
-160
-48
0
32
80
160
-16
-208
-208
-80
32
32
-16
-48
0
80
-16
-80
32
176
128
80
16
-32
0
-16
-32
-64
-80
-64
-32
-80
-112
-80
16
16
16
64
-64
-160
-64
32
128
160
144
64
32
64
48
-96
-240
-256
-112
0
80
-16
-128
-96
-16
32
16
-16
0
-32
32
0
-32
16
0
32
48
32
96
64
-96
-240
-256
-144
112
128
-48
-80
16
64
80
32
-32
-48
-48
16
96
32
-48
192
352
240
-144
-432
-304
-176
-48
32
96
16
-48
0
16
32
32
48
128
144
32
-80
-112
-128
-96
-80
48
144
96
-48
-96
-32
16
48
-16
-80
-64
-48
-48
-96
-96
16
96
48
-16
-32
16
208
336
176
-96
-80
-80
-32
64
0
-80
-112
-128
-96
-64
-80
-32
112
208
32
-224
-128
-80
-48
-16
32
0
-80
-48
96
112
48
-144
-112
64
48
-128
-176
-32
64
48
0
-64
-48
0
48
160
256
272
128
-112
-160
-112
-144
-80
-48
-48
48
144
112
-208
-496
-400
-32
224
112
-32
0
16
32
32
32
80
128
128
-16
-160
-192
-32
160
224
48
-32
-16
48
-32
-32
64
128
80
-48
-112
-16
32
-48
-224
-160
-48
16
96
96
32
-96
-32
0
64
48
-64
-48
-64
48
256
320
96
-224
-336
-272
-112
16
80
32
80
64
32
0
-112
-112
-96
-32
-32
16
64
-16
-64
-80
-32
0
16
16
-64
-112
-16
-80
-144
0
256
352
256
-128
-208
-16
-64
-64
-16
64
208
272
288
-160
-288
0
64
-32
-160
-16
96
48
-64
-192
-320
-128
-16
-112
-96
96
224
272
368
416
240
-192
-384
0
64
96
80
16
128
48
-96
-256
-320
-256
-96
48
160
160
-64
-176
-144
16
16
-16
-16
0
-32
-16
-32
48
80
16
0
0
-16
0
-16
-96
-240
-16
160
144
192
320
320
-112
-192
-144
-192
16
96
0
64
96
-64
-288
-256
-144
-208
-96
-48
-32
160
256
272
-32
-224
-192
-48
160
384
208
96
16
32
-32
-160
-240
-256
-272
-192
96
208
32
-32
-16
144
160
0
-224
-144
144
176
144
144
48
-144
-192
-16
64
48
-32
-96
-128
-96
48
80
64
48
-16
64
192
32
-240
-208
-16
64
-32
-96
-176
-128
-48
-160
-176
-48
224
224
144
112
-80
-16
64
-112
-224
-32
176
144
0
-256
-256
16
96
0
-112
-80
0
0
-16
0
64
-16
-96
-144
-96
-48
32
144
128
16
-48
-80
0
-16
-16
64
208
272
160
-16
-144
32
-48
-32
-16
-96
-112
16
144
48
-208
-224
-144
-80
-96
-144
-128
-48
32
80
176
32
-208
-144
48
64
128
128
144
128
64
16
64
64
-160
-240
-128
-96
-96
-80
48
128
208
192
80
-112
-192
-192
-48
192
304
240
128
-160
-320
-304
-192
-128
-112
-64
16
0
-16
-16
96
160
64
-80
-160
-48
192
192
16
-64
-112
-128
-128
-144
-176
-96
32
-32
32
96
144
144
32
-128
-240
-128
80
176
192
48
0
0
32
32
0
-64
0
192
192
128
-96
-128
-48
-80
-208
-224
-96
-48
-64
48
256
256
112
160
320
-208
-560
-224
-96
-16
-64
-48
-16
0
-32
-96
-160
-144
-16
112
112
0
-96
-48
176
272
176
48
32
-16
-240
-240
-96
-32
0
-16
-32
-32
-32
32
96
128
-16
-32
160
256
176
-192
-448
-304
-64
64
16
16
112
96
-80
-112
-112
-112
-96
-80
-96
-112
-128
240
480
160
-80
-160
-32
0
-48
96
144
160
-96
-288
-48
160
240
208
16
-16
-416
-336
80
256
80
-160
-64
0
16
64
48
-16
-80
-160
-160
-80
16
32
32
32
-80
-80
0
96
176
64
-80
-144
-64
-16
-32
0
32
-64
-48
96
144
32
-176
-160
-80
-112
-64
176
272
96
32
-128
-176
-112
-16
80
112
-16
-144
-128
-160
-176
-64
-16
128
160
96
144
320
144
-112
-80
-48
-160
-128
-192
-80
80
0
-16
-48
-96
-16
-16
160
144
-16
-64
144
320
48
-64
-48
-16
16
32
-64
-128
16
32
-144
-160
48
128
0
-80
-112
-112
-32
48
0
80
80
32
-32
-128
-96
16
32
-32
-64
-48
48
80
-16
-32
-48
-192
-192
64
288
288
96
-96
-144
32
128
160
-32
-96
-48
80
-16
-160
-224
-128
16
-48
-112
-48
128
80
96
80
-112
-32
144
224
-112
-304
-112
48
-64
-96
-64
-32
0
-48
-80
-64
144
208
96
32
-112
-240
-128
0
-64
-64
-32
0
48
32
64
48
16
16
0
-64
-112
-64
32
80
0
-144
-128
-96
80
160
144
128
96
-48
32
16
-80
-64
-48
-80
-128
-64
64
160
144
-32
-176
-416
-192
272
288
96
48
16
128
32
-48
16
0
32
-80
-272
-304
-176
128
192
144
32
240
256
-144
-352
-32
112
0
0
16
-16
-48
-32
-48
-96
-96
-80
32
128
128
128
144
0
-272
-240
-96
-16
16
64
80
0
-16
-32
-64
-96
-112
-128
-80
0
32
128
128
-96
-208
-208
-16
160
128
176
112
0
-128
-176
-80
16
-48
-160
-160
-96
16
224
176
-32
-96
-32
64
176
224
176
32
-80
-192
-240
-112
16
48
-32
-144
-144
-144
-144
-240
-208
96
208
80
48
48
80
128
176
192
192
224
240
-64
-224
-128
-128
-64
-64
-224
-208
-80
-32
-16
-32
-48
-80
-32
48
96
80
48
16
80
96
64
80
64
-48
-256
-384
-208
96
112
-16
-144
-192
16
208
272
80
-128
16
128
48
-64
-112
0
176
192
16
-112
-128
48
32
-288
-416
-272
-144
-16
-32
-64
0
128
176
80
32
-32
-48
0
64
80
48
-32
-64
16
32
-48
-16
-16
-64
-128
-160
0
80
0
-32
-64
0
112
144
64
-48
-96
48
192
192
144
16
-128
-32
-16
-160
-288
-224
-48
0
-64
-128
0
0
-16
-48
-224
-128
240
336
192
80
-64
-32
0
-112
-96
-80
32
112
16
-224
-256
-64
48
160
32
32
144
80
32
80
0
-32
-80
-112
-112
-96
-48
16
48
0
-16
0
-32
-96
-32
0
-80
-128
-64
0
80
32
-64
48
112
0
-128
-32
-16
-80
-176
-96
48
48
-16
-176
-176
-16
96
208
368
336
48
-176
-48
64
-32
-96
-80
-64
-96
-32
48
0
32
-16
-32
128
128
-128
-176
-16
0
0
48
32
-16
-96
-160
-80
-48
-80
0
0
-32
-48
16
192
224
-32
-16
208
240
-64
-336
-112
48
-32
-80
-112
-112
-96
-48
16
32
64
32
96
48
-96
-288
-192
48
64
-16
-16
16
-32
-48
-16
32
64
48
-16
-32
-48
-112
-80
-16
96
80
-80
-64
16
-32
16
0
-32
-16
32
64
64
0
-112
-96
-48
-80
-16
96
240
112
-208
-240
-128
80
-80
-48
-16
16
48
64
64
-32
-96
-32
-64
-80
-128
-144
32
176
-16
-144
-48
96
80
16
16
32
64
48
16
-16
96
208
192
-64
-256
-176
-144
-64
-32
-16
16
32
-16
16
48
64
0
-64
-112
-96
0
16
32
80
0
-96
-160
-160
48
128
96
16
-16
-48
48
128
128
16
-80
-112
16
16
-64
-80
-64
-48
48
144
192
64
-80
-80
0
0
-48
-48
-32
-48
-80
0
0
-112
-112
-32
-16
-16
0
-32
32
96
80
64
-64
-176
-96
-48
-32
-16
48
64
-16
-64
-16
48
16
-64
64
144
0
-48
-128
-80
48
64
0
-80
-48
128
112
-48
-160
-32
80
32
-64
-112
-144
-96
-64
32
160
96
16
-16
0
-32
-128
-80
16
32
-48
-32
64
112
80
0
-48
-96
-80
-32
0
-32
0
32
-16
-80
-96
-80
-32
-16
-32
-16
16
96
128
64
0
0
0
32
48
16
-16
-32
-128
-112
-32
-64
-96
32
80
16
-112
-144
48
128
96
144
208
144
16
-112
-176
-112
-80
-80
-80
-96
-48
48
64
32
16
48
16
-16
16
32
64
16
-96
-80
-16
16
16
48
16
-32
-48
-48
-16
0
0
0
16
16
0
16
16
0
0
-16
-64
-64
32
0
-64
-80
16
-32
-64
-128
16
144
64
-16
-32
-64
-48
-80
-80
-16
32
16
0
-16
-32
-32
-16
-16
-32
-48
16
96
48
32
16
-48
-112
-112
-32
16
32
-16
-64
-64
16
48
0
-16
-32
-32
-16
-16
16
32
16
0
-32
-32
0
-16
-32
-32
-80
-48
48
80
16
0
-16
0
0
-32
-32
16
32
16
0
-16
-32
-32
0
16
-16
0
16
32
-16
-32
-16
16
0
-48
-32
0
16
16
0
0
-16
-16
-16
-16
-16
-16
0
-16
-16
-16
-16
-32
0
0
0
0
16
16
16
0
-32
-32
-16
-16
-16
-32
-32
-16
-16
0
-16
-16
0
16
16
16
32
32
16
0
-32
-32
-16
-16
-16
-16
-32
-32
-16
-16
-16
-16
0
16
16
16
16
16
16
0
-16
-32
-16
-16
-16
-16
-16
-16
-16
-16
-16
-16
0
16
16
16
16
16
16
0
-16
-32
-16
-16
-16
-16
-16
-16
-16
-16
-16
-16
0
16
32
32
32
16
16
0
-16
-32
-16
-16
-16
-16
-16
-16
-16
-16
0
0
0
16
32
32
32
16
16
0
-16
-32
-16
-16
-16
-16
-16
0
0
0
0
0
0
16
16
32
32
16
16
0
-16
-32
-32
-32
-32
16
16
32
16
0
-16
-32
-32
-32
-32
-32
-32
-32
-16
-16
-16
-16
0
16
32
32
16
16
16
0
-16
-32
-32
-32
-32
-16
-16
-16
-16
-16
-16
-16
0
16
32
32
16
16
16
0
-16
-32
-32
-16
-32
-32
-32
-16
-16
-16
-16
-16
0
0
16
16
32
32
32
16
-16
-32
-16
-16
-16
-16
-16
-16
-16
-16
-16
-16
0
16
32
32
16
16
16
0
0
-16
-16
-16
-32
-32
-32
-32
-16
-16
0
0
0
16
16
16
32
32
16
0
0
-16
-16
-16
-32
-32
-32
-16
-16
-16
0
0
16
16
32
32
32
32
16
16
0
-32
-32
-32
-32
-32
-32
-16
-16
-16
0
0
0
16
32
32
48
48
32
16
0
-32
-32
-32
-32
-32
-32
-16
-16
0
0
0
16
32
48
48
48
32
32
16
0
-16
-32
-32
-32
-32
-16
-16
-16
0
0
0
16
32
48
48
48
48
48
32
0
-16
-16
-16
-16
-16
-32
-64
-48
-16
0
16
32
48
48
48
48
32
32
16
0
-32
-32
-32
-32
-32
-32
-16
-16
0
0
0
0
32
48
48
32
32
32
0
-16
-32
-48
-32
-32
-32
-32
-32
-32
-16
-16
-16
0
16
32
32
32
16
16
0
-16
-16
-32
-16
-32
-32
-32
-16
-16
-16
-16
-32
-32
0
0
16
16
16
16
0
0
-32
-32
-32
-32
-32
-32
-16
0
0
0
-16
-16
0
16
32
32
32
48
64
48
0
-32
-16
-16
-32
-32
-16
-16
-16
0
0
16
32
32
48
48
48
32
16
0
-16
-32
-32
-16
-16
-32
-32
-16
0
0
0
16
32
48
48
48
48
32
32
16
0
-16
-16
-32
-32
-32
-32
-16
-16
-16
0
0
16
32
32
32
32
16
0
-16
-16
-16
-16
-16
-16
-16
-32
-16
-16
-32
-32
-32
-16
0
16
0
16
16
16
-16
-16
0
0
-16
-16
-16
-16
-16
-16
-16
-16
-16
0
16
16
32
32
32
32
16
-16
-16
0
0
-16
-16
-16
-16
0
-16
-32
0
16
32
48
48
48
48
32
-16
-48
-48
-48
-48
-48
-32
0
0
0
16
16
16
48
48
48
64
64
32
32
16
16
-16
-16
-32
-32
-32
-32
-32
-16
0
0
16
16
32
48
48
48
32
32
0
-32
-64
-64
-64
-64
-48
-48
-64
-48
-16
16
16
32
48
48
32
16
0
16
16
0
-16
0
16
0
-16
-32
-32
-32
-16
0
0
0
16
32
32
32
32
32
32
0
0
0
0
0
0
-16
-16
-16
-16
-16
-16
0
16
32
32
32
32
32
16
0
0
0
0
0
-16
0
16
0
-16
-16
-32
-16
0
16
16
32
32
32
32
48
32
16
16
-16
-32
-16
0
0
-16
-32
-32
0
48
64
48
64
64
64
32
-16
-32
-64
-64
-64
-48
-32
0
0
0
0
0
16
32
48
48
48
48
48
32
16
0
0
-16
-16
-32
-32
-16
-16
-16
0
0
16
32
48
48
48
48
48
16
0
-32
-32
-32
-32
-16
-16
-16
-16
-16
0
-16
0
0
16
48
48
48
32
16
0
-16
0
-16
-16
-32
-48
-48
-32
-16
0
16
16
16
16
32
16
16
0
0
-16
-16
-16
-16
0
16
0
-16
-16
-32
-32
-32
0
0
16
32
16
0
0
-16
-16
-16
0
0
0
0
-16
0
-16
0
0
0
16
32
48
48
48
48
48
32
16
-16
-16
-16
-16
-16
-16
-16
-16
-16
-16
-16
-16
16
32
48
48
48
48
32
16
0
-16
-16
-32
-32
-32
-16
-16
0
0
-32
-16
16
32
32
64
80
80
64
48
0
-16
-32
-48
-48
-48
-32
-48
-48
-48
-48
-32
-32
0
32
32
48
64
32
0
-48
-48
-64
-64
-32
16
16
0
0
0
0
16
16
32
32
32
32
32
16
0
-32
-32
-32
-32
-32
-16
0
0
0
0
0
16
32
48
48
32
32
32
16
0
0
-16
-32
-32
-32
-16
-16
-16
0
0
0
16
48
48
32
32
32
16
0
0
0
-16
-16
-16
-32
-64
-48
-16
0
16
0
16
16
16
32
32
32
32
32
32
32
32
16
16
-32
-64
-64
-48
-32
-32
-48
-48
-48
-16
0
0
16
32
32
32
16
16
16
-16
-32
-32
-32
-16
-32
-48
-64
-64
-48
-16
16
48
48
64
32
16
0
16
16
-16
-16
-16
-16
-16
-16
-16
-16
-16
-16
0
0
-16
-16
16
16
0
0
-16
-16
-16
-16
-16
0
-16
-16
0
0
16
32
32
32
32
32
32
32
16
-32
-32
-16
-16
-16
0
0
-16
-16
0
16
32
32
48
32
16
0
0
-16
-16
-32
-32
0
0
-16
-16
0
-16
-32
-32
-32
-16
16
48
48
48
32
32
32
0
-32
-32
-32
-32
-32
-32
-48
-64
-64
-64
-48
-32
16
48
48
48
48
48
32
16
0
-16
-32
-16
-16
-16
-32
-16
-16
-16
-32
-32
-16
0
16
32
48
32
32
16
0
-16
-32
-32
-32
-32
-32
-32
0
-16
-16
0
0
0
0
16
16
32
48
48
16
16
0
-16
-16
-16
-32
-32
-16
-16
-16
-16
-16
16
32
32
32
16
16
0
0
-16
0
0
-16
-16
-16
-16
-16
-16
-16
-16
0
16
32
16
16
0
-16
-32
-48
-48
-32
-16
-16
-32
-32
-32
-32
-16
-16
-16
16
32
48
48
48
48
16
0
-16
-32
-16
0
-32
-32
-16
0
0
16
32
16
0
16
48
32
32
16
0
-16
-32
-32
-32
-32
-32
-32
-16
-16
-16
0
0
16
32
32
16
16
32
32
32
32
16
16
0
-16
-16
-16
-16
0
0
-16
-16
0
16
16
16
16
32
32
32
32
16
0
0
-16
-16
0
-16
-16
-16
-32
-32
-48
-16
-16
-16
-16
0
16
32
16
0
0
0
-16
-16
-16
-32
-16
-16
-16
-32
-32
16
16
16
0
0
16
16
-16
-32
-16
16
32
16
0
0
0
-16
-16
-16
-16
-16
-16
0
16
16
16
32
0
-16
-32
-32
-32
-32
-16
-16
-16
0
0
0
0
16
16
32
32
32
48
32
32
0
0
-16
-16
-16
-16
-16
-16
-16
-16
-32
-32
0
16
16
16
16
16
32
32
0
-16
-16
0
16
0
-32
-16
-16
-32
-32
-48
-32
0
16
32
48
48
48
32
32
0
-16
-16
-16
-16
-16
-16
-16
-16
-16
-32
-16
0
0
16
16
0
0
0
-16
-16
-16
0
0
0
-16
-16
-16
-16
-16
-32
-16
0
16
16
16
32
16
0
-16
-48
-64
-64
-80
-64
-32
0
16
48
32
16
0
0
16
32
16
16
16
16
16
0
-16
-32
-48
-16
0
0
-16
0
0
0
0
0
16
-16
-32
-16
-16
0
16
16
16
0
-32
-48
-32
-32
-32
-32
-16
-32
-32
-16
16
16
16
32
32
32
16
16
16
16
0
0
0
-16
-32
-48
-32
-32
-16
-16
16
16
16
32
32
16
0
0
16
16
0
-16
-48
-48
-48
-64
-48
-16
0
16
32
32
48
48
48
32
0
-48
-48
-32
-32
-16
-16
-16
0
-16
-16
-16
0
0
16
32
32
32
32
32
0
-32
-16
-32
-32
-16
-16
-16
-16
-16
-32
-48
-48
-32
-16
16
48
48
32
16
-16
-32
-16
-16
-16
-16
-16
-16
0
16
0
-16
-16
0
0
16
16
16
0
0
-16
-32
-48
-48
-48
-32
0
16
-16
0
16
0
0
0
16
16
16
16
16
-16
-32
-48
-48
-32
-16
-16
0
-16
-16
0
0
0
16
32
32
16
0
0
0
0
16
0
-16
-16
-16
-16
-16
-32
-32
-16
-16
-16
0
16
32
16
0
-16
-16
0
0
0
0
16
16
0
-32
-48
-48
-64
-80
-80
-48
-32
0
16
32
48
48
32
32
32
32
32
16
-16
-48
-64
-64
-64
-64
-64
-32
0
16
16
0
0
-16
0
0
-16
0
16
0
-16
-32
-16
-32
-32
-16
-32
-32
-16
0
32
32
32
32
16
0
-16
-16
-32
-32
-32
-32
-16
-16
-16
-16
0
16
16
16
32
16
16
32
16
16
-16
-16
-16
-32
-32
-16
0
0
0
-32
-32
-32
0
32
32
16
32
32
32
16
-16
-16
-16
-16
-16
-32
-32
-16
-16
-16
-16
-16
-16
-16
0
-16
-16
-32
0
0
-16
-16
0
0
-16
-16
-32
-32
-16
-16
-16
-16
-16
-16
0
0
16
16
16
0
-16
-16
-16
-16
-16
-16
0
0
0
0
-16
-32
-16
0
0
16
16
0
0
-16
-16
-16
-32
-32
-32
-32
-16
-16
-16
0
0
-16
-16
-16
-16
16
48
48
16
-16
-32
-48
-64
-48
-16
0
0
0
-16
-16
-16
-16
0
16
16
32
32
48
16
0
-16
-32
-48
-32
-32
-32
-32
-16
-16
-16
-32
-32
-16
0
-16
-32
-32
-16
-16
-16
-32
-16
16
0
0
0
-32
-16
-16
-16
-16
-32
-16
0
0
0
0
16
32
16
-16
-16
-16
-32
-64
-48
-16
0
0
-16
-32
-32
-16
-16
-16
-16
-16
0
0
0
0
0
0
-16
-32
-48
-32
-32
-32
-16
-16
-16
0
16
16
16
16
16
0
-16
-32
-32
-32
-32
-32
-48
-32
-32
-32
-16
-16
-16
0
16
32
32
32
32
16
0
-16
-32
-32
-16
-16
-16
-16
-32
-32
-32
-48
-48
-32
0
16
16
16
16
16
16
0
-16
-16
0
16
16
0
-16
-32
-32
-64
-64
-32
-16
0
16
48
48
48
32
0
-16
-32
-32
-64
-64
-32
-16
0
0
0
-16
-16
-16
-16
16
32
32
32
32
0
-16
-32
-48
-48
-48
-64
-32
-16
0
0
-16
-32
-16
-16
0
0
0
16
0
0
0
16
0
-32
-48
-48
-32
-32
-16
0
0
0
0
0
0
0
0
16
0
-16
-32
-32
-32
-32
-32
-48
-32
-16
0
0
-16
-16
0
16
16
0
0
-16
-16
-16
-16
0
0
16
16
0
0
-32
-48
-48
-48
-32
0
16
0
0
0
0
-16
-32
-32
-16
0
0
0
16
16
0
-16
-48
-48
-32
-16
0
0
0
16
16
0
-16
-16
-32
-16
-16
-16
-32
-32
-16
-16
-32
-32
-32
0
16
16
0
0
0
0
-16
-16
-16
-16
-16
0
-16
-32
-32
-32
-32
-32
-16
-16
-16
-16
-16
0
16
16
16
0
-16
-16
-48
-64
-64
-64
-48
-48
0
0
0
0
0
16
16
16
16
16
0
-16
-32
-32
-32
-32
-32
-48
-48
-48
-16
0
0
0
0
16
16
16
16
0
-16
-16
-16
-32
-48
-32
-16
-32
-32
-32
-32
-32
-16
0
0
-16
-16
0
0
-16
-32
-16
-16
-16
-16
-16
-16
-16
-16
-16
-32
-32
-16
0
16
16
0
0
-16
-48
-64
-80
-64
-64
-48
-32
-16
-16
16
16
0
-16
0
0
0
-16
-16
0
0
-16
-16
-16
-32
-32
-32
-48
-48
-16
-16
-16
-16
0
0
0
0
16
32
32
16
0
-16
-32
-48
-32
-32
-48
-32
-16
-16
-16
-16
-32
-16
0
16
16
16
16
32
32
16
-16
-16
-16
-16
-32
-16
-16
-32
-32
-48
-48
-32
-16
0
0
16
16
16
16
0
0
0
0
0
0
-16
-32
-48
-48
-48
-48
-48
-16
0
0
-32
-48
-32
-32
-48
-64
-32
16
48
32
0
-16
-16
-16
-32
-48
-48
-16
0
0
16
16
16
16
0
-16
-16
-16
-16
-16
-32
-32
-32
-32
-32
-48
-32
-16
0
16
16
16
16
0
0
-16
-16
-16
-16
-32
-32
-32
-32
-32
-48
-64
-48
-32
-16
0
48
64
48
32
16
0
-16
-32
-48
-64
-48
-32
-32
-48
-48
-32
0
16
32
32
32
32
16
0
0
0
0
-32
-64
-80
-80
-64
-64
-48
-32
-32
0
16
16
16
0
16
16
0
-16
-32
-32
-32
-16
-16
-16
0
0
0
0
0
0
0
16
16
0
0
0
0
0
0
-16
-16
-32
-32
-32
-32
-32
-16
0
-16
0
0
-16
-16
-16
-16
-16
-32
-32
-48
-32
-32
-16
0
0
16
32
16
0
-32
-32
-32
-32
-32
-32
-16
-16
0
0
0
-16
-16
-16
-16
-16
-16
0
16
16
0
0
16
0
-16
-32
-32
-32
-32
-16
0
0
0
16
16
0
16
16
32
0
-16
-16
-16
-48
-64
-48
-48
-48
-48
-48
-48
-32
-16
0
32
32
16
0
-16
-16
-32
-32
-48
-48
-48
-64
-48
-48
-32
0
-16
-16
0
16
16
16
32
32
16
0
-16
-16
-16
-16
-32
-32
-32
-32
-32
-32
-32
-16
0
0
16
32
32
48
32
0
-32
-48
-64
-64
-48
-48
-48
-16
0
-32
-48
-32
0
0
0
0
16
32
32
16
-16
-32
-16
-16
-16
0
-16
0
-32
-48
-48
-32
-16
0
0
16
0
16
16
0
-16
-16
-32
-48
-64
-64
-64
-48
-48
-32
-16
0
16
16
0
16
16
16
0
0
0
-16
-16
-32
-32
-32
-32
-32
-48
-32
-16
-16
-16
0
16
16
-16
-16
0
0
0
0
0
-16
-16
-32
-32
-32
-16
-16
-16
-32
-32
-16
0
0
0
0
0
-16
-32
-32
-16
-16
0
-16
-16
-16
-16
-16
-32
-32
-32
-16
0
0
0
-16
-16
-16
-48
-32
-16
0
16
16
0
0
-16
-16
-32
-48
-32
-16
0
0
0
0
-16
-32
-48
-64
-32
-16
-16
0
0
16
-16
-16
-16
-16
0
16
16
16
16
16
0
0
0
-32
-48
-48
-32
-32
-32
-32
-32
0
-16
-32
-32
-16
0
0
16
32
48
32
32
0
0
-16
-48
-32
-32
-32
-32
-16
-32
-32
-16
0
0
0
16
16
16
16
16
0
0
0
-16
-32
-32
-32
-32
-16
-16
-16
-16
-16
0
0
0
16
32
32
16
-16
0
0
-16
-32
-32
-32
-32
-32
-32
-16
0
16
16
-16
-16
-16
-16
-32
-32
-32
0
16
32
16
0
-16
-16
-32
-16
-16
0
16
32
16
0
0
0
0
-16
-32
-16
-16
-16
-32
-32
-32
-32
-32
-48
-48
-16
0
32
32
16
32
16
0
0
0
-16
-16
-16
-16
-16
-16
-16
-16
-16
-32
-32
-32
-16
0
16
16
0
16
16
-16
-48
-48
-48
-32
-16
-16
-16
-16
-32
-48
-32
-32
0
32
48
48
32
32
16
-16
-32
-32
-32
-32
-16
-16
-32
-32
-32
-48
-48
-32
0
32
32
32
32
16
0
-16
-16
-16
-16
-32
-16
-16
-16
-16
-16
-32
-16
-16
-16
0
0
16
32
16
-16
-16
0
-16
-16
-32
-48
-48
-32
-32
-16
-16
0
0
16
0
0
16
16
0
-16
-16
0
0
-16
-16
-32
-16
0
0
0
-16
0
-16
-16
-16
-32
0
0
0
-16
-32
-32
-32
-32
-32
-32
-16
-32
-32
-32
-32
-32
-16
0
0
16
32
16
0
-16
-16
0
-16
-32
-32
-16
-16
-16
-16
-16
-32
-16
0
16
32
16
16
16
16
0
-16
-16
-32
-48
-48
-48
-48
-48
-32
-16
-16
0
16
32
32
32
16
0
0
-32
-48
-48
-48
-48
-32
-16
0
0
-16
-16
-16
0
32
32
32
32
16
32
48
32
16
16
0
-16
-16
-16
-16
-16
-16
-16
-16
-32
-32
-32
-16
-32
-16
16
32
16
-16
-16
-16
0
16
32
32
16
0
-16
-16
0
16
32
32
32
32
48
32
0
-16
0
-16
-16
0
0
-16
-16
-16
-32
-64
-64
-48
-32
-32
-32
-16
-16
0
0
-32
-32
-16
16
32
16
-16
-48
-48
-48
-64
-64
-48
-16
0
16
80
96
64
48
-32
-80
-64
-32
-64
-80
-80
-80
-64
-48
-48
-16
16
48
48
48
16
-16
-16
16
32
32
16
16
0
-32
-80
-80
-80
-64
-48
-48
-32
0
32
32
32
16
0
0
-16
-32
-32
-32
-48
-32
-16
-16
-32
-32
-32
-16
16
48
64
48
32
16
-16
-48
-48
-32
-32
-48
-64
-64
-48
-16
-16
-16
-32
-48
-32
-16
0
16
0
-16
0
0
0
32
16
0
-16
0
0
0
0
32
32
0
0
-16
-48
-48
16
48
48
32
-32
-32
0
-16
-32
-32
-16
0
0
-16
-16
0
16
32
16
-16
-48
-48
-16
-16
-16
0
0
-32
-48
-48
-48
-16
0
-16
-32
-16
0
-16
-16
0
0
0
0
0
-16
0
16
-16
-64
-48
-32
0
-16
-32
-32
-16
-16
0
16
32
48
48
32
-16
-64
-80
-64
-48
0
16
48
32
-16
-64
-64
-48
-32
-16
0
16
16
32
0
-32
0
16
-16
-16
-16
-64
-64
-48
-32
0
16
0
0
0
16
48
64
48
32
16
0
-32
-64
-64
-16
32
32
16
16
32
16
-16
-16
16
0
-16
-32
-16
0
-32
-32
-48
-64
-64
-48
-32
-16
16
48
64
48
32
32
32
0
-32
-32
-48
-32
-16
-16
-32
-32
-48
-80
-48
-48
-48
-16
0
-16
-32
-16
0
0
16
16
16
16
16
0
-16
0
0
-16
-16
-48
-48
0
0
-32
-32
0
32
32
-16
0
16
32
32
16
16
32
16
-32
-80
-96
-80
-64
-48
-48
-48
-16
0
32
80
96
96
64
48
16
-32
-32
-32
-32
-48
-32
-48
-48
-64
-64
-48
-16
0
48
64
80
64
16
16
0
0
0
-16
-16
-16
0
-16
-80
-80
-64
-16
0
-16
16
48
48
32
16
16
-16
-32
-16
0
0
0
0
-16
-32
-16
-32
-32
-48
-32
0
16
16
0
0
0
0
32
64
80
80
64
48
32
-32
-64
-80
-80
-32
-16
-16
-16
-16
0
16
0
-16
-16
-16
0
0
0
-16
-16
0
0
0
-16
-16
0
-16
-16
-16
16
32
16
0
-16
-16
0
0
0
0
16
0
0
-16
-16
-16
0
0
-16
-16
16
32
16
0
-16
-32
-48
-48
-48
-32
-48
-48
-48
-16
0
16
32
48
32
16
0
16
16
32
16
0
-16
-32
-64
-64
-48
-48
-16
-16
-16
-16
0
32
32
32
16
16
16
0
0
0
0
-16
-32
-48
-48
-16
-16
0
-16
-16
0
16
16
16
16
16
16
0
-16
-16
-16
-32
-32
-32
-32
-32
-32
-16
-16
0
16
0
16
16
32
16
0
-16
-64
-80
-80
-64
-48
-48
-48
-16
-16
-16
-16
0
0
-16
-16
0
16
16
0
-32
-64
-48
-48
-48
-16
16
32
32
16
0
0
0
16
16
16
16
0
16
0
0
-16
-32
-32
-48
-48
-48
-48
-32
-32
-32
-48
-48
-32
-16
-16
-32
-32
-32
-32
0
32
48
32
0
-16
0
0
0
0
-16
-32
-32
-16
0
16
16
32
32
32
32
32
32
16
16
0
-16
-32
-16
-16
-16
-32
-32
-16
16
16
16
32
32
32
32
0
-16
-16
-16
-16
-16
-32
-32
-16
-32
-48
-32
-32
0
0
16
32
32
48
16
-32
-48
-48
-16
-16
-16
-16
-16
0
0
0
16
16
0
16
0
-16
-16
-32
-48
-80
-64
-32
-16
16
16
0
-16
-16
-16
-32
-16
0
0
16
16
16
16
0
-16
-32
-32
-16
0
0
-16
-16
-16
-16
-16
0
0
16
32
32
32
32
32
0
-16
-16
-16
-16
-32
-48
-64
-64
-64
-48
-48
-32
-32
0
16
48
64
80
64
16
16
16
16
0
-16
-32
-48
-32
-16
-16
-16
-16
-16
0
16
16
16
32
32
32
16
-16
-32
-48
-64
-64
-64
-64
-32
-16
-16
-32
-32
-16
0
16
16
16
16
16
16
-16
0
0
-16
-16
-16
0
0
0
-16
-48
-32
-16
16
32
16
16
16
32
16
-16
-16
-16
-16
-16
0
0
0
0
0
0
0
16
16
16
0
-16
0
16
16
-16
-16
-16
-16
-16
-16
-16
-16
-32
-16
-32
-48
-48
-48
-48
-32
-16
0
16
16
16
16
32
16
16
0
0
0
0
0
16
16
16
32
16
16
16
16
16
0
-16
-16
-16
-16
0
0
-16
-16
-16
0
0
0
-16
-16
-16
-16
-16
-16
-32
-48
-32
-16
0
0
16
16
16
0
-16
-16
-16
0
16
32
48
32
32
32
-16
-32
-32
-48
-32
0
16
16
0
-16
-16
-16
0
0
0
16
32
32
32
32
16
0
-16
-32
-32
-48
-48
-48
-32
-32
-16
-16
-16
0
0
16
32
32
32
32
32
0
-16
-16
0
-16
-32
-16
-32
-32
-32
-32
-48
-32
-16
0
0
16
32
32
48
32
0
-16
-32
-64
-80
-80
-80
-48
-16
0
0
16
16
16
16
32
32
32
32
32
16
0
-16
-32
-32
-32
-16
-16
-32
-32
-48
-48
-32
-16
0
16
16
16
16
0
-16
-16
-32
-32
-32
-16
0
0
-16
-32
-16
-16
-16
16
16
16
32
32
16
0
0
0
-16
-16
-16
-16
-16
-16
-16
0
0
-16
-16
0
0
0
16
16
16
0
0
0
0
16
-16
-32
-32
-32
-32
-32
-48
-64
-32
0
16
16
16
0
-16
0
0
0
0
-16
-32
-32
-32
-16
0
0
-16
-16
0
0
0
-16
-16
0
16
32
16
0
-16
-16
-32
-32
-48
-32
-16
-16
-16
-16
-16
0
16
16
16
16
16
0
-16
-32
-32
-32
-32
-16
-16
-16
-16
-16
-16
-16
0
0
16
16
16
16
16
16
16
0
-32
-32
-16
-16
-32
-32
-32
-16
0
0
16
16
32
32
32
32
32
0
-32
-48
-32
-16
-16
-16
-16
0
-16
0
0
-16
0
16
16
32
32
32
32
16
16
0
0
0
-16
-16
-16
-32
-48
-64
-64
-64
-48
-32
0
16
32
48
32
32
0
0
16
16
16
0
0
0
0
-16
-32
-32
-16
-16
-16
0
16
32
32
32
16
0
0
0
-16
-32
-48
-48
-48
-64
-64
-48
-16
0
16
16
16
16
16
16
16
0
-16
-16
-16
-32
-32
-16
0
0
0
0
-16
0
16
16
16
16
0
0
-16
-32
-48
-48
-32
-16
-32
-32
-32
-16
-16
-16
0
0
32
32
16
16
16
0
-16
-16
-32
-32
-48
-32
-32
-16
0
0
0
-16
-16
0
16
0
0
16
0
-16
-48
-64
-32
-32
-32
-16
0
16
16
16
0
-32
-32
-16
-16
-16
0
0
16
32
16
0
0
0
0
-16
-16
-16
-16
-16
-32
-32
-16
0
0
0
0
16
16
16
-16
-32
-16
-16
-32
-32
-48
-32
-16
-16
-16
-16
0
16
16
16
16
16
0
-16
0
-16
-48
-48
-32
0
0
0
-16
-16
-16
-16
0
0
0
16
0
0
0
0
16
16
0
-16
-16
-32
-32
-48
-48
-32
-16
-16
-16
16
32
32
32
16
16
0
0
-16
-16
-16
-16
-16
-16
-16
-16
-16
-16
-32
-32
-16
16
0
-16
-16
0
0
0
0
32
32
16
-16
-16
-32
-32
-32
-32
-32
-48
-32
-16
0
16
32
32
16
0
0
16
32
0
-16
-16
-32
-16
-16
-32
-80
-80
-48
-32
0
32
32
16
0
-16
-48
-48
-32
-16
-16
0
0
0
0
0
0
0
0
0
16
32
32
32
16
0
-16
-32
-32
-32
-16
-16
-16
-32
-32
-32
-32
-32
0
16
32
32
32
32
48
16
-16
-48
-48
-48
-48
-48
-32
-32
-16
0
16
32
32
16
0
0
0
16
16
16
0
-16
-32
-32
-32
-32
-48
-32
-32
-32
-16
0
0
16
16
0
16
16
16
0
0
16
16
0
-16
-32
-32
-16
-16
-32
-16
-16
-16
0
0
0
16
16
0
0
0
0
16
0
0
-16
-16
-16
-32
-48
-48
-48
-32
-16
0
16
32
32
16
-16
-32
-32
-16
-16
-16
-16
-16
0
0
0
-16
-32
-16
0
16
16
16
16
0
-16
0
0
-16
-16
-16
0
-16
0
0
-16
-32
-32
-16
0
-16
-16
-16
0
0
-16
-16
0
0
-16
-16
-16
0
0
16
16
0
0
16
32
32
16
32
16
16
16
0
0
-16
-16
-32
-32
-32
-48
-48
-48
-48
-32
0
32
32
32
32
32
32
16
0
-16
-16
-16
-16
0
-16
-32
-32
-16
-16
-16
-16
0
16
0
16
16
0
0
0
-16
0
16
16
16
16
32
32
16
16
16
-16
-16
-16
-32
-16
-32
-48
-64
-80
-80
-48
-32
0
16
32
64
64
32
0
0
0
16
16
0
0
-16
-16
-32
-48
-48
-32
-16
0
16
16
16
0
-16
-16
-16
-16
-16
0
16
16
16
16
0
-16
-16
-16
-16
0
0
0
0
16
0
0
-16
-16
-16
-32
-16
0
0
16
16
16
16
16
32
16
0
0
0
16
0
-16
-16
-16
-32
-32
-32
-32
-32
-16
0
0
0
16
32
48
48
16
0
0
0
0
0
0
0
-16
-16
-32
-32
-32
-32
-32
-48
-32
-16
0
0
0
0
0
0
-16
-16
0
16
16
0
-32
-32
-48
-48
-48
-48
-16
0
16
32
32
16
16
0
-32
-48
-64
-48
-48
-48
-48
-32
-16
-16
-16
-16
0
-16
0
0
-16
16
16
16
0
0
0
0
-16
-32
-16
-32
-48
-48
-32
-32
-16
16
16
16
32
48
48
32
0
-16
-16
-16
-32
-32
-32
-32
-32
-32
-48
-48
-32
-16
0
0
16
32
48
16
16
0
0
0
-16
-32
-32
-32
-48
-48
-48
-48
-16
0
16
16
16
16
16
0
-16
-32
-16
0
0
-16
-16
-16
-32
-32
-48
-48
-32
-16
0
32
48
32
0
0
-16
-16
-16
-16
-16
-16
-32
-32
-16
0
0
-16
0
16
16
0
0
0
0
0
0
-16
-16
-16
-16
-16
-16
-16
0
-16
-32
-48
-48
-32
-16
-16
0
16
32
32
32
0
-32
-32
-48
-32
-32
-32
0
16
0
0
-16
-16
0
-16
0
32
32
16
0
-16
-16
-32
-32
-48
-48
-32
-32
-16
-16
-16
-16
0
16
16
16
16
16
0
-16
-32
-16
-16
-16
-16
-16
-16
-16
-16
0
0
16
0
0
16
0
-16
-16
-16
-32
-32
-16
0
0
-16
-16
-16
-16
0
0
0
16
16
32
32
0
-16
-16
-16
-32
-32
-16
0
0
0
0
0
-16
-16
-16
-16
0
0
0
-32
-16
0
0
-16
-32
-48
-64
-64
-48
-48
-32
-32
-16
-16
-16
-48
-48
-32
-16
0
32
48
48
32
32
0
-16
-16
-16
-16
-32
-32
-32
-32
-32
-32
-32
-16
0
0
16
32
48
48
32
0
-16
-16
-32
-32
-16
0
0
-32
-32
-32
-16
-16
0
16
16
16
16
16
16
16
0
0
0
0
0
-16
-16
-32
-32
-32
-16
0
16
16
0
-16
-16
0
0
-16
0
0
0
-16
-16
-32
-32
-32
-16
-32
-32
-16
0
0
-16
-16
-16
0
16
-16
-16
-16
-32
-16
0
-16
-32
-32
-32
-48
-32
0
32
32
16
0
0
-16
-16
-32
-16
-16
0
-16
-32
-64
-64
-48
-48
-64
-64
-32
16
64
48
32
32
32
32
0
-16
-16
-16
-16
-16
-16
0
0
-16
-16
0
0
0
16
16
16
32
16
0
-16
-16
-32
-32
-32
-48
-32
-16
-16
-32
-16
-16
-16
0
0
16
48
32
16
-16
-16
-32
-32
-32
-32
-16
0
16
0
0
0
0
0
0
-16
-16
-16
0
0
-16
-32
-32
-16
-16
-16
0
-16
0
0
0
0
0
0
16
16
0
0
16
-16
-32
-48
-48
-48
-16
-16
0
0
-16
-32
-16
-16
-16
16
16
16
16
16
16
16
16
0
-16
-16
0
-16
-16
-32
-32
-16
-16
-32
-32
-16
0
0
0
16
48
48
32
0
0
-16
-32
-48
-48
-32
-32
-16
-16
-16
-16
-16
0
0
16
32
32
32
32
16
16
-16
-32
-48
-64
-64
-32
-16
-16
-32
-32
-16
-16
-16
0
32
32
16
32
16
0
0
-16
-16
-32
-32
-16
-16
-32
-32
-32
-16
16
32
32
16
0
0
-16
-16
-16
-16
0
0
0
-16
-32
-32
-32
-16
-16
0
16
16
16
16
0
0
0
-16
-16
-16
-32
-32
-32
-32
-32
-32
-16
-16
-16
16
32
16
0
0
0
0
-16
-32
-32
-16
-16
-16
-16
-16
-16
-16
16
0
0
0
0
0
0
-16
-16
0
0
-16
-16
0
-16
-16
-16
-16
0
0
0
0
-16
-32
-16
0
0
16
32
32
32
0
-32
-16
-16
-32
-32
-32
-32
-16
-16
-32
-32
-16
0
16
32
32
32
16
0
-32
-48
-48
-32
-48
-32
-32
0
0
0
-32
-32
-16
16
32
32
32
16
16
16
0
-16
-16
0
-16
-16
-32
-32
-32
-32
-32
-48
-32
-32
-48
-48
-48
-16
0
0
0
32
32
16
0
-16
-16
0
-16
-16
-16
-16
-16
0
16
16
16
16
0
0
0
0
0
16
16
16
0
-16
-32
-32
-16
-16
-32
-16
0
16
0
16
32
16
0
0
0
-16
-16
-16
-16
-16
-32
-32
-16
-16
-16
0
32
32
48
48
32
0
-16
-32
-48
-48
-48
-32
-32
-32
-32
-32
-32
-32
-16
0
16
32
32
16
16
0
-16
-32
-32
-48
-48
-48
-48
-48
-48
-64
-64
-48
-32
-32
-16
-16
16
32
48
48
32
0
-32
-48
-48
-48
-48
-32
-16
0
0
0
0
16
32
32
32
32
32
32
16
0
-16
-16
-16
-32
-48
-32
0
0
0
-16
-16
0
16
16
32
32
32
16
0
-32
-32
-16
-16
-16
-16
0
16
16
0
-16
-16
0
16
16
0
16
16
16
0
-16
-16
0
0
0
0
-16
-16
-16
-16
-16
-16
-16
0
0
-16
-32
-32
-32
-32
-32
0
0
0
0
0
-16
-48
-64
-64
-48
-32
-16
0
16
32
32
32
16
16
0
0
0
0
0
0
-16
-32
-32
-32
-32
-16
0
16
16
16
16
0
0
-16
-16
-16
0
-16
-16
-16
-16
-16
-16
-16
-16
0
0
0
0
16
16
16
0
-16
0
0
0
-32
-32
-32
-16
0
0
0
-32
-16
0
0
0
0
0
0
0
-16
-32
-16
0
-16
-16
-16
-16
0
0
0
-32
-32
-16
0
0
0
0
-16
-16
-32
-64
-64
-48
-32
-32
-32
-16
0
0
0
-16
-16
0
16
16
16
16
16
16
16
0
-32
-48
-48
-48
-32
-32
-16
0
16
0
0
0
16
16
16
16
32
16
16
0
-16
-32
-32
-48
-64
-48
-64
-48
-16
0
16
16
32
32
32
32
32
32
16
16
0
-16
-16
-32
-32
-48
-64
-64
-64
-48
-16
16
32
16
16
32
32
32
16
0
0
0
-16
-16
-48
-48
-80
-80
-80
-64
-16
16
32
32
32
32
16
16
0
-16
0
16
16
0
0
0
-16
-48
-64
-80
-80
-48
-16
0
0
32
16
0
-16
-32
-32
-16
0
0
0
0
16
16
16
0
-32
-16
0
0
16
16
16
16
0
-32
-32
-16
-16
-16
-16
0
16
16
16
0
-32
-32
-16
0
0
0
0
-16
-32
-48
-64
-48
-32
-32
-16
0
32
48
32
16
16
0
0
16
16
16
16
16
0
-16
-32
-16
-16
-16
-32
-32
-16
-16
-32
-16
-16
-16
0
16
16
16
16
16
0
-32
-48
-48
-32
-32
-32
-32
-16
-32
-32
-32
-32
0
16
16
16
32
32
32
32
16
16
0
0
-16
-16
-48
-64
-64
-32
-32
-16
16
16
16
32
32
32
32
16
0
-16
-16
-32
-32
-32
-32
-16
-16
-16
-32
-32
-16
0
16
16
0
-16
-16
-16
-16
-16
-16
-16
16
16
0
-16
-16
-16
-16
-16
0
0
0
16
16
16
16
0
0
0
0
0
-16
-16
-16
-16
-32
-32
-32
-48
-48
-48
-32
-32
-16
-16
0
16
32
32
16
0
-16
0
-16
-16
-16
-16
-16
-32
-16
0
16
32
32
32
32
16
0
-16
-16
0
-16
-32
-32
-32
-32
-32
-32
-32
-16
0
16
16
16
32
32
16
0
-16
-16
-32
-48
-48
-32
-16
-16
-16
-16
-32
0
16
32
32
32
16
0
-16
-48
-80
-64
-48
-48
-16
-16
0
0
0
0
0
0
0
16
32
16
16
16
-16
-32
-48
-32
-16
-16
-16
-16
-32
-48
-32
-32
-16
-16
0
0
16
0
0
0
0
-16
-32
-16
0
-16
0
-16
-16
-16
0
-16
-32
-16
-16
0
0
16
32
48
48
16
0
0
16
0
-16
-32
-32
-32
-16
-16
-16
0
16
0
0
16
32
32
16
0
0
0
-16
-48
-48
-48
-48
-48
-48
-48
-48
-48
-16
0
32
48
48
64
48
32
16
0
-16
-32
-48
-32
-16
0
0
-16
-16
16
16
0
0
0
16
16
0
-16
-32
-48
-64
-64
-48
-32
-32
-16
0
-16
-48
-32
-16
0
0
0
0
0
0
0
0
0
16
16
0
0
0
0
0
-16
-16
0
16
16
-16
-16
-16
-16
-32
-48
-32
-32
-16
-16
-16
-32
-32
-32
-16
-16
-16
16
32
48
32
16
0
0
-16
0
0
0
0
0
0
-16
-32
-32
-32
-32
-32
-16
0
16
16
16
32
16
0
-16
-16
-32
-32
-32
-32
-32
-32
-32
-32
-32
-32
-16
0
0
16
16
16
16
16
0
-16
-32
-32
-16
0
-16
-32
-32
-16
-16
-32
-32
-16
-16
-16
0
16
0
0
0
16
0
-32
-32
-32
-16
0
-16
-32
-48
-64
-48
-32
-32
-32
-16
16
32
32
16
0
0
0
0
-16
0
-16
-16
0
-16
-16
-16
0
0
16
16
16
32
16
-16
-16
0
0
-16
-16
-32
-32
-32
-32
-32
-32
-16
0
16
32
16
16
32
16
0
-48
-32
-16
0
-16
-16
-32
-16
0
0
0
0
0
16
48
32
16
16
0
-16
-48
-48
-32
-32
-48
-64
-48
-48
-32
-16
0
0
-16
16
16
32
48
48
32
16
-16
-16
-16
-16
-16
-32
-32
-48
-32
-32
-32
-16
0
16
32
32
32
16
0
0
0
-16
-16
-16
-32
-32
-32
-32
-32
-32
-32
-16
16
16
0
0
16
16
16
0
0
0
0
-16
0
0
-16
-32
-32
-16
-32
-16
0
0
0
16
16
16
0
0
-16
-16
-16
-16
0
-16
-16
-16
-32
-48
-64
-64
-32
-16
-16
-16
-16
-16
-32
-16
-16
-16
0
0
-16
0
16
16
16
16
0
0
0
16
16
32
32
32
32
16
-16
-16
-16
-32
-32
-16
-16
-16
-16
-32
-48
-48
-16
0
16
16
32
32
16
16
-16
-16
-16
-16
-32
-32
-16
0
0
0
-16
-16
-16
16
32
32
16
32
32
16
-32
-48
-48
-32
-32
-32
-32
-32
-32
-16
0
0
0
0
16
16
16
32
16
16
-16
-32
-32
-32
-32
-32
-32
0
0
0
0
-16
-16
-16
-32
-32
-32
-16
-16
-16
-16
0
16
0
-16
0
0
0
-16
-16
-16
-32
-16
0
-16
-16
16
32
32
32
16
16
0
-16
-32
-16
-16
-16
-32
-32
-48
-32
-16
0
16
16
32
32
0
-16
-16
-16
-16
-16
0
16
0
-16
-48
-48
-48
-32
0
16
32
32
48
32
32
16
-16
-32
-32
-32
-16
-16
-16
-16
-16
-16
-16
-16
0
16
32
32
16
16
0
-32
-48
-48
-48
-32
-32
-32
-48
-32
-16
0
-16
-16
-16
0
0
-16
-16
0
0
16
0
-16
-16
-16
-32
-32
-32
-32
-16
0
-16
-16
-16
16
16
0
0
0
16
16
0
-16
-16
-32
-64
-96
-96
-80
-48
-32
-16
0
16
16
16
16
0
0
16
16
-16
-32
-32
-32
-48
-32
-16
0
0
-16
-32
-16
0
16
16
16
32
16
32
16
0
-16
-16
-16
-32
-32
-32
-32
-32
-32
-48
-16
0
-16
0
16
16
16
16
0
-16
-16
0
-16
-16
-16
-16
-16
-16
-16
-32
-32
-16
0
16
16
32
32
16
-16
-48
-48
-48
-48
-32
-16
0
16
16
16
0
-32
-16
0
16
16
32
16
16
16
0
-16
-16
-16
-32
-32
-48
-48
-48
-32
-16
0
0
16
32
32
32
16
16
0
-16
-32
-32
-16
-16
-16
0
0
-16
-16
0
0
0
16
0
0
16
0
0
0
16
0
0
-16
-16
16
0
-16
-16
-32
-32
-32
-16
0
0
0
0
32
32
32
16
16
0
0
-16
32
16
0
0
0
-16
-16
0
16
16
-16
-32
-32
-32
-16
-32
-48
-32
-16
0
0
16
16
16
16
0
-16
0
0
-16
-16
-16
-16
-16
-16
-16
-16
-16
-16
-16
0
0
16
16
16
16
0
-16
-16
-32
-32
-32
-16
-16
16
16
-16
-16
-16
0
16
16
32
32
16
0
-32
-48
-32
-16
0
0
0
16
-16
-32
-32
-32
0
0
-16
-16
0
16
0
-32
-48
-32
-32
-32
-32
-16
0
16
16
16
0
0
0
0
16
16
16
32
16
-16
-32
-32
-32
-32
-48
-32
0
0
-16
-32
-32
-32
-16
0
0
0
16
32
16
0
0
0
-16
-16
-32
-32
-16
-32
-32
-32
-32
-32
-32
0
16
32
48
32
32
32
0
0
0
-16
-32
-32
-48
-48
-32
-48
-48
-32
-32
0
16
0
-16
-32
-16
0
-16
-16
-32
-16
0
0
-32
-32
-32
-16
-16
-16
0
16
16
16
16
16
32
32
16
-16
-16
0
0
-16
-32
-32
-16
-16
-32
-16
0
16
16
0
0
-16
-16
-16
-32
-32
-32
-32
-32
-16
0
0
0
0
0
0
32
32
32
32
32
48
32
16
0
-16
-16
-32
-48
-48
-48
-32
-32
-32
-48
-32
0
16
16
16
16
0
0
-16
-32
-16
0
0
-32
-32
-16
-16
-16
-32
-64
-48
-16
-16
-16
-16
-16
0
0
0
-16
16
32
16
0
-16
-32
-16
-32
-32
-32
-32
-16
0
16
16
16
16
16
0
-16
-16
-16
-16
0
-32
-32
-16
0
0
0
-16
-16
0
16
16
16
16
16
0
-16
-16
-32
-32
-16
-16
-32
-16
0
0
0
0
16
32
48
32
32
32
16
-16
-32
-32
-48
-48
-48
-48
-48
-32
-16
-16
-16
-32
-16
16
32
32
48
48
32
0
-48
-64
-80
-64
-48
-32
-48
-48
-32
-16
-32
-32
0
16
32
32
16
32
48
32
0
0
0
-16
-16
-16
-16
-16
-32
-32
-32
-32
-32
-16
-16
0
16
16
16
32
16
16
0
0
-16
-16
-16
-16
-16
-16
-16
-16
-16
-16
-16
0
16
16
32
16
16
16
0
-16
-32
-32
-32
-32
-32
-48
-32
0
0
-16
-16
0
16
16
0
0
0
0
0
0
0
0
0
0
-16
-16
-16
0
16
16
16
-16
-16
-32
-48
-64
-80
-64
-32
-16
0
16
16
0
-16
-32
-32
-32
0
16
32
16
16
32
32
16
-16
-16
-16
-16
-16
0
0
0
-16
0
-16
-32
0
16
32
32
16
16
16
16
0
-16
-16
-32
-32
-32
-32
-32
-32
0
-16
-32
-16
0
16
32
48
48
48
32
16
0
-16
-32
-48
-64
-48
-48
-32
-32
-32
-32
-32
-16
-16
-16
0
0
0
0
-16
0
16
16
0
-16
-48
-48
-48
-48
-48
-48
-16
16
48
32
32
16
0
0
-16
-32
-32
-32
-32
-32
-32
-32
-32
-32
-48
-48
-32
-16
0
16
48
64
48
32
0
-16
-16
-16
-16
0
0
-16
-16
-16
-16
-16
0
16
32
32
32
32
32
32
16
-16
-32
-32
-32
-32
-32
-32
-16
-16
0
-16
-16
0
0
16
32
48
48
32
16
-16
-32
-32
-48
-32
-32
-32
-32
-32
-32
-16
0
0
16
16
0
0
0
-16
-16
-32
-16
-16
0
0
-16
0
0
0
0
-16
0
0
0
-16
-32
-16
-16
-16
0
0
0
0
-16
-48
-48
-48
-64
-48
-48
-32
-16
0
48
64
48
32
16
0
-16
-32
-32
-48
-32
16
32
0
-16
0
0
-16
-16
0
32
32
16
16
16
16
0
0
-16
-16
-16
-32
-32
-16
-32
-16
-16
-16
-16
-16
0
16
16
16
0
-16
-32
-48
-48
-48
-32
-16
16
0
-16
-16
-16
-16
-32
-16
0
16
32
32
32
16
0
-16
-16
-16
-16
-32
-32
-16
0
-16
-32
-48
-48
-32
-32
-32
0
16
16
16
0
0
0
-16
-32
-48
-64
-64
-32
-16
-16
-16
0
0
0
16
32
32
32
32
16
0
-16
-16
-16
-32
-16
0
-16
-16
-16
-32
-16
0
16
0
0
16
16
16
0
-16
-16
-16
-16
-32
-48
-48
-48
-32
-32
-48
-16
16
32
16
0
16
32
16
0
-16
-16
-16
-32
-48
-48
-32
-48
-48
-32
-16
0
16
32
16
0
0
0
-16
-32
-48
-32
-16
-16
-16
0
0
0
0
-16
-16
-16
-16
0
0
0
-16
0
0
-16
0
0
16
0
-16
-48
-48
-32
-48
-64
-64
-48
-32
-16
0
16
48
48
32
16
-16
-16
0
0
0
16
0
0
0
-16
-48
-48
-48
-32
0
16
32
48
48
32
0
-16
0
0
0
-16
-16
-16
-32
-48
-64
-48
-48
-32
0
16
32
32
16
0
-16
-16
-32
-32
-32
-16
0
0
0
16
16
-16
-16
0
0
0
0
0
0
0
-16
-16
-16
-32
-32
-16
-16
-16
0
16
16
16
16
16
16
0
-16
-32
-48
-48
-80
-80
-64
-48
-32
0
16
0
0
32
32
16
32
16
16
0
-16
-32
-32
-16
-32
-32
-16
0
0
-16
-32
-32
-32
-32
-32
-32
0
0
16
16
16
32
32
32
0
0
0
0
-32
-48
-32
-32
-32
-48
-48
-16
0
16
32
32
16
16
16
0
0
0
-16
-16
-16
-16
-32
-16
-16
-32
-48
-48
-32
0
32
32
32
48
48
32
16
16
0
-16
-32
-48
-48
-32
-32
-32
-32
-32
-16
0
0
0
16
16
16
0
0
-16
-48
-80
-80
-64
-64
-64
-32
0
0
16
32
32
16
16
16
32
32
16
-16
-32
-32
-32
-32
-32
-32
-48
-32
-16
-32
-16
-16
0
-16
0
32
16
16
16
0
-16
-16
-16
-16
-16
-16
-16
-16
-16
-16
-16
0
16
32
16
16
16
16
0
-16
-16
0
0
0
0
0
-16
-16
-16
-16
-32
-16
0
16
16
16
16
0
-16
-32
-16
0
-16
-32
-32
-32
-32
-48
-48
-32
-16
0
0
-16
-16
-16
0
-16
-16
-32
-32
-32
-32
-48
-64
-64
-32
0
0
0
-16
0
32
32
48
48
48
16
0
-16
-48
-32
-16
-16
-16
-16
-16
-32
-48
-48
-32
0
16
16
16
16
16
16
0
-16
-32
-32
-16
0
0
-16
0
-16
-16
-32
-32
-32
-16
-16
16
32
32
32
16
0
-16
-16
0
0
0
0
0
-16
-32
-64
-80
-80
-64
-48
-32
-16
0
48
64
48
32
0
0
0
0
0
-16
-32
-32
-48
-48
-48
-64
-64
-48
-32
0
16
16
0
16
16
0
-16
-32
-32
-16
-16
0
-16
-16
-16
0
16
16
16
16
16
16
0
-16
-16
-32
-32
-16
-16
-16
-16
0
0
0
0
16
32
16
0
-16
-16
-32
-48
-32
-32
-16
-16
-16
-32
-16
-16
-16
0
16
48
96
80
48
32
16
-32
-48
-64
-64
-48
-48
-48
-32
-16
-32
-16
0
0
-16
0
32
32
32
0
-16
-16
-32
-16
-16
-16
-16
0
0
0
-16
-16
-16
-16
-16
16
32
32
32
32
16
16
0
-16
-16
0
-16
-32
-32
-32
-16
-32
-32
-16
-16
-32
-32
-32
-16
0
16
32
64
48
0
16
16
0
-16
-16
-16
-16
-16
-16
-32
-32
-32
-16
0
16
32
48
48
32
0
-16
-32
-48
-48
-48
-48
-64
-64
-48
-48
-32
0
32
48
48
48
48
32
16
-16
-16
-16
-16
-32
-32
-32
-16
-16
-32
-48
-32
-16
16
32
48
64
48
0
0
-16
-32
-32
-32
-32
-16
-16
-16
-16
-32
-32
0
32
32
16
0
16
16
-16
-32
-16
-16
-32
-32
-32
-32
-32
-16
-16
-16
-16
0
16
16
0
0
0
0
-16
-32
-48
-48
-32
-16
-16
-16
0
16
16
16
-16
-16
-16
-16
-32
-16
0
0
16
16
0
16
0
-16
-16
-32
-32
-32
-32
-32
-48
-16
-16
-16
16
32
32
32
16
0
-32
-32
-32
-32
-32
-32
-32
-16
-16
-16
-16
-16
-16
16
32
32
48
32
32
16
-16
0
0
0
-16
-16
-32
-32
-32
-32
-32
-32
-16
0
16
16
16
16
0
0
-16
-16
-16
-32
-32
-32
-32
-16
-32
-32
-16
-16
0
32
32
16
16
0
-16
-32
-32
-32
-16
-16
0
16
0
-16
-16
0
-16
-32
-32
-16
-16
-16
-16
-32
0
-16
-16
-16
-16
-16
-32
-32
-32
-32
-16
0
-16
-16
0
16
16
16
32
32
32
0
-16
-16
-16
-16
-32
-32
-32
-32
-32
-32
-48
-48
-16
-16
-16
16
64
64
48
32
0
0
0
-16
-32
-48
-48
-48
-32
-32
-32
-16
0
0
0
0
16
32
32
32
0
-16
-16
-16
-16
-16
-32
-32
-32
-32
-32
-16
16
16
16
0
0
0
-16
-16
-32
-32
-16
-16
-16
-16
-16
-16
-32
-32
-32
-32
0
16
16
0
-16
-32
-32
-32
-32
-16
0
0
-16
0
0
0
-16
0
-16
-16
16
32
32
16
0
16
0
-32
-48
-48
-64
-64
-48
-16
0
0
0
-16
-32
-48
-32
16
32
16
32
32
16
0
-32
-32
-32
-32
0
0
0
0
0
0
-16
0
0
0
16
16
16
32
32
32
0
-16
-32
-32
-32
-32
-32
-32
-32
-32
-32
-32
-16
0
16
16
16
48
48
32
16
0
0
0
-16
-48
-48
-32
-32
-32
-32
-32
-32
-16
0
16
16
16
32
32
0
-16
-16
-32
-48
-64
-64
-48
-32
-32
-32
-32
0
0
0
16
16
48
32
0
0
0
16
0
-32
-48
-32
-32
-32
-16
-16
-16
0
16
16
16
32
16
0
-16
-16
-16
-16
-16
-16
-16
-32
-48
-32
-32
-16
-16
0
32
32
32
16
0
0
-16
-16
-16
-16
-32
-32
-16
0
0
0
-16
-16
-16
0
16
16
16
0
-16
-16
-16
-32
-32
-32
-16
0
0
0
-16
-16
-48
-64
-64
-48
-48
-32
-16
0
-16
-16
-16
-32
-32
-16
0
0
16
16
16
0
0
-16
-16
-16
-16
-32
-16
16
32
16
16
-16
-16
-32
-16
-16
-32
-32
-16
-16
0
0
-16
-16
0
0
0
16
0
16
32
0
-16
-16
-16
-16
-16
-32
-32
-32
-16
-16
-32
-32
0
16
0
16
48
48
64
32
16
0
-16
-48
-64
-64
-48
-48
-48
-32
-48
-32
-16
0
16
16
32
64
32
16
0
0
-32
-48
-48
-48
-32
-16
-16
-16
-32
0
32
32
16
16
32
16
0
-16
-16
-16
-16
-32
-32
-32
-16
-16
-16
-16
-16
0
16
16
16
16
32
16
-32
-64
-64
-32
-32
-32
-16
-32
-16
-16
0
0
-16
0
16
16
-16
-16
16
16
16
0
-16
-16
-32
-48
-48
-48
-32
-32
-32
-16
-16
0
16
0
0
0
0
-16
-32
0
16
16
16
0
-16
-32
-48
-48
-32
-16
-16
-16
-16
0
0
0
16
16
16
16
16
0
0
0
-16
-32
-32
-32
-32
-32
-32
0
0
16
32
32
0
-32
-32
-32
-32
-32
-16
0
0
0
0
-16
-16
-16
-32
0
0
32
48
32
16
0
0
-32
-48
-48
-32
-16
0
0
-16
-16
-32
-48
-64
-64
-48
-16
16
32
32
32
32
0
-32
-32
-32
-16
-16
0
-16
-32
-32
-48
-48
-32
-16
0
32
32
16
32
16
-16
-16
0
0
-16
-32
-32
-16
0
0
-16
-16
-16
-16
-32
-32
0
16
32
32
32
16
0
0
-16
-16
-16
-32
-16
-16
-16
-16
-16
0
16
16
16
32
16
16
0
-16
-32
-32
-48
-48
-48
-48
-32
-16
0
16
16
32
32
16
-16
-16
-16
-32
-32
-32
-48
-32
-32
-16
-16
-32
-32
-16
0
-16
0
16
48
48
32
32
16
0
-16
-32
-16
-16
-16
-16
-16
-32
-32
-32
-16
-32
-16
16
32
16
0
0
0
-16
-32
-32
-32
-32
-16
-16
-16
0
16
16
0
0
0
0
0
16
16
16
32
32
16
-16
0
0
-16
-32
-32
-16
-16
-16
-32
-32
-32
-16
-16
16
32
32
32
16
16
0
16
16
-16
-32
-32
-16
-16
-32
-48
-48
-48
-48
-48
-32
-16
-16
-32
-32
-32
-32
-48
-32
16
32
32
16
16
32
16
-16
-16
-16
0
0
-16
-32
-16
0
0
-16
-16
-16
16
16
16
16
16
0
-16
-32
-32
-32
-32
-16
-16
0
0
-16
-32
-48
-32
-16
0
16
0
0
16
0
-16
-16
-16
-32
-16
-16
0
0
-16
-32
-32
-32
-16
0
0
0
16
32
16
16
0
0
-16
-16
-16
0
-32
-32
-32
-32
-32
-32
-32
0
32
32
32
16
16
32
16
-16
-16
-16
-32
-48
-48
-32
-32
-32
-16
0
-16
-16
0
0
0
0
0
0
0
0
16
16
16
-16
-32
-48
-48
-32
-16
-16
-16
16
32
32
0
16
16
16
16
0
0
0
-16
-32
-32
-16
-16
-16
0
0
-16
-16
-16
-16
-16
0
0
-16
-32
-32
-32
-16
-16
-16
-16
0
0
0
0
-16
0
-16
-16
-16
0
16
16
16
0
-16
-16
-16
0
0
0
-16
-16
-16
-16
-32
-48
-32
-16
16
16
16
16
16
0
-32
-32
-32
-32
-32
-16
0
16
0
-16
-32
-32
-32
-32
-16
0
0
0
16
0
-16
0
0
-32
-48
-48
-48
-32
-32
-32
-16
0
16
16
16
16
16
16
48
32
0
-16
-16
-16
-16
-16
-16
-16
-16
-32
-48
-32
-16
0
16
32
32
32
16
16
0
-16
-16
-16
-16
-16
-32
-32
-16
-16
-32
-32
-16
16
16
16
32
32
32
16
0
-32
-48
-32
-32
-48
-48
-32
-32
-48
-64
-64
-32
0
16
0
16
32
16
0
-16
-16
0
0
0
0
-16
-16
-16
-16
-16
-32
-16
16
16
0
16
0
0
0
0
16
16
-16
-16
-16
-32
-48
-48
-32
-16
-16
-16
0
16
0
0
0
16
16
-16
-16
0
0
-16
-16
-16
-32
-48
-32
-16
-16
-16
0
16
32
32
16
16
0
-16
-32
-32
-32
-48
-48
-48
-32
0
0
0
-16
-32
-32
-32
-32
0
16
32
32
0
-32
-48
-48
-64
-64
-48
-32
-16
0
0
0
16
0
0
0
16
16
16
0
-16
-32
-32
-32
-32
-48
-32
-16
-16
0
-16
16
32
16
16
16
16
16
0
0
-16
-16
-16
-16
-16
0
0
0
-16
-16
-16
-16
-16
0
16
32
32
16
0
0
0
-32
-48
-32
-16
0
-16
-16
-32
-32
-48
-48
-16
0
16
16
0
-16
-32
-32
-16
-32
-48
-16
16
16
0
-16
-16
0
-16
-32
-32
-16
16
32
16
16
16
16
0
-16
-16
-16
0
0
-16
-16
-16
-16
-16
-48
-48
-16
0
0
0
16
16
16
0
-16
0
-16
-32
-16
-16
-16
0
-16
-16
-48
-32
0
16
32
48
64
48
16
-32
-32
-16
-48
-64
-48
-48
-48
-48
-32
0
0
-16
-32
-48
-16
16
48
64
48
32
16
0
-16
-32
-32
-32
-16
-32
-32
-32
-32
-16
0
0
0
16
32
32
16
0
-16
-32
-32
-32
-48
-48
-32
-32
-16
-16
-16
-16
-16
0
0
0
0
16
16
32
16
0
0
0
-32
-48
-48
-48
-48
-32
-16
-16
16
48
32
0
-16
-16
-16
-16
-48
-48
-32
-16
0
-16
-16
0
-16
-16
-16
-16
16
32
16
16
16
16
0
-16
-16
0
0
-16
-16
-32
-32
-32
-32
-32
-48
-32
-16
0
0
16
32
32
16
0
-16
-16
-16
-16
-16
-16
-16
-16
-16
-16
-32
-16
0
0
16
16
16
16
0
0
-16
-16
0
0
0
0
0
0
0
0
-32
-32
-32
-16
0
0
16
32
32
16
0
0
0
-16
-32
-32
-16
-32
-32
-48
-64
-64
-32
-16
16
16
16
16
32
16
-16
-16
-16
-16
-16
0
-16
-32
-32
-32
-32
-16
16
32
32
32
32
32
16
0
0
0
-16
-16
-32
-32
-16
-16
-32
-32
-48
-32
0
16
0
16
32
32
16
0
0
0
-16
-32
-32
-32
-32
-16
-32
-48
-48
-32
-16
0
16
32
32
32
0
-16
-16
-16
-32
-48
-64
-48
-32
-32
-16
-16
-16
-32
0
32
32
32
32
16
16
16
0
-16
-32
-48
-48
-48
-48
-16
0
16
16
16
0
-16
16
32
16
16
16
0
-16
-16
-16
-16
-32
-48
-48
-48
-32
-16
-16
-16
0
16
0
0
0
32
48
16
0
0
0
-16
-16
-16
-16
-16
-16
-16
0
-16
0
-16
0
16
16
32
32
16
-16
-32
-32
-16
-16
-16
-16
0
0
-16
-16
-16
-16
0
0
0
16
32
16
0
-16
-16
0
0
0
16
0
-16
-32
-48
-64
-64
-32
0
16
16
32
16
16
16
0
-16
-16
-16
-48
-32
-32
-16
-16
0
0
-32
-16
16
32
16
16
16
0
0
-16
-16
-16
-16
0
-16
-32
-32
-48
-48
-48
-48
-16
16
32
32
16
16
16
0
-32
-48
-32
-16
0
16
0
0
0
0
0
-32
-32
-16
0
16
32
16
16
16
0
-16
-16
-16
-32
-32
-32
-16
-16
-16
-16
-16
-16
-16
-32
-32
-16
16
32
16
0
-16
-16
-32
-32
-48
-48
-48
0
16
0
-32
-48
-16
0
16
16
64
80
48
16
-16
-32
-48
-80
-80
-64
-48
-16
32
32
16
32
32
16
-16
-32
-16
0
0
-48
-64
-80
-128
-160
-192
-160
-128
-96
-80
-48
-16
48
80
96
128
128
80
48
48
32
48
48
16
16
16
16
16
-16
-16
32
48
48
48
48
0
-16
0
-32
-48
-48
-80
-64
-48
-80
-64
0
0
-80
-128
-112
-64
-64
-64
0
16
32
32
16
0
16
16
32
48
48
48
48
32
0
-80
-128
-96
-48
-32
-48
-144
-160
-112
-80
-96
-48
32
96
96
32
16
0
-32
-32
-32
-80
-64
-48
-48
0
32
48
80
80
32
-32
-112
-144
-160
-144
-128
-176
-208
-112
-16
16
32
160
256
208
144
16
-96
-112
-112
-112
-96
-80
0
48
32
-32
-32
0
32
48
32
48
96
96
128
128
128
128
64
16
-64
-224
-272
-208
-160
-96
-80
-48
-48
-48
-80
-80
-64
-64
-48
0
-16
-48
-64
-80
-96
-80
0
32
32
48
48
-16
-64
-64
-112
-160
-256
-256
-224
-144
-48
-16
-32
0
48
48
0
-48
-64
-32
-32
-128
-160
-96
-128
-208
-304
-320
-320
-256
-144
-128
-128
-128
-112
-80
-64
-80
0
80
80
64
48
-64
-80
-128
-256
-272
-272
-256
-224
-160
-80
-96
-112
-48
32
-32
-64
-80
-32
48
80
48
-48
-112
-96
-80
-96
-112
-144
-160
-192
-224
-192
-112
-32
48
32
-80
-80
-64
-80
-112
-128
-128
-112
-80
-112
-144
-208
-176
-80
16
32
16
16
-16
0
16
-48
-64
-48
-80
-160
-208
-192
-128
-64
-64
-112
-96
-64
0
32
48
96
160
64
-64
-144
-224
-192
-80
-64
-32
48
32
32
32
16
-48
-16
80
16
-80
-48
-80
-64
16
0
-80
-128
-80
-64
-32
0
-16
0
16
0
-32
-48
-64
-64
-48
48
112
112
96
80
112
64
-64
-144
-128
-48
0
48
144
96
-16
-64
-96
-112
-96
-80
-64
-48
-64
-32
16
-16
0
16
48
144
128
0
-32
-32
0
32
48
64
64
-80
-224
-176
-64
-32
0
-32
-64
-16
-32
-64
-64
-16
-32
-16
32
48
16
16
16
-48
48
0
-96
-112
-96
-48
-32
-16
0
16
96
112
64
80
48
64
48
-48
-144
-208
-208
-176
-80
-32
64
208
80
-64
-48
48
32
0
-16
-16
16
-32
-32
80
144
144
64
-80
-160
-160
-112
-48
-128
-128
-112
-128
-96
-16
80
80
32
-80
-128
32
128
112
16
-80
-160
-96
32
160
176
48
-32
0
0
-144
-304
-144
64
32
16
32
16
32
32
48
144
144
32
-144
-304
-192
32
64
16
-48
-128
-144
-80
-48
-144
16
96
16
128
144
0
48
0
-112
-16
96
112
32
-32
-16
-96
0
112
-112
-160
-80
16
-48
176
288
176
-48
-208
-336
-144
64
128
-16
-272
-240
-128
-160
32
176
144
32
0
0
0
128
112
-80
-80
0
16
224
208
-176
-352
-320
-32
80
-32
-16
176
80
-112
-224
-288
-208
-16
48
80
128
224
112
-144
-32
32
-160
-80
-112
-208
-80
48
-32
-176
-112
-256
-208
144
336
432
464
144
-272
-160
48
288
272
208
320
240
240
48
-384
-528
-208
-352
-576
-400
0
256
368
176
32
-80
-32
176
304
176
208
64
16
-112
-272
-224
-320
-240
-80
64
208
160
32
-32
-144
-272
-336
256
608
304
0
-128
32
128
48
0
-176
-272
-368
-352
-208
-96
32
96
144
64
-48
80
432
320
-160
-320
-384
-64
96
32
80
224
448
272
-224
-496
-352
-192
-240
-336
-176
-48
-80
-48
-96
32
32
0
240
352
240
192
32
-448
-512
-256
-192
16
128
224
256
-128
-240
16
16
-16
-128
-16
432
672
768
272
-192
-192
0
-16
-128
-336
-256
32
64
-272
-496
-48
384
432
352
-16
-288
-320
-464
-112
240
288
240
64
48
192
176
-32
-208
-416
-432
-480
-192
16
80
-32
32
256
160
-32
-304
0
304
176
48
-64
-16
96
-80
0
80
96
96
64
160
432
176
-304
-448
-304
-176
-224
-384
-416
-208
208
352
192
0
-64
-176
-240
-240
256
368
176
128
96
-144
-208
-160
192
528
624
-48
-800
-592
-224
-128
128
224
128
-112
-192
-128
48
272
160
80
-48
-96
-96
-96
-96
-256
-208
-176
-32
480
1024
976
352
-816
-992
-352
-208
-192
-128
-112
128
336
112
-80
144
112
0
-272
-240
144
416
464
336
0
-416
-496
-496
-496
-256
368
544
480
0
-368
-352
-176
128
32
16
304
288
-96
-256
16
0
-256
-512
-368
-64
560
848
592
-224
-848
-640
-96
320
336
192
96
-352
-608
-336
432
560
-288
-368
96
16
48
64
144
224
192
96
16
208
304
160
-160
-688
-848
-640
256
784
496
208
-32
-208
-320
-256
-240
112
400
208
96
-112
-432
-176
32
-96
-64
-96
-160
-48
240
336
272
48
-432
-560
-208
384
672
416
96
-256
-336
-128
-80
-208
160
432
112
-64
544
768
-16
-560
-848
-720
-272
128
96
-192
-224
-80
-96
192
416
352
-80
-160
48
112
144
-64
-176
64
80
96
-16
-144
-160
-96
-176
-192
16
-144
-96
192
352
240
-32
-176
32
304
128
-80
-128
16
-160
-144
64
64
-176
-64
304
48
-336
-288
-80
-80
48
224
96
-320
-448
80
400
320
256
96
-32
-16
48
-208
-224
-432
-512
-208
320
288
48
-16
-144
-224
-112
64
464
208
-16
96
96
-112
-128
-48
0
-128
-176
-304
-320
-160
96
160
128
-48
128
336
304
-80
-192
-128
16
96
208
-32
-96
-128
16
96
176
192
80
-272
-480
-288
-112
-176
-112
32
32
-80
-192
-208
-192
256
656
896
720
176
-512
-400
-272
-528
-304
352
784
544
-160
-880
-816
-288
-80
112
160
240
240
224
-160
-224
224
288
16
-144
-80
-64
-80
-128
-160
112
304
48
-352
-400
0
208
96
0
-144
-64
224
528
256
-368
-224
0
-112
-176
80
512
560
0
-624
80
784
272
-624
-752
-544
-288
-32
16
80
144
192
160
-176
-240
64
608
496
-192
-240
-144
0
-288
-496
-416
176
320
160
-80
-160
160
160
-96
-416
-112
480
784
208
-544
-144
304
128
-48
144
-144
-336
-288
-304
-288
-224
176
272
240
48
-176
-96
-304
-544
-304
304
96
-320
-64
464
720
480
-96
-256
-256
-128
304
304
416
544
32
-864
-864
-368
-144
-96
-288
-320
208
608
336
16
-32
-48
144
640
608
-16
-560
-272
-304
-592
-512
-16
528
304
0
32
144
-224
-176
96
384
416
256
240
96
-448
-608
128
240
-64
0
192
352
-352
-592
-384
-464
-496
-112
416
848
416
-192
320
560
176
-128
-208
-48
-96
-272
-128
192
112
-176
-112
96
-16
-336
-576
-192
16
-144
-192
112
304
16
-384
240
688
-16
-576
-336
32
288
176
-96
-224
-128
-144
-80
128
304
96
-176
144
496
-64
-240
-176
-192
32
304
320
0
-288
-16
256
32
-352
-672
-352
96
-144
-432
-64
-240
-224
-32
96
128
0
-80
-48
160
96
-144
-208
32
0
-128
-272
-400
64
256
160
16
-112
-80
16
96
-112
-160
560
944
400
-288
-32
-144
-784
-624
32
464
224
16
-64
-256
-288
-240
-96
-48
0
-64
-192
-16
416
416
-176
-480
-208
208
608
560
-224
-656
-256
160
272
96
-112
-288
-160
0
16
-80
0
112
240
96
-64
-16
-96
64
48
-48
-128
64
336
80
-176
-240
-192
32
-256
-560
-272
160
-48
-256
320
848
528
96
-496
-48
512
272
-208
-288
-192
-144
-144
-128
-352
-464
-224
144
176
-48
64
480
224
-352
-512
80
272
416
528
240
-400
-576
-16
48
-80
-144
-160
-48
96
16
-144
-96
64
32
48
240
384
-48
-448
-64
96
160
192
48
-160
-288
32
192
0
-96
-32
48
16
-256
-176
-192
-128
192
224
48
-224
-112
224
160
80
16
-112
48
240
-64
-320
-384
-176
160
160
-48
-160
-128
-176
-16
240
368
224
176
32
-16
-80
128
320
176
-192
-528
-416
-16
0
-320
-336
-144
-224
-384
368
992
656
224
-48
144
288
336
-32
-448
-560
-432
-240
-112
-144
-224
-240
-16
176
96
160
32
-256
-144
288
592
144
-368
-288
32
384
208
-192
-464
-64
-64
-96
-16
-32
-176
48
304
64
-80
-160
-16
208
96
-336
-144
240
192
-48
-240
16
48
16
272
576
288
-352
-640
-464
-368
16
112
-48
-208
48
32
-160
-144
144
160
128
112
48
48
144
96
-224
-432
-256
-144
-192
-176
0
304
672
608
48
-416
-304
160
96
-64
-80
-304
-336
-96
96
112
176
-32
0
-160
-256
-32
272
272
-96
-448
-432
288
368
240
-32
-352
-272
-16
64
-160
-240
112
304
-80
-464
-272
-16
224
320
272
192
240
192
-32
-48
-304
-464
-224
-64
-80
-64
256
160
-64
-64
-96
-368
-112
544
960
496
-464
-656
-368
-208
-128
64
384
-32
-576
-256
320
352
336
464
80
-544
-688
-288
48
224
-16
48
160
-32
-144
-64
-128
-48
512
576
112
-576
16
640
336
-112
-336
-336
-256
-48
64
-64
-192
-368
-208
-16
96
352
400
176
-224
-96
288
320
-192
-320
-304
-256
-448
-496
-144
176
432
464
432
208
-144
-176
-32
-112
-240
-128
112
192
288
96
-336
-608
-416
-80
320
368
192
32
128
144
-96
-64
0
-256
-352
-48
32
-128
-112
144
448
544
528
32
-592
-608
-528
16
400
144
-112
-336
-448
-288
96
352
0
-352
-144
0
128
240
272
112
-128
-48
-16
176
240
-16
-240
-64
272
336
368
80
-592
-928
-240
304
320
0
-224
-64
80
0
-80
48
64
-80
-272
96
656
624
128
-160
0
-192
-544
-368
-64
48
-96
-32
192
128
256
336
-112
-576
-416
-224
-112
80
96
64
-48
0
32
48
-96
-320
-160
496
848
416
-224
-160
-160
-560
-496
64
16
-112
-176
-64
240
384
160
224
224
32
-96
-144
-320
-512
-304
-64
32
16
-32
-272
-416
-320
-96
128
224
560
544
320
144
-160
-128
-176
-208
-160
-208
-304
-96
224
272
48
-272
-288
-96
32
208
368
416
64
-96
-144
-256
-432
-448
-272
80
-80
-32
544
544
112
96
144
48
-288
-208
0
16
-112
-96
-128
-144
-64
-160
-176
208
16
-112
304
480
160
96
160
-64
-416
-256
160
128
80
112
-96
-176
-256
-176
176
272
-80
-224
-96
128
128
-48
-160
-144
-96
-272
-336
-224
96
384
320
64
-80
-80
-160
-224
-176
-32
48
80
128
32
112
352
320
-320
-400
80
48
-160
-64
-16
-80
176
336
-160
-288
-96
-336
-416
0
48
-128
-16
368
464
128
-144
-160
-128
-48
0
-80
96
192
-16
-16
160
416
432
80
-272
-384
-320
272
272
-176
-432
-416
-272
64
336
560
224
-240
-320
-160
0
-16
-16
144
224
0
-224
-192
96
160
-144
-336
-304
-64
128
208
-16
16
304
304
192
176
96
-304
-304
-352
-400
-224
-80
-48
-144
16
288
320
-48
-160
304
368
-64
-336
-304
-208
-192
-192
-80
96
192
144
288
352
160
-176
-288
-224
-176
-32
304
432
336
-16
-448
-816
-768
-352
-80
112
256
160
192
256
272
176
112
224
112
-368
-160
320
224
-192
-336
-32
80
-192
-432
-208
128
144
128
96
16
-64
-256
-144
288
320
-64
-224
-160
0
-48
16
-48
-16
32
32
96
176
208
64
-208
-144
32
160
208
48
-464
-352
320
480
416
416
-48
-512
-304
-144
-128
-240
-336
-192
-16
160
176
-32
-240
-144
-128
-224
-96
128
272
352
288
0
32
-48
-208
-192
0
0
-64
-48
-80
-288
-288
-16
144
32
80
128
16
-128
-176
-48
240
400
336
48
-224
-224
-128
32
32
-112
-304
-384
-272
-80
32
48
192
432
656
176
-272
-16
-80
-240
-336
-288
16
256
32
-288
-224
-96
32
-16
-192
-48
-64
-128
192
400
128
96
64
32
-112
-176
-64
80
176
0
-192
-208
-48
-80
-80
128
192
-240
-432
-160
192
240
112
80
160
256
320
0
-176
-48
96
192
96
0
-240
-320
-272
-384
-256
144
320
288
416
288
80
-256
-448
-112
128
16
-80
-48
-32
-144
-224
-128
-48
-96
-144
144
176
-48
112
256
112
-80
-272
-400
-112
192
176
128
80
144
16
-336
-384
80
272
160
-64
-96
-80
-64
16
-16
-160
-48
64
64
48
-48
-160
-176
48
128
64
288
256
16
-320
-368
-448
-320
-272
32
288
144
-80
-80
144
288
400
160
-64
160
320
0
-416
-448
-272
-224
-288
-192
32
304
416
176
-16
80
160
64
-16
-80
-64
16
16
-144
-128
32
128
112
-48
-576
-672
-224
256
320
192
80
0
16
16
32
256
416
224
-272
-400
-256
-96
208
496
240
-368
-400
-48
80
176
368
560
480
-80
-304
-432
-608
-416
-368
-32
176
64
-96
-16
32
16
-64
-48
96
160
96
80
32
-208
-224
-96
-48
-64
96
112
64
-32
-176
-144
96
192
160
80
32
-112
-176
-32
48
0
16
-16
-176
-288
-192
-64
80
-32
-336
-384
160
736
896
624
96
-592
-864
-400
-176
0
32
32
48
-64
64
48
192
384
416
320
176
128
-112
-240
-224
-240
-544
-624
-400
-48
112
272
336
96
32
96
240
192
-48
-208
-32
160
64
-32
-96
16
16
-128
-112
-128
-240
-288
-128
80
112
-80
-240
-160
176
240
80
-16
-96
-112
16
256
496
160
32
-16
-32
-160
-368
-192
64
128
-80
-176
-64
64
-16
-240
-336
-208
80
272
272
-272
-304
32
224
208
208
240
128
-208
-320
-288
-256
-48
160
160
304
560
592
-160
-656
-384
-16
-64
64
96
16
-32
48
256
224
128
-80
-272
-400
-320
-32
-32
-32
48
48
80
0
-96
48
352
400
32
-256
16
16
-208
-448
-128
416
448
160
-192
-96
64
-80
-48
-96
-208
-272
-96
80
64
176
304
48
-304
-304
-112
-96
-32
80
96
0
80
128
160
-32
-176
-256
-80
-48
-144
-128
-16
-64
-112
176
352
352
320
48
-240
-288
80
400
160
-256
-160
-144
-128
16
288
464
192
-48
-128
144
288
160
-32
-384
-208
16
-80
-80
112
304
416
224
-32
0
-32
-416
-736
-256
208
224
-96
-192
-80
128
352
112
-96
112
368
400
384
16
-416
-336
-192
-208
-128
32
240
192
-80
-176
-160
-176
-208
-192
64
208
128
304
384
16
-368
-176
96
192
176
192
-224
-528
-480
-208
-144
144
416
224
-192
-304
16
64
-160
-240
-224
-256
-224
-16
320
464
512
224
-256
-240
-240
-160
-80
0
48
-64
-144
80
192
16
-288
-240
-48
176
336
192
-32
-32
48
32
-16
-112
-240
-144
32
160
32
-224
-288
-80
-32
-128
96
16
208
320
160
16
128
160
64
-144
-144
-80
64
96
-112
-288
-96
240
288
96
-48
-288
-384
-352
-96
176
272
16
64
128
-48
0
288
320
0
-336
-320
-48
144
32
-64
-48
-112
-208
-144
48
240
224
304
256
-96
-192
-48
336
128
-592
-624
-32
400
304
-32
-112
-272
-368
-80
160
224
224
144
144
48
-16
-16
-128
-112
0
0
0
160
192
-64
-128
-304
-240
-32
16
-80
-48
32
32
-16
48
16
-128
-48
96
64
-64
-32
-16
0
64
64
48
-96
-176
-128
-96
-128
-192
0
288
64
-256
-256
240
320
192
176
224
160
32
64
304
256
-176
-688
-608
-64
144
64
32
16
-64
-64
304
256
32
-48
-288
-208
0
192
160
-64
-96
-64
-144
-112
112
208
64
64
160
64
-48
-144
-240
-304
-224
-80
80
128
32
64
176
208
80
48
80
96
112
208
96
-80
-16
-80
-288
-320
-208
-80
0
16
0
-16
16
288
448
32
-16
240
48
-32
-176
-192
-304
-208
-80
-16
128
224
80
-320
-464
-352
48
448
304
-128
-240
-48
64
-64
-176
-80
96
336
432
304
288
304
224
-96
-368
-288
-80
-272
-352
-128
64
-16
-16
-96
-96
-32
-112
48
240
272
128
-96
-128
0
48
160
272
32
-256
-32
192
128
-240
-304
-128
-16
224
368
112
-160
-32
80
64
32
-96
-64
-96
-160
-128
96
-16
-224
-160
80
128
144
128
48
-80
-144
-208
-400
-256
-16
192
224
0
16
240
208
48
32
-32
16
128
80
-16
-240
-336
-144
160
368
112
-64
-32
-64
-192
-48
208
64
-208
-224
-48
112
224
368
304
128
-48
0
-336
-544
-320
-48
64
-64
-64
48
112
-160
-144
-64
64
128
112
32
-144
-368
-256
48
64
240
288
240
128
80
-32
-176
-176
-144
-48
80
80
32
64
32
48
96
112
-128
-368
-272
-48
144
192
-16
48
256
112
-240
-256
0
48
-32
-112
-176
-272
-208
0
48
16
64
128
96
32
-80
-64
0
0
64
176
368
496
384
96
-240
-320
-256
-208
-288
-176
48
-16
-112
64
192
48
-160
-48
208
144
16
-16
-64
-64
-64
-80
-80
-80
32
32
-80
0
256
384
192
-304
-400
-16
256
112
-64
-16
-80
-96
-160
-208
-272
-272
-160
80
144
48
-128
-176
16
-16
-80
80
256
80
-192
-192
-96
-16
-64
-48
48
256
304
128
-176
-144
80
112
320
432
240
-448
-624
-416
-176
-96
-112
-80
-16
16
192
384
352
96
-224
-272
-288
-256
-128
112
304
32
-192
-112
128
80
16
32
96
48
224
336
128
-224
-352
-272
-192
-224
-112
160
208
-64
-240
-80
256
288
80
-64
-16
16
32
0
16
32
-16
-32
16
-96
-208
0
256
448
16
192
192
-160
-160
-64
-96
-128
-128
-192
-192
0
208
160
32
-240
-464
-400
-192
256
336
240
80
112
128
16
-16
96
16
-208
-304
-32
192
64
-64
-64
-96
32
176
288
240
208
-16
-128
-80
-176
-416
-544
-16
336
112
48
64
-48
-144
-48
0
-16
-16
80
256
96
-16
16
-128
-208
0
32
-16
16
-16
-48
-32
-48
-96
0
32
-112
-160
-64
240
64
-112
-64
-32
32
144
48
-32
-16
-64
0
0
-64
-128
0
160
80
-208
-128
32
96
64
16
-32
32
112
48
-192
-240
64
160
16
192
400
352
0
-352
-448
-400
-160
0
32
144
96
160
496
624
128
-448
-432
-128
-64
-48
-32
-64
-64
-128
-112
0
48
64
-80
-128
-64
96
160
224
240
96
-16
-96
-96
80
144
-32
-192
-80
144
32
-48
-16
32
32
16
48
80
160
16
-112
-64
-144
-144
-80
-32
0
-80
-64
80
64
-80
-96
-48
80
192
80
-64
-48
16
240
336
304
336
32
-352
-400
-240
64
144
-64
-96
-128
-192
-160
128
240
-16
-288
-304
-80
112
224
272
208
144
224
64
-96
-32
80
-32
-160
0
128
112
-64
16
-80
-64
-32
-32
16
96
-48
-128
-64
96
64
-48
-80
80
96
-48
-96
48
64
16
-32
0
-48
-304
-256
-160
-112
80
80
288
240
0
-32
240
368
224
-16
-64
-112
-128
-32
144
80
-80
-224
-144
0
-112
-256
-32
0
0
96
192
240
352
176
-176
-272
-176
-112
-112
-128
-16
96
-32
-80
208
448
384
-32
-320
-224
-96
16
144
112
-128
-128
-32
0
-128
-128
48
304
384
320
-32
-256
-224
-224
-224
0
-96
-160
16
112
-64
-48
64
-48
-80
0
240
288
160
-48
-16
160
112
208
288
112
-16
-16
64
128
-144
-256
-160
-144
-144
-64
-112
-144
-16
144
128
160
160
64
-208
-256
-96
-64
-160
-112
128
240
64
16
80
96
112
-32
-96
-176
-288
-208
80
544
640
144
-144
-48
-128
-160
16
16
-240
-208
0
32
-16
-192
-320
-176
176
352
0
-320
-176
-16
16
-48
-128
-32
192
288
80
16
96
224
80
-144
-128
16
176
48
-304
-352
-80
144
-80
-224
-96
144
432
224
-16
-96
16
288
288
-80
-400
-192
16
-160
-320
-224
48
256
288
176
32
-160
-176
-48
64
32
80
96
-96
-224
-112
32
48
-96
-128
-80
-80
96
176
-16
-176
-80
128
208
240
112
-112
-192
-112
0
-48
-96
-176
-192
64
256
128
-16
16
208
352
208
-96
-304
-208
-32
-16
-144
32
448
336
-240
-720
-480
-96
32
-32
-176
-32
80
144
192
0
64
160
144
-16
-240
-224
-16
80
48
176
400
400
96
-496
-352
-128
-64
48
176
64
-112
-144
-64
0
144
176
-32
-112
-64
64
208
224
80
-144
-304
-224
-80
-32
-112
-176
0
112
48
32
48
-16
-320
-208
176
384
272
256
240
16
-128
-144
-208
-256
-208
16
144
32
-32
-112
-80
-48
-176
-64
160
176
-112
-224
-96
192
208
112
32
0
0
64
96
64
-16
-80
-96
-32
80
176
32
-240
-448
-432
-176
272
304
112
-208
-80
256
320
144
-192
-176
-160
-176
-176
48
176
64
-96
-96
-80
-80
144
256
176
112
64
-32
-128
-64
-16
48
-80
-192
-176
112
208
112
-128
-224
-176
-192
-256
-192
112
144
128
160
96
112
64
-16
64
16
16
48
-240
-256
-32
240
336
272
160
32
-80
-64
-96
-160
-48
64
176
48
-112
-80
32
208
-16
64
272
128
-32
16
-32
-80
-192
64
96
-48
-48
-48
-32
-80
144
256
96
-224
-400
-384
-224
144
304
32
-32
96
16
16
-48
-48
64
32
0
-32
-16
64
64
-112
-176
-256
64
160
-16
-64
-32
-16
0
208
160
-16
-96
-128
-128
0
-64
-80
-48
-80
144
80
-48
16
64
-160
-352
-240
-16
-48
96
240
240
0
-256
-96
16
32
96
32
48
16
32
32
-16
16
16
-48
-16
-208
-240
-112
96
256
128
-96
-192
-48
208
352
400
192
-16
-176
-192
-48
16
80
64
0
16
16
0
-32
-96
-176
144
288
-16
-320
-224
32
-16
-96
-208
-144
48
160
144
48
-16
-48
-80
80
224
48
-48
-48
16
64
-80
-176
-128
-112
-32
96
128
96
240
528
448
96
-352
-352
80
176
-32
-384
-640
-432
32
96
-96
-144
-80
0
64
32
0
80
144
176
80
-64
16
208
48
-160
-176
-48
-48
96
208
336
528
416
0
-496
-448
-128
32
32
64
64
48
80
0
-144
-240
-64
32
-48
-144
-96
48
32
-16
-112
-80
-64
-160
-192
48
256
144
128
144
192
128
-112
-176
32
32
-16
16
80
-32
-144
-144
-192
-144
-80
96
224
192
144
176
176
240
160
-32
-208
-256
-240
-288
-256
-80
176
208
16
-176
-176
-64
48
96
32
0
48
208
128
0
-64
-80
-240
-416
-304
-48
240
224
48
-32
0
32
80
240
304
80
-208
-144
96
208
384
368
-144
-320
-176
-96
0
-16
32
16
48
32
-80
-128
-176
-128
-16
0
80
16
16
96
0
-80
-64
0
-64
-64
64
128
160
96
64
32
-48
-144
-64
-32
-112
-112
0
96
112
96
80
16
-32
0
80
208
192
-80
-128
-80
-32
160
400
272
-96
-288
-416
-224
192
224
160
96
80
16
-80
-128
-16
0
-96
-96
-96
-64
32
176
128
-48
-144
-64
144
128
96
176
352
336
128
-144
-128
-160
-192
0
16
0
-32
0
16
16
16
16
0
-96
-96
0
48
16
-16
-32
-32
0
-48
-16
16
16
-48
-48
16
16
32
-80
-128
-32
-16
-16
-16
64
192
176
0
-16
-32
16
-16
48
192
112
-112
-48
-64
-288
-256
0
0
-64
-128
-128
-16
240
176
112
80
0
-32
-48
16
-80
-160
-64
-48
-112
-160
-128
-144
-80
-48
-64
-16
-16
-112
48
240
272
144
-176
-256
-112
128
176
-16
-80
-64
-64
-32
48
160
128
-64
-80
32
144
112
-48
-128
-272
-336
-192
224
416
288
176
96
32
-96
-176
-144
-160
-160
-176
-48
112
208
128
64
-112
-224
-144
96
64
-80
48
208
176
160
176
64
16
-112
-96
32
48
-48
-208
-144
64
96
-48
-96
-64
32
96
64
64
64
-16
-96
-144
-64
64
128
128
80
-112
-240
48
224
176
16
-96
-160
-96
128
144
32
-80
-144
-112
64
112
48
-32
-112
-176
-48
112
112
0
-160
-256
-80
32
-48
-96
-16
0
-32
-64
-16
48
-16
0
288
352
160
-192
-64
32
-96
-48
16
-64
-16
80
64
-48
-80
-96
-112
-48
32
48
16
0
16
-16
-112
-96
-64
-16
48
0
-48
0
-96
-256
-160
112
96
-48
-192
-208
-16
208
256
16
-128
-96
-32
0
16
-16
-208
-208
-32
144
176
208
144
176
240
-48
-416
-304
-64
224
-112
-224
-112
48
128
176
80
-112
-176
-64
80
112
32
-96
160
240
0
-208
-144
208
32
-176
-112
-128
-176
-64
-48
-64
-64
80
80
48
128
160
112
64
48
-32
-112
-80
16
0
-80
-128
-96
-16
32
32
64
128
48
-64
-128
-144
-80
80
192
160
192
48
-32
-160
-32
48
32
0
-16
32
48
80
-96
-176
-32
80
-192
-288
128
256
96
-144
-48
0
16
16
-16
-32
-16
-112
-112
-160
-80
144
192
96
-192
-272
-144
64
176
112
16
16
32
64
160
192
144
176
224
160
144
0
-160
-352
-192
-64
-80
-224
-192
-112
-32
128
32
-32
16
64
96
48
-112
-176
-80
96
160
48
-16
48
-128
-192
-112
16
64
80
-80
-112
-16
-80
-48
80
16
-96
-16
80
160
-64
-96
64
96
160
144
-96
-80
112
0
-160
-208
-240
-144
48
176
80
-224
-240
-96
80
64
112
224
256
96
0
128
144
-64
-208
-224
-208
-208
-176
-48
-16
-48
-16
48
192
64
0
160
208
-32
-160
-192
-32
32
-64
-160
-224
-160
-16
96
192
80
-80
-144
48
288
304
176
-112
-368
-224
0
96
176
112
-64
-32
32
-80
-144
-176
-64
48
96
256
304
112
-96
-208
-64
64
16
112
256
128
-240
-304
-128
-112
-128
-128
-96
-112
-80
32
160
32
-64
-64
0
0
-176
-144
304
464
320
64
-48
16
32
-32
-112
-112
64
64
-64
-144
-176
-128
96
144
112
48
-16
96
128
48
-96
-176
-96
-32
-64
-112
-112
-80
-48
96
176
144
-80
-176
-176
-224
-240
-160
80
128
-16
-48
-48
-16
48
80
-32
-128
0
208
96
32
-80
-48
80
-80
-256
-176
112
288
144
-80
-176
-192
-112
48
80
112
144
96
0
-48
48
240
288
-16
-352
-400
-272
-64
80
16
-80
-128
-96
-80
-96
-16
128
96
80
48
64
16
-48
-64
-48
48
144
208
192
144
48
-128
-304
-272
-16
64
-96
-224
-240
-96
144
144
48
128
96
-48
-96
-48
-32
-32
-48
-16
32
0
112
208
128
48
-32
-64
-224
-304
-224
-16
64
96
96
-48
-48
-16
-48
0
80
144
144
32
-64
-160
-208
-16
32
-144
-224
-144
-16
-32
-80
-96
-112
0
80
96
192
64
-48
-64
-32
0
80
208
160
-48
-80
-160
-64
0
-112
-240
-224
-208
-80
64
224
176
48
-32
-80
-128
0
112
272
256
112
-160
-176
-176
-256
-176
-48
-32
-32
16
0
-80
-112
0
144
224
128
-32
32
48
-16
-48
0
16
-64
-80
-80
-96
-80
0
-32
-64
-144
-160
-112
80
160
-16
32
304
304
96
-80
-32
128
64
-64
-144
-112
-16
0
-16
-144
-144
-48
32
-64
-128
-32
176
176
-64
-272
-128
80
144
160
208
112
48
64
0
-240
-192
-144
-112
-48
0
32
16
-48
-64
-112
-48
80
112
16
16
-80
-128
16
208
224
32
-128
-224
-112
80
80
-32
-112
-176
-96
-96
-96
48
208
224
80
-112
-16
256
240
64
-48
-112
-176
-144
-208
-304
-272
-32
112
32
-96
-112
0
64
160
224
144
0
-64
-128
-48
16
128
80
-96
-176
-128
112
288
144
-112
-208
-224
-112
64
112
-144
-352
-144
64
272
288
96
-48
-128
-128
-48
112
112
64
64
16
48
80
48
-32
-144
-208
-112
0
64
48
64
16
16
-16
-32
0
-16
16
64
16
-176
-240
-160
-32
16
-16
-32
48
32
-16
-32
64
208
208
128
0
-32
-96
-128
48
80
-32
-128
-224
-112
112
224
160
-48
-16
64
16
-80
-128
-16
160
336
176
-192
-240
-80
-64
-176
-160
176
288
96
-144
-144
-32
16
16
-16
-16
-48
-80
-64
-48
32
128
160
160
144
-176
-368
-128
176
128
-144
-128
64
64
-64
-16
48
64
112
112
144
16
-96
-112
-48
-32
-96
-96
-48
-64
0
-32
16
80
48
16
-32
-64
-112
0
208
80
-64
-80
0
0
-128
-144
-112
64
96
0
0
48
64
144
64
-112
-256
-160
16
80
-80
-160
-32
160
32
-272
-320
-80
128
80
0
144
240
112
-64
-16
-48
-48
-160
-112
-32
0
16
96
48
-80
16
240
240
-48
-144
-48
16
0
-64
-96
-112
-64
-112
-80
16
80
112
80
0
-96
-32
192
288
160
-144
-208
-128
-96
-64
-96
48
208
144
16
-240
-192
-48
16
-80
-16
48
112
128
144
48
-64
-112
-48
96
128
32
-80
-32
64
32
48
-48
-160
-64
240
448
192
-16
0
80
-48
-256
-400
-192
16
-32
-112
-32
-32
-80
0
96
160
96
-192
-256
-224
-16
192
48
-112
-112
-16
48
112
0
-160
-192
-128
48
64
32
112
208
96
-48
-192
-304
-224
-16
160
112
32
48
80
128
80
-160
-320
-128
80
112
288
480
304
-112
-256
-128
-64
-112
-176
-112
16
80
-80
-112
-48
-160
-192
80
112
64
48
80
160
0
-80
-224
-224
-32
96
160
160
32
-144
-96
16
48
96
304
256
-176
-400
-256
64
96
144
176
144
144
48
-48
-144
-240
-208
-240
-208
16
208
160
-16
-96
-128
-192
-192
112
352
304
64
32
112
128
160
64
-64
-128
-160
64
112
-112
-224
-240
-272
-272
-272
-32
352
496
352
16
-64
-112
-64
64
0
-128
-16
0
16
-224
-288
-112
16
-16
-80
-64
-48
64
112
64
-32
0
48
48
96
64
176
128
-32
-256
-240
-128
-80
0
176
160
-32
-176
-176
-160
16
64
-16
-32
-96
-48
96
160
208
144
80
64
-16
-176
-144
-176
-288
-288
-48
128
16
-48
-144
-144
64
272
256
-32
-64
64
80
96
96
16
16
0
-144
-304
-240
-48
80
240
208
64
48
112
-80
-160
-176
0
160
240
160
-272
-272
-208
-80
80
80
32
-16
64
256
144
-48
-64
-176
-336
-288
-80
96
48
16
32
-80
-144
-32
128
112
80
64
80
144
96
176
240
160
-80
-320
-352
-288
-144
32
256
272
176
64
128
-64
-192
-96
-48
32
112
128
-176
-304
-176
-112
-96
-128
-192
-96
192
112
-16
-32
176
368
416
224
-112
-304
-288
-112
64
176
96
-80
-112
-144
-144
-80
64
-48
-80
-16
-32
80
128
96
-16
-64
-80
-208
-288
-192
160
368
272
-32
-160
-144
-128
-128
-96
-32
-48
176
416
368
96
-64
-80
-80
-96
-48
144
224
16
-32
160
-48
-272
-208
-144
-16
-96
-80
-64
-64
48
64
-64
-144
-112
-64
48
176
144
96
64
80
0
-80
-16
-32
-128
-224
-192
-32
144
160
160
32
-192
-240
-96
112
112
96
32
-32
-144
-96
64
80
144
160
32
-176
0
416
384
96
-80
-224
-336
-528
-400
-208
-16
368
384
304
240
-32
0
32
48
-16
-48
-48
-112
-224
-48
-64
-48
-16
32
32
-48
-80
-48
-80
-64
-192
-304
-208
32
320
256
192
-16
0
128
80
16
-112
-112
32
272
320
304
-80
-272
160
560
464
-304
-624
-400
-544
-496
-176
144
224
160
48
16
-16
-160
-240
-48
0
-80
-48
-112
-112
-80
96
272
224
208
80
16
32
-32
64
80
48
-112
-272
-224
-256
-288
0
336
176
-64
-32
32
32
16
-80
-64
64
80
32
32
-176
-288
-176
-32
80
-16
-80
-160
-128
128
160
-144
-80
192
192
112
144
96
96
256
352
80
-272
-320
-64
128
-240
-448
-368
160
496
96
-272
-112
-32
-96
112
416
272
96
-192
-112
48
0
-64
-32
96
0
-16
-80
-192
-272
-256
-176
-32
32
128
144
-48
-224
-32
176
224
160
176
144
-16
-112
-80
-64
-96
48
32
-48
-32
-16
-64
-176
-128
-144
-176
-64
0
0
80
128
336
320
240
-64
-256
-32
96
-160
-128
-16
-192
-384
-320
-224
-64
64
112
128
80
-32
32
64
128
176
256
400
336
80
48
256
144
-288
-528
-384
-16
16
-112
-144
-64
-32
-32
-48
64
256
368
256
-192
-240
-16
-32
-96
-80
-64
16
-16
-80
-128
-96
-64
96
160
32
-48
32
48
96
144
176
64
-16
64
96
-128
-320
-256
-96
48
64
-48
-16
-80
-160
-208
-64
80
96
80
112
48
-240
-256
64
448
592
304
0
-400
-336
-64
-80
-96
-48
-48
-96
-208
-96
208
144
16
-176
-208
-192
-32
96
48
0
16
128
144
16
-32
-16
-64
-144
-224
-128
64
112
32
-48
-64
-64
32
32
32
64
160
240
192
16
-128
-176
-64
32
48
-48
-208
-112
-80
-96
-128
-176
-144
-160
-48
128
304
224
96
32
-48
80
192
176
0
-320
-256
-112
-96
-16
48
16
-32
-128
-128
32
352
256
-64
-192
-96
-160
-48
-32
-48
-16
112
336
304
352
256
-80
-368
-176
-96
-128
-112
-112
-112
-112
-112
-64
-48
64
160
128
32
-32
96
128
-80
-112
64
96
-16
-144
-224
-160
32
128
96
-16
64
144
112
-16
-64
-112
-112
-16
-32
16
-16
-80
-96
-96
-176
-128
0
128
128
96
16
48
16
-32
-112
-96
-192
-336
-224
80
272
112
-64
-128
-128
-64
48
128
48
112
96
16
-96
-176
-112
-112
-112
-96
80
304
352
64
-112
0
48
-96
-272
-160
64
192
96
-64
-48
96
16
0
-96
-80
64
64
-144
-80
16
-32
-16
-32
-48
0
160
176
-80
-288
-128
192
256
144
80
-48
-16
-16
-112
-176
0
-16
-16
0
-48
-16
0
64
96
-16
-64
-32
240
448
288
-240
-512
-192
-64
-16
32
-48
0
128
32
-96
-160
-112
-80
-32
-64
-112
-48
-80
32
64
0
-64
-64
16
64
32
0
16
112
48
-96
-16
-32
-32
-64
-48
16
0
96
192
192
96
16
-208
-224
-16
-16
-96
-176
-144
0
48
16
-112
-80
80
-16
-256
-336
16
192
80
64
16
-80
48
160
-32
-128
-64
-64
-64
-32
-16
112
224
64
-112
-160
-16
96
0
48
80
48
0
-224
-96
96
48
-16
-128
32
272
272
-16
-240
-128
16
0
-176
-256
-80
128
48
-96
-176
-16
112
16
-160
-112
64
176
48
-160
-208
-64
16
-16
-128
-112
80
416
272
-272
-512
-112
288
192
-32
-288
-256
-48
-48
-256
-256
80
160
176
192
64
-192
-176
32
32
-176
-256
-48
16
16
80
32
-144
-192
16
144
96
32
-48
-160
-112
-64
16
32
0
96
0
-96
-48
16
32
-48
-192
-144
96
272
144
-80
-160
-32
64
-48
-160
-96
144
288
128
-96
-80
16
0
-48
80
160
48
-80
-48
16
-64
80
272
240
-192
-352
-112
224
208
-160
-208
-48
160
176
-80
-80
208
384
320
96
-144
-240
-112
-144
-80
16
-64
16
-80
-288
-192
-32
-80
0
112
96
16
-64
0
80
32
48
64
80
160
272
240
0
-336
-576
-448
-112
32
64
32
64
144
176
64
-16
48
-32
-16
0
-80
-112
-144
-128
-128
16
96
48
80
32
80
144
96
-256
-592
-240
144
96
-64
-32
16
32
128
16
-16
112
80
0
0
0
128
112
-128
-80
-160
-240
16
96
16
16
-144
-256
-96
64
208
416
272
80
80
16
-272
-320
-112
48
240
224
48
-224
-240
-80
-32
-80
-112
16
112
-32
-144
0
144
144
80
-80
-176
0
144
80
-80
-128
-144
-80
16
16
64
80
96
160
112
-48
-208
-144
-48
-80
-48
144
272
144
-80
-144
-96
-16
48
-16
-96
0
64
-32
-48
-128
-144
-80
144
192
128
48
0
0
-80
-80
16
-96
-368
-288
224
176
112
96
32
-96
-192
-160
96
224
272
240
160
224
64
-176
-320
-128
48
0
-128
-176
-48
80
80
-64
-96
16
112
96
64
-64
-160
-256
-144
0
0
-16
0
16
32
16
-80
-112
-64
32
96
48
-16
-16
16
-48
-144
-144
-32
80
64
80
176
144
-96
-128
-96
0
48
16
48
64
0
-64
-64
16
-48
-176
16
336
400
272
448
352
-352
-624
-496
-176
-16
16
64
32
-32
-96
-144
-112
-96
-112
-48
64
192
112
32
80
160
176
192
48
-80
-128
-160
-16
64
0
32
64
80
144
32
-16
-48
-80
-16
16
-64
-112
-112
-32
-16
-112
-160
64
160
80
-64
-80
0
48
-64
-176
-176
-224
-336
-176
160
224
128
-16
16
16
-16
-32
-16
80
64
-64
-80
16
0
-160
-304
-144
-112
-64
208
288
160
224
400
288
-160
-384
-176
-48
16
16
0
16
16
-48
-112
-96
-48
-32
-16
32
16
-80
-160
-96
48
-48
-128
-16
64
64
48
0
-32
-80
-64
80
128
96
80
96
-16
-80
48
256
176
-144
-224
-208
16
64
-80
-128
64
0
-32
48
96
48
48
0
-176
-288
-256
-112
80
192
112
80
48
160
192
-32
-272
-144
64
0
-128
-176
-48
32
48
-160
-336
-144
96
160
48
48
16
16
32
0
-48
-64
-64
-96
-80
-32
-16
-16
64
64
160
176
96
-48
-128
-144
-96
-16
32
80
0
64
112
16
-128
-176
-96
-48
-80
-16
-16
-336
-240
16
208
224
32
16
160
272
176
32
-64
-224
-80
0
-64
-32
64
176
64
-160
-112
-16
-32
-80
-64
-96
-128
-48
80
128
80
32
-16
-32
-80
-144
-224
-64
0
-96
-64
64
80
64
48
48
32
-32
-48
-48
-80
-64
32
64
48
0
48
0
-144
-16
-16
32
64
112
176
32
-64
-16
-32
-80
-144
64
240
-64
-240
-240
-80
96
144
128
-48
32
-16
-192
-96
32
-64
-128
-16
16
0
80
0
-96
-128
-96
-32
-48
64
112
16
0
48
16
0
-32
96
96
16
-16
0
-16
-48
-48
-64
-48
-32
-48
-80
-144
-160
-80
0
64
96
96
48
-32
-48
0
16
-112
-192
-16
96
128
96
-32
-112
-112
0
32
192
432
320
-112
-320
-144
16
16
16
-96
-192
0
64
48
96
160
160
64
-16
-16
32
240
176
-64
-144
-96
-16
-48
-160
-224
-144
-16
-16
-80
-64
-16
-16
64
128
112
128
176
48
32
-80
-176
-16
-32
16
64
-16
-128
-160
-128
-80
-48
0
0
64
96
-80
-160
-16
128
128
32
0
48
48
48
32
-80
-160
-96
-144
-80
16
112
128
-112
-288
-400
-288
64
256
160
64
64
112
80
64
32
-16
32
32
-64
-256
-128
16
-96
-176
-112
16
96
144
128
-48
-80
-16
160
304
160
-16
-64
128
304
0
-384
-160
-48
-80
-144
-160
-64
64
80
-48
-80
-96
-16
32
-32
-32
48
48
-16
-112
-96
-48
48
128
80
-48
-48
48
80
80
-48
-208
-128
48
48
16
-64
16
48
-16
-288
-240
112
208
224
192
80
32
80
64
-48
-16
48
-96
-96
-144
-224
-288
-240
0
160
-32
0
80
0
0
-16
-16
0
96
96
-16
-144
-192
-32
64
-16
-112
-128
64
160
32
32
64
96
16
-48
32
32
-64
-32
96
0
-80
112
288
160
-32
-208
-240
-32
-48
-144
-144
-64
0
-48
0
16
16
160
160
-48
-144
-144
-16
48
16
-64
-64
0
-32
-32
-32
-48
-64
-48
-16
16
48
128
48
-112
-96
-96
0
112
80
-48
-32
32
80
96
112
-16
48
208
176
112
-32
-112
-128
176
288
32
-304
-320
-272
-144
64
128
32
-16
-96
-144
-48
192
128
16
-64
-80
32
128
16
-160
-256
-192
-160
-144
32
192
240
128
48
-16
-128
-32
48
64
-112
-272
-112
48
64
0
-16
-16
16
80
80
32
-64
-176
-128
16
96
64
-64
-96
-64
-48
48
-48
-160
-80
64
128
144
96
-48
-112
-128
-160
-96
96
96
0
80
288
208
64
-80
-336
-352
-176
176
288
256
112
-48
-80
-112
-144
-112
-16
96
128
80
64
32
160
272
160
-224
-336
-64
32
0
32
16
-48
-80
-48
16
0
-96
-208
-224
-64
0
32
32
-16
0
16
16
96
64
-16
-16
32
0
16
32
48
-48
-96
-192
-304
-64
80
80
80
32
32
-32
0
64
160
176
48
-80
-64
96
176
144
-112
-256
-288
-112
-144
-176
-32
240
384
144
0
16
-16
-112
-96
0
-16
32
64
96
80
16
-80
-16
-16
-160
-240
-128
-80
-96
64
80
80
96
16
-96
-64
16
128
256
336
448
352
-160
-320
-288
-224
-48
-80
-96
-128
-176
-240
-224
-160
0
128
160
16
-128
-128
64
208
128
16
-16
80
128
-64
-208
-256
-160
-64
-48
-80
0
96
48
-16
-64
-64
16
96
64
16
-80
-48
16
16
-16
-128
-112
-96
-48
-16
64
80
16
-32
-96
-160
-176
-144
112
112
64
96
16
48
48
-64
0
-32
-96
32
64
-80
-176
16
368
448
16
-448
-176
240
160
-112
-240
0
96
32
-48
16
48
-16
-128
-176
-112
-64
0
32
-48
-32
0
64
112
112
0
-128
-160
32
112
48
-16
-32
-80
-112
-32
-16
0
16
32
48
-32
-80
-96
-80
-16
-48
-160
-224
-96
128
192
80
-80
-128
48
64
-176
-336
48
432
384
160
112
96
-32
-128
-160
-176
-32
80
160
144
16
-32
32
32
-192
-272
-96
96
64
-128
-112
-144
-64
32
112
32
-96
-128
-48
32
-16
-16
-16
16
16
48
64
-32
-48
-16
-80
-112
-64
96
192
128
0
-48
-16
32
48
16
-80
-64
32
112
-16
-80
-64
-112
-128
16
160
160
112
0
-32
-160
-272
-176
16
112
0
-64
48
176
112
-16
-112
-160
-112
64
80
0
-144
-64
-16
-16
-48
-32
80
96
-16
-80
-16
32
32
64
112
-64
-192
-64
32
80
-64
-96
-48
0
16
16
16
48
112
128
64
-48
-80
-112
-32
144
192
48
-64
-48
0
-128
-112
48
-32
-96
-64
-16
32
-48
-96
-128
-48
64
16
-16
0
-48
-32
-64
-16
-16
-80
16
48
48
48
32
32
64
272
320
96
-48
-80
-48
-176
-144
64
0
-80
-32
-80
32
48
-32
-48
-96
-64
-48
32
64
80
128
112
144
192
96
96
-208
-272
-48
-48
-112
-48
0
32
64
32
0
16
32
16
32
112
64
-80
-112
-64
-96
-144
16
16
-96
-16
-48
-160
-176
-48
176
48
-112
-80
-48
16
48
112
48
-64
-48
48
48
16
-16
-16
-48
-80
-16
16
32
-64
-192
-176
-128
-64
80
96
32
-112
-16
128
112
96
-16
-128
-48
64
32
-16
32
80
80
128
64
-112
-176
-96
16
-32
16
64
16
32
32
-32
-64
128
208
160
32
64
112
80
64
32
-64
-240
-224
-112
96
112
48
-48
-80
-48
32
64
48
32
-32
-80
-96
32
320
320
96
-64
-176
-96
-96
-160
-192
-48
80
64
-16
-96
-128
-96
-96
-16
160
144
64
16
-48
-64
-128
-64
32
48
-16
-16
64
128
32
-224
-336
-160
48
128
48
-96
-128
16
80
80
-48
-128
-32
144
144
144
96
16
0
-64
-176
-224
-192
-80
112
128
-32
-176
-32
192
176
16
-128
-96
-16
-16
192
192
64
-16
48
128
192
224
64
-80
-272
-256
-112
0
32
-48
-32
16
0
-64
-80
-16
64
80
128
80
-16
-112
-112
-48
-48
-48
-48
32
112
128
0
-112
-160
-112
-32
16
96
64
48
64
16
-16
-64
16
80
96
32
0
96
128
-16
-192
-208
-96
-112
-80
-16
16
32
-16
-32
-48
0
-16
0
96
80
16
0
128
224
192
80
0
-224
-272
-96
64
0
-144
-224
-256
0
128
64
48
48
-32
-64
-16
32
64
144
144
16
-96
-112
16
144
144
0
-224
-272
-48
112
112
128
32
-48
-48
48
144
192
64
-144
-144
-144
-48
0
0
-32
-48
48
112
64
-64
-144
-32
-48
-192
-208
-48
-32
-144
-112
128
80
16
16
128
176
192
-48
-80
80
80
64
32
-32
-112
-128
-64
16
64
80
-64
-176
-176
-192
-80
144
384
384
192
80
-80
-256
-208
16
144
0
-160
-224
-224
-16
32
48
32
-96
-144
-112
48
144
64
80
32
-32
-96
-64
32
16
-16
-32
48
64
-32
-16
0
-32
-96
-80
-32
16
0
32
80
48
-96
-16
192
192
-32
-208
-64
0
16
48
-32
-64
-80
-144
-224
-160
-96
-32
64
112
112
0
-80
-64
-32
-96
-32
48
128
112
-48
-48
-16
32
32
-64
-176
-80
112
240
128
16
16
0
-32
96
16
-96
0
-48
-112
-16
48
32
-16
-16
-32
-64
-64
-32
16
-32
-96
-16
16
0
-64
-48
0
0
16
32
0
16
32
64
32
0
-48
-32
32
16
-64
-64
-64
48
16
-64
-160
-96
64
16
-48
16
80
80
0
-80
0
176
368
256
-256
-416
-48
64
-96
-224
-144
-16
176
208
80
-32
-48
32
80
80
32
-64
-80
-48
32
64
-48
-192
-96
0
-80
-64
-16
-32
-32
16
96
112
80
-48
-96
16
32
-32
-64
-48
16
0
-32
32
192
112
-16
-112
-64
-128
-224
-48
112
96
-16
-144
-208
-160
80
288
192
80
16
0
16
-32
-128
-48
0
-32
-32
-32
0
16
-48
-112
-160
-192
0
96
-16
-16
96
112
96
48
16
48
48
-16
-32
-64
-48
0
-96
-128
-48
32
-80
-64
64
128
112
-16
-112
-176
-160
0
16
32
48
0
-32
64
192
144
96
144
208
128
0
32
-16
-240
-288
-144
-80
-16
0
48
128
48
16
-16
-32
-32
-112
0
96
32
-48
-80
-64
-48
0
32
48
0
-80
48
144
112
64
-16
-32
0
32
0
16
-16
-80
32
160
192
32
-128
-80
-32
64
112
-80
-176
-80
-16
16
16
-64
-144
-176
-176
-176
-176
-64
80
144
192
160
32
-32
48
80
64
48
32
-32
-80
0
-96
-208
-176
-80
-48
0
128
80
16
48
32
32
-80
-128
48
160
192
80
112
80
-48
-80
-80
-16
-80
-112
-64
32
-32
-144
-192
-176
-112
-48
48
128
224
288
128
16
-96
-32
-16
0
-16
-128
-144
-80
64
240
288
96
-240
-160
32
16
-16
32
32
-48
16
112
128
48
16
-96
-48
-16
-112
-96
-112
-176
-96
-32
-96
-80
16
128
112
48
64
48
0
-64
-96
-80
-48
0
128
144
48
32
96
160
144
64
-128
-144
-48
-16
-96
-128
-48
-16
16
0
-32
-16
0
-48
-160
-80
160
160
16
-48
-80
-96
-16
-32
-32
48
256
144
-176
-128
-16
16
-16
-160
-208
-80
128
144
80
48
80
96
96
64
-144
-272
-112
64
96
96
48
32
80
32
-48
-80
-160
-128
48
112
96
32
-64
-32
-48
-64
48
96
0
-80
0
-64
-112
-80
-16
-48
-112
-112
-80
-64
16
32
-32
16
256
112
-32
96
160
-32
-272
-272
-80
80
240
304
160
32
-32
16
176
80
-32
-32
-64
-80
-208
-240
-32
64
32
-64
-112
16
176
192
128
96
-16
-144
-240
-224
-96
-32
96
96
-32
-96
-64
-32
-64
-48
-48
-48
-32
0
48
80
96
32
-48
-48
-16
-48
-48
-32
-64
-96
-64
48
80
48
32
-48
-112
-144
-48
32
96
80
-32
0
80
128
144
80
16
-64
-160
-224
-16
176
160
0
-192
-320
-208
-80
-16
-16
-112
0
160
128
32
-112
-80
80
64
16
16
0
32
-16
-16
64
80
-48
-160
-48
64
144
32
-48
0
80
224
144
16
32
-64
-80
-64
-64
-16
16
-32
-32
-32
-48
-64
-64
16
16
-144
-192
-80
0
64
112
112
64
0
-48
-16
-32
-112
-32
48
80
64
0
-112
-80
-64
16
48
16
48
128
48
-32
-128
-112
-64
-64
-64
16
96
48
-16
32
160
224
32
-128
-208
-128
0
0
96
160
176
96
-64
-144
-160
0
80
-32
-80
-48
0
48
48
0
-128
-128
-96
-16
224
208
64
0
32
-32
-80
-80
-64
-48
16
144
224
96
-32
-16
0
-48
-128
-128
-64
-64
-16
-32
-80
48
144
128
80
0
-32
-64
-80
-128
-32
0
-16
-80
-176
-240
-64
96
64
16
0
16
32
-16
-32
64
144
96
0
-112
-176
-32
160
192
80
-160
-256
-272
-208
0
128
144
144
176
240
240
80
-192
-128
48
112
-16
-176
-160
0
48
-96
-160
-96
-32
0
80
144
96
-32
-48
16
0
-80
-48
64
16
0
96
144
48
-112
-160
-48
-32
0
-16
-64
-32
-32
16
48
32
48
32
64
-16
-112
-64
32
160
64
-48
-80
-32
80
96
80
48
-144
-224
-112
144
32
-96
-16
32
32
-80
-128
-48
-16
48
80
32
-48
-32
-32
-48
64
112
80
64
0
-48
-80
-64
0
80
64
0
-112
-96
-16
128
208
128
0
-64
-96
-160
-144
-32
16
16
16
48
80
16
-96
-96
-32
-16
16
64
48
0
-64
-112
-80
-16
32
-32
-144
-96
-48
80
144
64
48
48
48
32
0
-32
-64
-96
-96
-32
48
16
-48
-16
16
32
-16
16
16
0
-32
-64
-96
-16
0
-48
-64
-144
-144
-96
-16
64
80
80
48
16
16
16
-16
-32
48
96
176
192
-32
-176
-80
-64
-80
32
176
192
48
-96
48
144
112
-48
-144
-80
16
-48
-112
-16
48
-16
-96
-160
-112
-32
48
0
-48
-16
96
240
272
32
-176
-128
-64
-48
16
-32
-80
-80
-64
-16
-16
-32
-64
-16
32
16
64
112
112
48
-160
-192
-144
-32
128
-64
-64
16
-80
-32
80
80
64
112
128
80
-16
-48
-80
-128
-128
32
32
-16
-64
-128
-80
0
0
16
16
144
144
-16
-80
-16
-16
-128
-112
-16
32
0
-80
0
64
-16
-144
-240
-64
112
192
144
64
0
0
80
96
-16
-128
-96
64
80
96
64
-80
0
-32
-80
0
48
-16
-144
-208
-48
32
-32
48
16
-32
-16
48
-48
-64
0
-16
32
-32
-128
-16
48
32
-160
-64
224
224
64
-80
-80
-80
-48
48
64
96
32
-160
-160
-32
16
-64
-64
-16
-80
-64
128
208
160
112
64
-48
-112
-192
-64
-16
-64
-96
-96
112
224
80
-96
-208
-80
32
48
64
-32
-144
-64
128
144
48
-32
-48
-96
-96
-48
64
112
16
-16
112
368
240
-112
-224
-128
-32
-32
16
-32
-128
-144
-48
-16
0
32
80
112
48
-80
-128
-48
-64
-144
-144
-48
256
528
528
176
-368
-400
-224
-96
32
32
-48
-32
-48
0
80
80
64
-96
-160
32
144
64
-128
-208
-16
112
48
-96
-112
-64
-64
0
0
-32
-48
-128
-48
32
48
64
112
112
16
16
16
0
-32
-48
-16
-32
-80
-160
-208
-144
-16
-112
-64
32
112
96
-64
-192
-240
-64
288
368
384
352
144
-160
-256
-208
-192
-144
-144
-80
112
304
288
64
-160
-320
-272
-32
176
80
-32
48
112
112
16
-112
-128
-96
-32
80
192
176
64
-80
-128
-48
16
-32
-128
-128
0
144
112
16
-32
-64
-64
-16
-48
-32
0
16
64
80
64
32
-48
-48
-64
-48
-96
-112
-64
-64
-16
0
32
80
112
144
48
-112
-144
-32
0
32
112
96
-48
-176
-240
-256
-160
-16
112
192
192
160
16
-128
-176
-128
-64
16
64
80
64
-16
-48
-16
-128
-208
-176
-32
160
176
96
112
32
-64
-112
-48
64
96
80
0
-64
-48
0
32
-48
-192
-192
-16
112
224
192
128
32
-80
-64
-16
16
-32
-32
-128
-80
-16
0
0
-32
-64
-96
-64
32
48
32
48
64
16
-96
-112
-80
-32
16
-16
-48
0
16
32
80
64
48
32
-32
-16
16
-96
-96
-48
-48
-32
-16
32
96
128
112
144
-32
-192
-80
48
48
16
-16
-128
-208
-192
-112
16
48
32
16
48
16
80
176
256
192
32
-144
-80
-16
-16
-32
-96
-96
-112
-144
-112
-96
-32
96
192
192
96
0
32
-16
-80
-112
-80
32
32
-96
-64
16
80
32
-32
-64
0
128
48
-96
-160
-48
16
80
64
-32
-16
-16
-96
-160
-80
32
48
32
48
80
144
48
-48
-64
-160
-96
-80
-16
48
48
-32
-32
-80
-144
32
224
176
-16
-80
-32
-96
-128
-128
-32
16
-32
64
224
240
80
-176
-208
16
112
16
-112
-192
-96
0
96
64
-80
-144
-32
80
48
-64
-96
-16
80
32
-48
-32
16
-16
-48
-32
-48
-48
0
-16
-48
-16
32
112
32
-32
-64
-64
0
80
96
48
32
0
-48
-32
-48
-48
32
48
16
-48
-128
-144
-64
-128
-176
16
192
336
288
64
-160
-192
-144
-128
-16
16
32
96
96
16
-32
144
320
240
-112
-336
-192
64
176
64
-48
-112
-144
-64
-32
-32
0
16
0
0
-32
-16
32
80
16
-48
-32
0
16
32
-32
-48
-48
-80
-48
-64
-48
0
48
64
80
96
32
-48
-112
-160
-96
-64
-32
64
224
128
-192
-208
16
32
-64
-80
-16
80
96
32
-96
-160
-64
0
-32
-96
-160
-96
48
96
96
80
0
-16
-48
16
80
128
96
-32
-192
-240
-48
144
160
64
-16
64
176
112
-16
-128
-144
-16
-16
-16
-16
0
0
-16
-32
-32
16
0
-80
-144
-192
-80
48
0
64
96
0
-32
-16
16
32
48
32
-48
-96
-32
16
16
64
80
64
-64
-192
-96
64
160
144
96
112
-80
-192
-96
0
16
16
64
32
-48
-96
-112
-16
80
32
-144
-128
48
96
48
48
-48
-16
-16
-32
-32
0
16
16
-16
-16
0
-48
-160
-272
-144
144
192
208
208
160
16
96
240
192
80
-64
-16
32
112
96
-96
-256
-160
-64
0
16
-112
-160
-160
-112
32
112
80
64
160
176
48
-128
-128
-16
16
-48
-112
-144
-48
80
64
-80
-176
-64
128
160
112
16
16
-16
-128
-96
0
112
32
-16
-80
-64
80
64
16
-32
-176
-144
0
-48
-144
-80
64
160
112
32
-80
-32
32
176
224
176
96
-96
-160
-160
-176
-64
16
0
-48
-80
-112
-64
0
16
-112
-240
-128
32
-16
-16
48
32
48
64
144
144
48
0
-48
-48
-80
-16
96
192
144
0
-128
-192
-128
-64
-32
-16
-48
-32
0
-32
16
48
48
48
64
80
32
-16
-64
-144
-112
-112
-96
-64
-128
-80
32
48
160
192
32
0
64
32
48
64
48
16
64
112
80
-64
-176
-144
-112
-48
-32
-16
32
16
-80
-128
-64
16
128
144
32
-64
-128
-32
64
80
64
32
32
48
64
16
-96
-112
-32
16
96
192
192
0
-224
-192
-80
-16
80
112
48
-48
-48
-128
-64
-32
-80
-96
-32
16
-16
16
0
-32
16
80
80
0
-48
-16
0
-96
16
48
-16
-64
-80
-16
32
0
-48
-32
-16
-16
-32
0
0
-16
0
48
48
-16
-32
-48
-32
-32
-32
-16
0
32
-16
-32
-80
-32
96
160
160
144
-16
-192
-128
-32
0
16
-128
-96
16
64
48
16
0
-16
-48
-48
-48
-96
-144
-80
0
0
0
80
-16
0
96
144
64
-32
144
368
368
96
-192
-80
-32
-48
-32
48
80
-16
-240
-176
-144
-112
-48
128
240
208
128
-48
48
32
-96
-160
-80
-64
-16
-32
16
0
-112
-96
-32
16
80
112
96
80
48
16
-64
-96
-48
48
112
80
-32
-112
-96
48
32
-64
-128
-128
-64
16
16
-32
-48
-96
-192
-128
16
144
288
240
16
-48
-32
-80
-128
-80
32
96
48
-48
-16
240
448
368
-112
-240
-80
-144
-112
-80
-96
-176
-224
-80
144
128
0
-32
-64
-128
-160
-192
-80
128
112
64
0
16
80
0
-64
-48
-16
0
32
80
48
0
-16
-32
-48
-48
-80
-48
80
96
64
-16
-128
-144
-64
-16
32
48
112
64
16
-64
-128
-64
0
-16
-80
-128
-96
32
64
32
-96
-64
16
48
16
16
96
64
-16
-48
-48
-16
-80
-224
-304
-240
-16
112
160
192
80
32
-16
-16
16
16
0
-16
-16
0
0
0
-48
-32
48
64
48
16
32
32
0
16
0
-16
-32
-32
-32
-48
-64
-16
0
-48
-112
-160
-128
-48
64
80
64
48
48
0
-32
-48
-64
-32
-48
-16
0
16
32
-16
-64
-128
-128
-48
80
80
64
64
48
0
-16
-32
-16
0
-32
-32
-16
-16
-32
-32
-16
-32
-32
-32
-16
0
32
32
0
-16
0
-16
-16
-16
-32
-16
0
0
-16
-16
-16
-16
-32
-32
-16
16
32
32
16
0
0
-16
-16
-16
-16
-16
0
0
0
0
0
-16
0
0
16
16
16
16
16
16
0
-16
-16
-16
-16
-16
-16
-16
-16
-16
-16
-16
0
0
16
16
16
16
16
0
-16
-16
-16
-16
-16
-16
-16
-16
-16
-16
0
-16
0
0
16
16
16
16
16
0
0
-16
-16
-16
-16
-16
-16
-16
-16
-16
0
0
0
16
32
32
16
16
16
0
0
-16
-16
-16
0
0
0
0
0
0
0
0
16
32
32
32
32
32
32
16
0
-16
0
0
0
-16
0
0
0
0
0
0
16
32
32
32
32
32
32
16
0
-16
-16
-16
-16
-16
0
0
0
0
0
0
16
32
48
48
48
32
32
16
-16
-16
-16
-16
-16
-16
-16
-16
0
0
0
0
0
16
32
32
32
32
16
16
0
-16
-16
-16
-16
-16
-16
-16
0
0
0
0
16
16
16
16
16
16
16
0
-16
-32
-32
-16
-16
-16
-16
-16
0
0
0
0
0
16
16
16
16
16
16
16
0
-16
-16
-16
-16
-16
-16
-16
-16
0
0
0
0
16
16
32
16
16
16
16
0
-16
-16
-16
-16
-16
-16
-16
-16
0
0
0
0
16
32
32
16
16
16
16
0
-16
-32
-16
-16
-16
-16
-16
0
-16
-16
-16
0
16
32
32
32
32
16
16
0
-16
-16
-16
-16
-16
-16
-16
-16
0
0
0
16
32
32
32
16
32
16
0
0
-16
-16
-16
-16
-16
-16
-16
0
0
0
-16
-16
0
16
16
32
32
32
16
0
-16
-16
-16
-16
-16
-16
-16
-16
0
0
0
0
16
16
32
16
16
16
0
-16
-16
-16
-16
-16
-32
-16
-16
0
0
0
0
0
16
16
32
16
16
16
16
0
-32
-32
-32
-32
-32
-16
-16
-16
-16
0
0
0
16
32
16
16
16
16
0
-16
-32
-48
-32
-32
-32
-16
0
0
0
0
0
0
16
32
32
16
16
16
0
-16
-32
-32
-32
-32
-32
-16
-16
-16
-16
0
-16
0
16
32
32
32
32
32
16
-16
-32
-32
-48
-32
-32
-16
-16
-16
-16
-16
-32
-16
0
32
32
32
16
16
0
0
-16
-16
-16
-16
-48
-64
-64
-48
-32
0
16
16
16
16
32
32
16
16
0
-16
-16
-16
-32
-32
-32
-16
-32
-32
-16
-16
-16
-32
-16
0
16
16
32
16
16
0
-16
-32
-16
-16
-16
-16
-32
-16
0
16
16
16
16
0
-16
-16
-32
-16
0
16
0
0
0
-16
-16
-16
-16
0
0
-16
-32
-32
-16
0
16
16
16
16
16
0
-16
-32
-16
-16
0
0
0
0
-16
-16
-32
-16
0
16
16
16
0
0
0
-16
-16
-32
-16
0
-16
-32
-32
-32
-32
-16
-16
-16
0
32
48
32
32
32
16
0
-32
-32
-16
0
-16
-16
0
-16
-16
-16
-32
-32
0
32
48
32
32
48
32
0
-16
-32
-16
-16
-16
-16
-16
-16
0
16
0
0
-16
-16
0
16
32
32
16
0
-16
-16
-16
-16
-32
-32
-16
-16
-16
-16
-16
-16
0
0
32
32
32
32
32
16
-16
-32
-48
-32
-32
-16
-16
-16
-16
-16
-16
-16
-16
-16
0
16
32
16
16
16
-16
-32
-32
-32
-32
-32
-32
-16
-16
-16
0
0
16
32
48
32
16
16
16
0
-32
-32
-32
-32
-32
-16
-16
-16
-32
-32
-16
-16
16
48
48
32
32
32
32
16
0
-16
0
-16
-32
-16
-16
-16
0
-16
-16
-16
0
32
32
16
16
16
16
0
0
-16
-32
-16
-16
-16
-16
-16
-16
-16
-16
-32
0
16
32
32
32
16
0
-16
-32
-16
-16
0
0
-16
-16
-16
-16
-16
-16
-32
-16
0
32
32
32
16
16
0
0
-16
-16
0
0
-16
-16
-16
-16
0
-16
-16
-16
0
16
32
32
32
16
0
-16
-16
-16
-16
-16
-16
-16
-16
-16
0
0
-16
0
0
16
16
16
32
32
16
0
-16
-16
-16
-32
-16
-16
-16
-16
-16
0
-16
0
0
0
16
16
16
16
0
-32
-48
-48
-32
-16
0
0
-16
-16
-16
-16
-16
-16
0
16
0
0
16
16
0
-16
-32
-16
0
0
-16
-32
-32
-16
-16
-16
-16
-16
16
16
16
16
0
16
16
-16
-32
-32
-16
-16
-16
-32
-32
-32
-32
-16
-16
-16
0
16
16
16
16
16
32
16
-16
-32
-16
-16
-32
-32
-16
-16
0
0
-16
-16
-16
0
16
16
16
16
16
0
-16
-32
-32
-32
-32
0
0
0
0
0
0
0
-16
0
0
0
16
0
0
0
-16
-16
-16
-48
-32
-32
-16
-16
0
0
-16
-16
0
16
16
