112
128
0
16
0
48
-224
-208
-304
-176
144
-288
-528
-528
-336
-192
144
368
512
-304
-112
-80
96
112
96
-224
384
144
80
-16
128
-64
-256
-256
80
-64
-128
0
-128
0
256
592
368
-80
-80
-192
80
224
464
320
320
304
-272
-112
-176
-288
-336
-176
-16
80
0
-304
272
112
-288
-144
-128
144
-32
-96
16
0
-336
-336
48
448
-144
-304
-192
16
80
-256
0
-112
-192
0
176
-256
96
112
256
416
-352
-112
-96
-48
368
192
112
-192
-128
-320
-496
64
352
208
-160
-192
-80
256
144
176
368
336
-288
128
160
240
112
272
96
256
-16
-432
-48
272
208
-64
160
-128
-400
-304
0
-176
64
-80
272
368
672
528
-192
-304
-160
192
512
96
-592
-240
-80
160
112
80
208
160
592
384
-400
-640
-96
240
688
480
208
32
-80
288
560
464
64
32
304
0
-272
32
208
32
528
240
-48
64
16
-368
-224
0
304
192
-64
-144
-144
-192
64
-32
16
-96
-160
272
320
224
304
-96
-208
48
-288
-16
160
-32
176
224
-208
-672
-272
80
160
-16
272
400
208
-32
416
-176
96
528
448
16
-384
0
-96
-128
-80
-64
96
-96
80
0
-32
-256
-384
-144
-80
-112
112
48
192
576
128
-160
-64
352
512
240
-96
-368
96
320
384
48
80
144
-240
-96
-112
240
352
192
-16
-192
-16
-304
112
112
-480
-320
144
-336
-368
-16
288
-224
-704
-192
-160
-144
-32
416
272
96
256
432
-128
-112
-336
-640
-560
160
16
-32
48
-16
-48
-336
-784
0
0
32
-304
-672
-464
-240
-656
-352
208
64
-144
-288
-128
-64
0
-64
96
176
384
272
160
-48
-208
-32
560
400
336
-112
-368
224
400
48
304
192
16
368
160
208
368
176
272
160
-208
-32
-336
-176
288
176
-112
-48
128
288
384
-128
256
160
-32
128
-128
112
-16
-160
-16
96
-144
-272
64
128
16
224
-32
224
-144
112
224
-176
-368
-80
208
-464
0
192
144
304
-288
144
16
0
336
-224
-208
352
240
-464
-320
112
-688
-288
288
288
192
48
-240
432
544
272
192
-112
-160
-176
-48
0
32
48
464
-16
-272
-368
16
160
80
96
-208
-64
192
80
0
352
80
-432
-256
-96
96
-192
-512
-544
-256
-128
-208
-400
96
336
224
96
160
-176
-80
-448
-544
-352
-240
-32
-80
-272
-288
224
-48
-176
16
-272
0
-48
400
208
528
-64
-672
-192
32
-288
-528
-128
0
128
128
512
224
-48
-288
112
-48
320
64
-32
-32
-160
-432
-384
128
-144
-16
192
-32
-480
-528
-272
384
544
144
-144
-112
32
-176
-336
-432
-224
-160
-48
320
-64
-144
-192
-160
256
-432
-128
96
272
208
112
48
112
64
112
160
416
272
64
320
464
48
64
112
-64
64
-192
-64
16
336
-80
-176
-32
240
-16
-416
48
-224
-16
-192
-368
-112
64
-80
224
784
608
560
464
-48
0
272
336
-224
-80
-144
-128
-64
352
80
32
144
256
0
256
64
-160
-560
-256
-96
-16
-320
-320
-16
80
-288
-48
-368
176
432
208
-96
-416
-176
32
-80
48
32
48
-64
16
368
64
144
192
48
-240
-48
224
320
80
-288
-48
240
-176
-288
-48
-144
-32
336
128
128
-112
240
-304
112
432
-160
176
64
-128
464
-64
-576
0
96
-368
-256
-384
-208
-64
-160
-240
272
48
176
-176
160
-416
-448
64
-176
-240
-160
96
144
-48
-256
-176
-128
-224
64
-288
-208
448
368
32
48
240
240
144
-208
-224
288
336
-80
224
304
-400
-336
-224
-352
-352
128
96
-80
80
384
160
32
240
272
16
80
-208
128
-32
-16
208
176
-512
-624
-240
-176
-352
16
448
176
80
-144
-368
-400
96
144
-384
16
-144
80
112
-256
-240
-48
32
-96
48
-16
0
224
-208
-320
256
64
160
-48
-80
-160
416
368
-192
112
-80
-288
-128
400
32
-64
80
-112
-128
96
224
0
-448
336
208
-320
-528
112
-432
-384
0
144
-48
-176
0
-432
-80
-368
-416
288
416
144
-96
16
64
384
272
-464
-64
-256
80
-176
400
160
160
128
128
256
400
-128
96
576
-48
-432
-112
-16
336
304
128
48
-400
-112
-176
352
-48
112
-256
-112
-48
16
208
-16
112
176
512
160
272
0
-128
-64
32
-128
-368
-96
-128
368
384
176
-32
-512
160
576
-144
-128
400
240
80
272
32
-352
0
480
-128
-400
-224
544
0
64
-192
-256
-64
-64
-144
-240
-192
-656
-336
-336
-32
176
-176
-224
288
192
256
704
144
-384
-368
128
-80
32
560
816
-16
-128
-288
48
-272
-368
-304
-320
-32
400
320
-432
-416
-96
16
160
32
272
400
32
48
592
448
192
0
288
256
-80
80
-496
-240
-208
-176
-464
-48
128
-144
-112
-256
0
112
-144
-32
176
496
256
576
288
80
64
-128
-144
-80
176
272
-64
400
512
0
80
224
224
-32
-336
16
16
-32
-192
-96
64
-416
-496
-320
0
528
272
160
-192
240
80
48
16
64
48
-16
0
304
400
0
-176
0
-144
-160
16
144
144
-112
64
-352
-64
-272
-16
176
432
272
80
-240
368
400
-48
96
128
240
336
224
96
-16
-96
64
-272
-336
-64
-32
192
96
480
96
-496
-240
-320
-448
-64
464
160
256
112
-304
-32
112
80
432
48
-16
-112
256
-240
112
256
576
272
-352
-656
-304
-160
80
336
-112
-208
-240
-320
-240
-96
-48
-48
112
368
128
16
176
160
0
-64
16
-112
432
256
144
240
-64
-128
-144
-336
16
0
16
16
-16
-64
96
32
112
224
-208
592
64
496
80
32
288
64
-336
-368
-400
-320
-224
-192
288
176
-144
96
240
224
128
304
144
-160
64
48
32
-16
-208
-48
32
272
-288
-448
-464
-48
-320
0
288
-208
-288
-352
-592
-592
-32
-208
-96
-176
208
272
-160
0
176
-208
-464
-368
144
240
256
240
384
592
304
16
-192
192
752
624
272
-368
-208
-288
144
256
-16
-144
-32
-80
80
288
512
304
-96
448
-80
32
480
112
-144
256
112
144
-464
-368
432
304
256
416
384
16
192
448
288
48
-128
-128
0
-160
32
-208
-80
-192
-64
-112
256
-112
-224
528
784
304
240
352
464
-80
-272
-192
32
128
176
-128
80
368
64
80
-96
-288
80
400
16
0
80
-80
64
176
112
48
176
-304
-272
-128
-96
32
240
160
-128
-288
-384
368
304
-576
-592
-32
272
-144
-32
32
128
352
-16
208
272
464
592
464
128
96
0
-512
48
96
-400
-32
176
144
336
32
-448
0
576
480
144
-192
-64
160
416
176
256
-16
224
-112
304
0
272
336
144
-160
192
96
-432
-352
96
560
304
-240
0
-608
-64
48
-128
-144
-256
-224
144
576
448
256
-272
-448
-16
128
-384
-176
-256
-416
-416
208
-32
-512
-176
-336
-272
32
-112
128
208
-544
-112
480
160
48
-32
-80
-64
144
48
256
624
432
-112
-32
224
112
-336
-464
240
144
-400
-480
96
64
192
-320
-384
16
0
16
304
-48
-96
-32
288
416
-48
-80
0
-208
288
288
-464
-288
112
-240
128
-208
-256
96
0
-48
144
464
208
-592
-352
-176
-512
-320
-384
80
288
592
128
80
176
-32
-32
-352
96
160
-288
-224
-64
0
128
144
-176
-304
-320
-192
-96
320
512
80
432
464
192
400
-192
-80
-224
-864
-64
528
528
192
272
-304
0
-144
160
352
192
-32
160
-144
80
496
208
-96
96
832
144
-224
-240
-160
-256
144
112
96
256
32
288
80
-432
-144
384
-64
192
176
32
48
-80
-144
-208
-80
-128
48
-336
-256
-160
-160
-480
-96
-384
-320
-208
-144
-272
112
128
64
48
-32
-208
-80
-96
0
-96
0
32
48
48
160
-16
48
256
-96
-256
-48
-96
544
-64
-544
-512
208
352
-256
-192
-144
-32
256
-224
-288
-208
160
-224
-192
112
368
576
0
-464
-272
-96
-320
-336
400
704
160
288
80
-304
-176
96
0
-192
96
-160
-400
96
176
112
-96
160
96
112
352
480
208
-176
-240
0
-304
-96
-64
-208
0
80
-272
-256
-352
-720
16
-192
-272
-208
-688
0
-16
176
0
128
0
-528
-96
336
144
-320
-208
160
-176
160
368
96
-384
-224
-256
16
320
-160
-640
-400
144
144
-80
-352
-544
-592
-832
-432
16
-112
-288
-384
-16
-80
192
144
192
-224
-128
-272
-416
-144
-272
-128
128
80
-336
-416
-240
288
576
-240
-208
240
352
64
384
48
-64
112
144
48
16
-16
0
-144
320
112
-192
-528
-192
224
144
0
176
144
-32
112
32
64
-48
32
32
-112
480
-144
-336
96
448
144
224
336
-160
-304
-48
-128
-144
432
448
0
144
-176
-160
-112
272
144
160
480
-192
-304
-464
128
160
16
576
-432
-112
-16
256
192
-160
64
336
-96
-64
-128
160
192
560
672
80
240
288
272
16
80
96
112
-176
208
64
224
-48
144
64
64
-48
176
-112
-304
416
416
224
80
144
-80
128
96
48
192
128
32
-496
-48
-160
0
416
-16
-160
-128
-352
16
-64
496
-64
-240
352
-128
-128
-80
0
-80
416
368
16
-320
352
384
32
-272
-256
-368
-448
-240
-96
-16
-112
-160
112
160
224
-48
-128
96
496
192
128
-368
32
544
528
208
-352
-384
-192
-528
0
-144
-128
-32
80
208
144
272
-80
-16
-16
-32
304
256
656
320
272
432
112
304
-256
-240
256
256
512
320
640
432
-16
-64
-64
-128
64
-128
-32
208
64
-16
64
64
-128
-64
-400
-176
0
-192
0
272
-576
-176
16
-544
-464
32
-128
-384
-464
-288
-32
-528
-400
-176
-176
16
64
176
-96
-352
112
448
-32
0
-272
16
-208
352
0
-256
-16
-272
-304
-128
-304
-368
-96
64
-272
64
-416
-400
336
96
160
-96
-240
-448
-560
-528
-352
80
64
32
64
-288
-672
-304
672
384
-112
-336
-416
-576
16
208
-96
0
208
-192
-144
16
256
240
-224
128
384
448
688
112
64
-224
-384
80
32
304
176
272
80
-80
48
224
-128
-304
0
336
464
368
-16
16
336
0
128
-112
208
208
-272
-208
96
-128
-224
-320
0
560
-32
-128
-80
-496
-304
-192
-288
-112
-176
16
192
64
-80
-208
-272
224
160
128
48
0
-272
-400
-368
48
160
32
224
-224
320
320
128
-240
304
432
288
96
-64
-480
-512
-160
0
16
96
64
112
-32
48
640
624
-16
-512
128
-48
-384
-224
-96
-32
432
592
288
400
-192
-32
432
-192
-256
-384
64
176
-160
0
128
112
208
-48
-64
176
208
416
128
48
-320
-16
112
192
-224
-448
80
-16
64
576
0
-304
-144
-176
-496
-16
-160
-256
160
528
-32
-432
48
-320
-64
336
256
-96
-112
-96
-112
-256
-432
0
-208
288
576
-16
112
-272
-192
-64
-144
-208
-416
272
-160
400
176
48
-256
160
-16
-208
-32
-240
48
-128
-32
-336
-400
-48
48
-176
400
336
0
-656
-416
-96
-64
-32
608
96
-192
-352
-96
-336
32
-96
224
-96
-96
-304
-288
-240
160
400
-128
-704
-576
-176
160
288
176
-384
-672
-272
144
-160
272
-32
-288
-96
-480
-432
-144
-368
32
144
80
256
96
-160
112
16
-96
-288
-64
240
-96
336
-272
32
368
496
368
80
-64
-208
-400
-352
-224
-176
224
80
144
-128
-288
96
-16
-560
-432
160
304
400
112
-144
-384
0
-32
48
288
16
256
-48
64
-272
-64
-96
-64
-192
16
64
-160
208
64
240
464
240
-80
-224
-384
-208
256
-128
-336
-128
-352
-112
96
-64
64
-176
-48
224
-128
144
-48
-128
288
-224
0
-144
-368
-288
-48
176
592
160
352
-160
-384
-16
144
336
144
-320
176
32
-192
-240
-224
-560
-240
80
-80
208
224
80
224
-96
-160
544
400
224
64
112
-48
-48
288
528
464
496
272
400
272
-32
-80
64
192
-240
-304
-496
80
-304
-448
-32
-352
-432
-160
16
48
224
-80
48
544
80
-80
-240
-640
-208
-400
-416
-448
112
288
176
-80
208
192
-256
-320
-32
48
-144
0
-128
144
272
-304
160
400
96
-80
-80
-80
-400
-128
304
-48
160
128
32
-528
-352
-288
-96
-144
-432
-512
128
-144
-32
-48
-288
-16
-224
80
128
-64
-48
128
64
192
-128
-208
-128
48
-48
512
464
-176
-96
-496
-512
-96
272
-256
-480
-432
-112
16
-560
16
0
80
336
-112
-96
32
80
160
-32
96
448
-224
-160
-16
-32
-592
-336
96
496
224
336
208
352
304
-256
-16
208
-176
64
-176
-192
240
-128
16
-32
-32
128
32
32
128
272
-64
-240
-144
-128
80
192
32
288
336
288
368
864
544
-96
176
160
-304
-432
-720
48
368
208
128
224
320
224
-32
-352
-176
-80
-64
496
-112
128
128
160
208
272
48
192
-224
-336
-368
-672
-384
-176
-208
-336
48
-112
0
352
-304
-512
-112
-16
-64
-144
512
208
-160
16
-176
128
-32
-352
-752
-352
448
32
48
-192
-96
336
224
-32
16
368
480
-32
320
-48
-816
32
64
176
352
496
128
-16
-16
-496
-160
128
96
-80
-144
-288
-800
-208
-592
-432
-16
128
-80
144
144
352
352
416
224
16
-288
-32
176
-368
-208
272
384
-32
480
192
32
-192
0
-32
272
256
144
112
-48
-256
176
144
-48
-16
96
-176
288
-32
-704
-368
-608
-192
-160
96
-176
-224
-544
-432
-432
-160
-336
-64
-48
320
-352
-304
-112
-64
160
272
224
544
192
96
-128
-96
16
288
464
512
528
-352
-208
48
64
-240
-32
96
-272
-48
48
-64
80
-64
272
-16
-512
64
192
-144
48
-112
-224
-176
-64
-16
-144
96
-336
-224
-288
-208
-144
320
560
48
-64
-320
352
256
-64
-48
-208
-144
-16
-48
-272
-400
96
432
48
432
384
-96
-32
-240
-496
-352
-304
-720
-432
112
0
96
-416
-592
-208
-64
96
-96
-224
-384
-208
-64
-416
-96
144
-64
-80
-208
224
640
64
-80
112
224
304
-112
256
-80
304
-48
-528
-368
80
160
288
96
-144
128
-112
-272
160
240
560
-192
-368
-80
176
0
96
16
400
272
48
112
-432
-208
80
160
384
416
-256
-192
-48
-656
-304
0
96
64
-144
240
32
-16
-144
-272
96
96
-176
-160
112
80
-448
-496
160
656
96
-112
80
512
192
-240
0
-144
432
112
144
176
-32
48
-80
80
272
208
-480
-272
-64
320
-144
-240
-224
-96
-176
528
272
112
416
640
96
-288
-272
-176
-272
-240
-176
-240
-96
112
-160
272
-80
240
80
32
272
-160
-480
-96
352
-208
-240
-240
-96
96
0
-176
-192
-560
-368
-48
-112
-400
-336
-32
-352
-336
16
-144
112
192
-160
-432
-272
-224
-48
32
-368
-272
192
-320
352
-352
-192
-320
208
176
-16
-48
256
464
416
320
208
272
32
560
336
-416
-112
208
-80
160
192
0
208
-320
-560
-224
-448
-592
64
560
496
672
208
288
432
192
416
176
272
16
112
176
432
80
-112
80
-192
-80
-304
-192
-176
-336
-48
-48
-224
208
256
80
-176
-16
-352
-512
64
256
352
-144
-176
272
160
224
288
304
400
560
464
64
48
-176
-208
-80
160
528
-128
-272
-448
-128
-112
16
96
-48
-320
-240
-192
208
-16
304
416
112
496
496
-224
-736
-832
-816
16
-96
-368
-608
-528
-80
400
128
16
-336
-48
-480
-384
-80
336
592
464
384
-256
-16
48
-368
-320
96
160
32
464
64
-80
208
208
352
16
0
-224
-256
416
448
176
432
96
-448
-16
-32
112
-160
-288
48
320
240
112
-608
-208
160
-96
80
0
-176
80
16
-64
256
160
-160
32
-48
144
0
-32
-240
-128
-192
192
-32
32
-128
208
32
96
-208
272
128
128
192
448
-192
-224
-160
-16
-32
-208
64
-48
-16
208
128
48
144
192
-144
64
80
144
240
272
144
-160
-400
-160
-160
-64
-48
-32
-352
-336
32
-304
-448
-16
112
-144
-304
-80
-528
-32
-368
-256
-272
48
-224
-704
-176
0
-80
-320
-64
224
96
-352
-544
-544
-288
-432
-256
-224
-384
-96
-112
-432
-288
-64
-256
-656
-160
64
464
16
-320
-384
-208
-16
-16
-16
32
208
384
416
144
-432
-320
-416
-96
-384
96
32
-240
32
16
-32
64
96
-32
160
384
-128
-144
16
-64
48
400
256
176
-128
-608
-320
112
224
208
-240
-368
224
80
-352
-128
-96
-352
-112
-128
-224
-64
448
-16
32
-32
-560
-320
-128
-496
-736
-464
-240
-224
-368
-320
-16
96
-224
-144
-272
-512
304
256
-144
-224
-416
288
160
32
-64
-48
432
448
416
16
304
192
32
-288
-128
144
320
576
304
-16
-208
32
96
336
-256
128
16
64
-240
-256
-384
-288
-160
144
64
32
-208
112
96
-16
304
-240
-160
32
128
224
96
-384
-320
-192
-272
-192
-288
-176
32
-160
-672
128
144
-96
-176
-592
16
432
-64
208
16
400
176
48
-48
-176
-96
80
-32
-256
-32
-336
-432
-320
384
-432
-288
-304
-160
-128
-128
-80
48
-544
-128
288
32
-336
432
208
-144
-368
-128
400
272
-16
-288
-560
-304
32
384
336
-240
32
-160
160
480
96
-432
-32
0
0
-400
-32
48
-320
304
176
-320
480
32
16
112
-224
-272
-512
-256
320
80
-64
-32
-304
0
192
-544
-240
-320
-432
48
-16
-224
160
352
32
-128
96
416
272
144
-240
-208
-80
144
288
-16
-80
112
80
-336
-768
-816
-144
256
-48
-288
208
96
128
272
-112
-304
-512
-16
144
224
-96
-336
48
400
112
0
-240
-336
64
48
176
80
-144
-320
32
144
96
-112
-448
-544
-208
-240
-320
-176
-320
128
-112
-80
624
320
320
112
-224
-32
32
-16
-16
464
416
32
432
416
416
96
464
-80
-272
16
192
16
-64
96
304
176
-192
-400
-112
-32
-192
112
144
-192
64
640
112
192
528
512
-208
-192
128
-16
-112
112
384
512
368
64
80
-48
-352
272
368
240
432
432
-288
-144
-160
128
-96
-176
544
208
224
592
320
304
560
272
-80
208
192
240
0
-48
-48
-240
-48
272
736
-32
-576
160
288
0
112
-32
256
368
192
-32
-368
-320
-64
-496
-256
192
-64
-256
-192
-160
288
384
-496
-272
416
656
-320
-560
-32
-512
-288
272
240
160
240
176
-336
-96
-304
-16
-64
272
128
-176
416
80
0
240
384
96
-96
-160
-48
0
-320
16
32
160
-160
128
240
32
224
352
32
32
0
16
208
240
32
-160
-432
-176
-112
208
368
240
320
80
-128
-464
-512
-320
-176
-320
-48
192
-128
80
416
448
0
0
416
320
560
592
320
16
-224
128
624
256
-256
-256
-80
272
-80
-16
160
272
-96
336
-368
-128
256
80
-144
-96
336
224
64
0
-16
-80
-368
224
112
624
144
64
80
80
-144
-64
112
336
64
-240
-416
96
16
-112
-64
-80
-288
-144
496
-32
112
112
272
240
352
192
176
-496
-272
64
-48
0
-208
0
64
144
-176
176
-144
-736
-240
-128
80
32
-512
-464
-288
-464
-336
-32
96
-608
-240
16
-208
-192
-512
-416
32
-32
-176
224
-80
80
128
128
352
64
96
-256
-48
48
256
128
432
-176
48
304
80
128
-112
-16
48
160
160
48
240
272
800
336
96
96
-48
-32
-336
-224
224
464
112
464
224
112
288
-144
160
-48
-288
256
96
-64
0
160
144
-48
128
-16
192
416
688
400
-272
-240
320
528
-112
160
-256
16
80
-96
-128
32
384
464
256
80
448
128
128
-192
144
-32
336
384
144
32
32
-80
-352
16
64
352
272
-32
-176
192
448
224
256
80
368
-48
-48
160
208
128
768
656
224
-560
-496
-16
48
608
672
512
368
224
-368
-224
-208
-288
32
192
-80
-160
608
320
256
592
-16
-464
208
384
704
384
-192
-288
256
-112
-176
64
320
208
176
-288
16
208
-48
16
512
112
-32
-64
64
288
-144
-576
-416
-384
-624
-208
-352
-48
-304
-272
-16
-32
336
816
496
96
288
-304
-240
112
192
-48
-480
-448
-336
-96
288
-304
-336
448
-96
-208
-512
-112
64
-64
0
112
368
-224
-320
-176
-160
-80
-64
384
528
-112
-400
-176
112
-64
32
144
336
480
16
560
256
512
320
160
-320
16
592
384
32
96
192
-144
-272
-144
-288
-16
320
256
64
48
144
208
368
96
176
256
192
80
-288
-112
128
-208
320
-16
-368
-160
48
288
288
-144
-240
272
-80
-304
144
336
-64
160
448
448
128
-560
-512
-384
-96
16
64
272
336
128
-64
32
-352
-656
96
-272
112
128
-80
336
0
16
-160
176
-304
-336
-480
-320
64
-112
-464
-160
-208
-352
-496
-192
-224
64
96
-240
32
400
-64
-288
-240
272
0
0
32
208
176
-80
-256
-64
-320
16
-64
-448
-448
-672
-336
48
32
48
-448
-448
64
32
-144
48
-48
160
-192
-464
-48
96
-288
-352
-368
-304
0
-32
-80
-48
112
176
-288
-304
112
112
48
-512
-288
0
320
320
112
112
0
64
608
80
48
0
112
112
-384
-96
64
-176
-112
-336
-96
-128
-32
-496
96
-144
-160
80
320
-288
-96
-128
-240
-448
-176
-336
-272
32
-16
16
0
-160
-64
16
-464
-224
368
224
-240
-272
32
128
-16
-112
-64
-240
-176
-48
-432
-464
192
368
272
0
-64
-432
-320
-272
-416
-112
-32
128
-288
96
-48
-288
48
-224
-16
0
-80
-224
32
704
752
448
-32
128
208
320
240
-96
448
-16
-528
-80
112
64
16
-80
-160
224
-144
-160
-48
176
160
48
112
128
208
208
48
144
-224
-768
-304
-224
-656
-416
-16
-96
-176
192
-80
0
272
-80
-272
-64
176
64
544
32
-400
64
-544
-544
112
176
-240
608
448
384
-112
-320
-160
96
-240
-64
-416
144
416
128
368
224
160
-80
224
96
-192
608
960
192
-224
272
112
-432
-96
-80
-304
-224
-320
128
-48
-16
128
-272
-128
32
320
144
-240
96
256
64
144
-256
-368
-32
64
-256
-16
224
80
16
-224
-256
-192
-16
32
-304
-32
192
-96
-560
-608
-144
288
368
112
-64
0
-32
144
0
16
272
0
240
240
64
-64
416
112
-64
-32
256
0
272
336
16
-336
-544
144
352
80
576
288
-128
16
208
176
-128
272
320
-128
-16
-48
-112
-288
144
144
144
368
240
0
-128
-16
-320
-192
176
304
-352
-240
-224
-144
-272
-32
-96
-512
-448
-400
16
48
-272
-176
352
64
48
-32
-256
224
160
240
384
672
384
-144
-240
-48
64
-512
-272
-544
-288
208
-16
-288
-544
-48
-48
-272
-176
448
304
-112
-128
-304
32
-160
0
160
208
160
336
-160
-336
-384
48
-192
48
0
-416
-224
-544
-240
-304
208
432
-48
272
336
-32
-48
336
-304
-336
-96
-176
48
512
128
48
-16
-256
-96
-64
-416
-784
-96
160
80
208
-16
-80
96
0
336
48
368
208
-160
-672
-544
-208
304
32
160
-128
-272
-144
208
-16
-256
-496
-384
-208
-288
-48
176
-128
-64
224
192
384
160
144
256
160
-160
32
-288
16
-64
96
160
-144
336
-336
-96
64
112
384
-16
-48
-96
-64
16
416
624
416
656
-96
-368
128
464
416
112
-96
-64
192
-16
-672
-208
272
-432
-256
48
144
-352
-48
144
-128
-464
-432
-176
-528
-256
-80
-112
240
-192
-64
-48
144
112
-96
-112
416
176
-336
-624
-160
96
-96
-464
-368
192
96
-400
16
-224
-240
-256
128
384
192
-352
-768
-336
-16
160
288
0
80
80
208
-32
64
-112
-432
-272
32
-160
-432
160
176
-160
96
-80
-272
-400
16
640
224
-320
112
16
32
-96
-624
16
192
-48
144
208
624
176
-32
-240
-128
-64
112
128
64
-96
-192
-256
0
-144
400
-32
-128
-176
-128
-144
-320
112
336
-16
16
48
-400
-416
-240
-128
-96
-560
-96
96
-160
-192
-304
64
416
64
96
-160
-320
32
-256
-480
-256
16
96
192
-48
96
-112
80
-240
-240
-208
64
192
144
-96
-48
-240
-384
-720
-240
80
32
192
-32
16
-592
0
160
400
0
512
-96
80
336
256
368
96
-32
-288
-384
-224
-320
-448
-320
-224
32
96
80
0
-64
-48
-304
-384
-448
-64
624
256
80
-288
-96
240
-32
128
144
304
-160
192
176
-288
-112
-224
112
224
48
96
272
-64
-160
-288
-112
208
208
-128
-288
-128
-192
32
-80
-400
-448
-80
272
208
32
416
160
-240
32
16
-464
-352
-144
80
704
240
192
-48
-352
64
-208
-192
144
240
400
448
272
96
64
320
848
224
208
240
-16
-224
-864
-368
-192
-224
0
0
-272
144
240
16
-80
-304
0
48
-176
-672
-256
-208
-144
208
224
656
448
-240
-80
16
224
16
-16
-352
-560
-352
-16
256
-96
-112
176
-208
-320
-272
-144
-160
128
256
368
-128
-416
-16
144
368
304
368
672
352
16
-96
-160
112
-112
-224
32
-224
-48
112
272
240
464
368
-208
-288
-144
-240
0
224
400
-64
128
80
128
64
96
-112
256
-160
160
464
320
-320
-272
144
-160
-96
-144
16
448
464
304
-112
-64
192
144
64
0
144
176
144
80
-320
-304
-496
-304
112
-64
96
80
-272
-240
-240
336
-272
-288
240
-32
32
-592
-288
-96
112
-160
-256
-128
-304
-176
-256
-144
256
208
16
-192
-48
160
416
384
256
416
-224
-352
-304
64
-80
80
272
304
-176
-48
256
48
-112
208
0
0
-384
-304
-336
256
432
128
-496
-96
32
0
-384
-384
-304
-176
48
128
64
-80
-176
32
128
-336
-128
-160
-256
-176
-192
-320
304
560
48
464
240
-256
-608
416
288
0
-240
336
256
16
16
80
144
256
304
-256
-272
176
176
-368
-560
-336
128
352
112
-160
96
176
48
112
-272
-432
-256
80
288
16
-160
32
336
352
224
224
256
-176
-560
-176
-96
-192
-272
176
480
0
-16
176
128
448
832
240
480
512
192
240
48
-320
0
80
160
144
-48
-256
224
176
0
32
-64
-224
-400
-112
-80
208
-256
-240
192
-96
-48
0
224
-96
0
144
608
384
304
32
-288
-368
80
-144
-144
112
144
80
192
-176
-272
336
64
-224
-64
16
-96
256
416
64
-304
0
384
-224
0
0
-64
192
-112
-304
-352
-320
-80
-496
-656
-80
80
-272
-320
64
384
48
-464
-432
-240
-96
224
240
64
-112
-96
64
-64
-448
-112
-160
96
-224
-304
-448
-304
-240
128
112
-64
-544
-336
128
176
16
-64
448
336
112
208
-240
-48
80
-160
-208
96
-128
-176
96
80
96
-192
-544
-272
-128
352
256
48
-80
272
-176
-384
-64
320
-112
64
-112
-320
176
336
528
528
576
144
-240
128
96
448
128
-384
-16
-272
128
224
192
-80
-272
-48
512
48
48
-336
-224
-80
-192
-112
-512
-48
304
560
608
-144
-96
192
192
96
176
-96
-368
16
192
48
192
-528
-112
-224
-96
-128
272
-80
-112
-64
-80
176
-32
-608
-320
128
272
-112
-48
576
320
192
80
-272
-400
-304
-256
-432
-96
-16
-416
-560
16
-272
-224
96
256
-112
-576
-336
-96
112
-64
592
-16
-352
-736
224
128
208
-144
-368
-32
-192
-192
-96
48
160
144
144
-192
48
224
144
-16
112
-256
-288
-64
-256
272
32
208
288
512
-304
-592
-336
-272
-176
-256
48
-192
-336
528
624
192
272
288
-160
80
144
144
16
-64
-256
-352
-32
256
144
80
-304
128
320
-64
-256
240
-16
-80
-416
-288
32
176
-208
144
144
-160
-224
-224
-16
-256
-80
-112
160
144
80
112
0
336
352
128
224
224
128
-16
-240
32
256
144
16
-112
-208
240
288
-96
-256
-48
-304
0
-32
-416
-64
-336
-544
144
-16
-432
-640
-624
-256
-16
-80
-320
-496
-144
-208
-96
-208
-432
-368
-576
-464
0
304
-112
-160
-352
112
-128
288
272
0
-224
-112
80
64
-48
16
-48
224
48
-176
-368
-160
-96
-304
-96
64
528
32
-80
-400
-128
-448
-336
96
-48
-48
288
-112
-320
-688
-96
416
16
-144
176
320
384
240
-176
-560
-320
0
224
160
112
224
64
-288
240
480
560
208
-32
496
256
16
-224
-240
128
240
-288
-288
208
112
144
-96
176
240
352
336
272
368
-288
-16
160
-112
16
240
48
464
288
464
96
176
176
16
256
656
192
-64
256
176
0
80
-400
-32
384
64
272
464
384
336
528
608
368
-144
112
176
208
304
96
-112
560
128
-208
-528
-368
256
256
80
-176
-112
96
64
-272
-256
-128
-112
-48
-32
-176
-32
336
16
496
96
-400
-128
128
256
176
128
-128
352
544
48
432
-64
64
336
272
-64
-208
304
64
400
160
-352
-384
128
320
48
304
-192
-128
144
448
224
-208
-560
-240
-160
-448
128
-144
-304
-16
192
16
-64
160
112
336
80
48
-144
-144
-16
80
192
128
48
208
-272
-208
-32
-240
-16
176
-288
240
176
-384
-208
400
288
0
16
-96
-336
64
-48
-80
512
768
400
368
208
480
368
-64
-544
-208
-128
96
512
448
352
-352
-176
-416
64
-64
80
208
240
-304
-352
-32
-464
-192
-592
-240
112
48
-416
-544
-384
-352
-112
48
160
48
-176
-384
-48
-64
-64
-80
-112
112
272
224
-512
272
416
-240
-64
-336
-144
-32
96
208
0
112
80
208
144
-16
80
320
304
-368
-320
-464
-48
-288
-128
256
64
-16
-560
-544
-256
304
544
96
-224
176
240
-176
272
64
-32
256
16
-112
144
-160
-144
-304
-32
-48
288
160
320
352
336
208
-112
-192
176
144
80
-160
80
288
128
80
0
-16
48
192
160
-96
-144
0
-400
-144
32
-240
-48
-256
96
32
464
288
416
304
464
560
400
176
-64
-224
-592
-624
64
-176
-528
-64
336
416
-80
48
48
-176
80
192
48
-144
48
32
-32
384
240
-96
-192
-208
304
448
112
-48
-160
-48
-304
-176
-256
416
272
224
80
64
128
176
-320
-544
-64
240
-32
-528
-32
-80
64
-384
-528
-48
128
-48
-128
-128
256
288
-144
-128
-208
-320
192
-96
-64
-112
0
-128
0
192
-240
0
-256
-496
-160
-160
224
128
-16
112
64
496
96
-320
256
208
-176
-80
-160
576
96
192
208
-96
144
48
-144
-240
-32
-80
-96
-128
-64
-416
96
-128
80
192
-400
-208
336
-176
0
256
128
-352
-368
208
-192
-48
208
-256
-608
-176
-400
-272
16
-272
-352
-640
-160
16
-128
-176
-368
-544
-336
48
-256
-64
208
48
-64
144
192
592
368
208
304
-288
-416
-32
-16
192
-512
-576
-96
128
-80
-352
224
208
16
320
416
64
32
-176
-16
-160
432
-32
-96
112
208
80
32
-688
-496
-400
112
-192
-416
-432
-16
64
112
224
160
64
384
-16
-288
416
144
-368
-80
-336
16
-320
-304
-272
-96
-80
-96
-240
-592
-464
48
-224
-48
-128
-96
16
16
48
192
-192
-112
176
64
272
384
0
-272
176
288
176
256
416
-480
-320
-48
-64
32
-48
96
64
96
48
128
16
112
160
-176
-80
-32
-304
16
144
-64
80
240
448
288
-224
-144
32
-80
-304
-224
16
-144
-368
-272
-400
-208
-384
-368
-144
48
320
336
256
240
32
0
64
176
304
432
368
-112
-128
128
464
368
16
0
0
-80
80
-224
352
-240
-224
-160
-144
-240
-288
-192
-48
544
288
432
176
80
80
160
160
288
-80
-640
-608
528
752
192
912
416
624
320
0
128
0
320
160
-176
48
112
480
-16
240
208
-224
-240
352
-144
-368
80
80
-208
336
336
-16
80
176
-160
-64
-32
496
304
-208
80
352
176
-160
-112
32
-48
48
144
112
80
-304
112
272
112
-144
304
-16
-240
32
608
32
-400
176
144
-16
272
-384
-144
240
-48
128
-112
64
-304
-352
192
48
-112
-176
16
-32
-240
-480
-80
208
-256
32
-32
-336
-224
272
336
-192
-320
480
-64
-352
-256
-416
-128
-80
-352
-608
-304
368
-16
-640
96
176
-64
176
272
-96
-304
-432
160
112
496
320
-96
-224
240
368
-176
-288
80
32
128
608
528
256
-240
-160
112
48
160
-176
32
128
496
448
-16
0
-480
0
-176
-544
-304
304
-400
-512
-160
-144
-320
-192
192
80
-96
-64
-208
-64
432
112
-192
144
-48
-368
-112
-400
-32
80
80
464
464
-80
144
224
144
400
128
-80
-256
-208
176
448
64
112
-304
-400
-272
-320
-48
64
160
-32
-128
-128
16
32
96
80
192
304
64
-128
-96
-144
-64
144
-16
-32
-304
-256
-176
128
240
240
-336
-512
-128
-80
288
336
144
-80
336
240
320
480
336
304
-144
-528
-384
-528
112
128
-400
-64
-160
80
-256
-272
-144
-336
-752
160
96
-208
-256
-368
-112
128
80
256
96
-288
-64
144
-16
128
-48
-16
0
-128
128
48
-64
-704
-512
192
96
32
48
-320
-336
480
608
448
320
-320
-368
-384
-144
48
256
112
48
320
-96
-80
48
128
64
-32
-320
-336
-144
-368
-544
-208
-80
176
32
16
176
-224
-224
-112
-240
-192
-496
-432
-416
-96
80
32
-48
-48
-128
32
0
-48
-64
64
0
-80
-48
-288
-384
-432
176
176
48
496
144
448
-16
-16
96
80
-176
-416
352
-256
-448
-592
-336
-448
0
-112
-192
0
64
224
-256
-256
-160
-544
-192
-192
-592
-560
-80
-96
-368
-144
-96
-256
80
-304
-480
-288
-416
0
-48
-16
208
-144
240
224
592
144
64
304
432
512
-96
384
64
368
16
320
256
-304
-336
-224
80
32
-160
-224
-48
256
144
-192
-224
16
-16
-48
0
208
256
-208
128
224
208
144
240
112
-192
-64
128
432
-240
-48
0
80
144
-416
-336
144
336
-16
48
80
-192
48
320
224
480
0
-672
288
720
-192
-128
464
-416
-224
-192
-336
304
240
112
-272
-272
-224
-752
-272
-496
0
144
-480
-336
-48
-352
-48
-224
96
432
96
128
0
128
368
-112
144
336
-96
-368
-240
240
0
176
144
192
192
96
128
-304
-464
-384
208
416
-160
-224
-208
80
16
-288
-128
192
-128
-96
-464
-80
-48
-240
-32
-160
-384
-432
-224
-256
256
-384
-368
-80
-816
-320
-64
-144
80
-352
-464
-256
-208
256
128
384
-272
-224
-128
-304
-64
144
256
-112
-96
-304
-80
-48
-272
304
368
80
80
208
-256
-304
-144
-480
80
-64
336
592
-48
48
112
336
176
64
16
368
448
160
-224
-320
528
272
480
176
16
432
176
-352
-272
-128
-112
-32
-288
-256
16
272
240
-80
-240
-320
128
-96
144
-160
0
-176
48
-160
-96
80
32
320
-304
-384
-352
-240
80
192
336
512
512
352
272
352
160
-352
-64
400
-80
-304
-112
96
224
480
224
224
144
16
256
800
400
272
-64
0
-16
224
-144
0
112
240
256
224
-32
-144
400
-96
96
192
0
448
448
224
-144
320
-576
-304
32
304
336
336
-80
-128
32
240
192
-288
-432
-304
80
-64
-64
-80
-144
-144
224
-96
128
-224
-544
-16
208
368
-112
-384
192
480
752
-224
-128
0
-16
-128
240
96
400
256
-256
-128
-224
-32
-272
-272
-320
-96
-64
-608
-656
-80
-272
-208
240
-176
208
48
-400
-352
-96
112
368
256
-64
-64
-320
32
-64
-208
-32
-96
-16
-304
-144
-288
16
-16
-64
-32
-288
-176
-128
-144
-592
-144
-96
160
160
-256
-240
-384
112
112
-368
-496
-16
-288
304
112
-288
-96
-304
32
640
384
480
-224
-400
352
512
176
-192
-432
-112
288
240
400
112
-48
-176
48
208
256
32
0
80
-272
-464
80
-304
-256
-48
-352
-352
80
-160
-64
16
288
128
0
-304
80
272
-160
112
-32
48
-96
-416
-16
-32
32
-160
96
-160
-16
288
16
224
144
-48
-208
-192
128
-64
-304
-64
64
80
208
464
-192
-128
-400
-336
-304
-96
288
192
-32
240
-304
-128
-384
-288
-128
560
16
-608
-192
-336
-304
96
160
240
-64
-224
-128
-96
-176
240
-128
-384
-96
48
-32
16
-176
64
544
-48
-336
272
352
-16
16
208
96
240
128
64
64
288
80
464
240
176
160
-224
-608
-256
320
32
256
576
240
-64
160
-192
-544
-240
-48
592
544
-48
-384
-432
-48
224
-144
256
272
80
48
-128
-64
32
-48
-208
176
608
-64
-16
304
48
-352
-64
0
16
304
544
304
-96
-16
-416
-656
-368
-192
80
160
0
-48
-64
-96
0
128
288
16
64
-144
-176
-48
-272
240
608
448
288
128
0
96
-320
32
-288
32
-144
-96
64
144
-208
-192
144
80
320
-160
-208
96
0
-576
-448
-32
48
-128
-208
-224
176
416
128
16
-96
208
352
48
176
112
256
-112
-384
288
304
16
-160
-128
416
144
48
304
80
-384
-80
32
112
336
-208
-32
-32
-48
384
160
-192
-448
-256
384
-112
-368
144
256
-192
-64
-64
-368
-224
-48
-368
-432
32
96
-224
-96
224
-224
-336
-192
96
112
32
160
-96
-192
128
96
640
368
336
208
-96
0
-176
-304
-432
-464
-368
80
-96
48
-192
224
384
272
752
352
-176
-320
-592
-336
-624
-240
96
96
416
96
96
176
-96
-128
-48
-16
-64
-32
-176
48
-336
176
448
192
16
96
-416
-352
-432
-224
-224
-144
208
-112
48
224
-368
-368
-272
-16
-736
-160
-144
-320
144
128
656
336
448
160
208
192
-208
-320
144
128
-32
112
32
208
-64
-80
144
176
144
48
112
320
-144
0
-208
-96
208
-224
-208
64
80
-80
-96
32
160
-112
-256
-384
-224
-224
128
432
32
-64
112
128
608
464
352
-128
-16
-224
160
144
192
304
-128
-80
-272
-96
-352
-480
-144
-112
-112
-32
-256
-672
-464
0
320
80
-16
-240
-80
-304
144
336
-16
-32
32
-176
-32
-368
-240
96
-176
-368
16
-256
-496
-176
16
208
112
176
-336
-432
-240
-256
-512
-352
-432
-96
80
208
448
416
64
-64
-224
-32
48
464
272
208
352
288
320
448
32
-160
-16
304
592
608
768
928
240
288
80
-32
288
208
272
416
464
224
480
400
80
16
80
112
-560
-400
-384
-96
-80
-384
32
304
-144
176
704
128
-176
112
48
16
-448
112
288
448
400
176
384
80
80
128
112
-96
-320
-128
-80
-256
-304
-256
-240
-464
32
-128
80
432
176
-176
-464
128
464
-32
368
480
368
-64
-128
-240
192
96
192
-320
-32
224
256
96
416
128
336
432
-160
-240
-448
48
-64
16
16
256
368
320
384
-288
-320
-256
320
384
576
-128
-368
0
-96
240
448
80
128
-160
16
208
112
0
-288
-272
80
64
0
-240
-112
-496
-416
-544
-560
0
240
80
144
-64
-416
48
224
192
-304
-32
-416
16
-48
-176
128
128
16
-320
-320
-128
-576
-592
-256
-288
32
-480
-240
128
64
-128
-368
-416
128
-432
-336
224
-336
-320
208
272
32
-192
-80
-288
256
224
-144
-400
-688
32
416
-16
-560
-640
-224
-304
32
-144
-896
160
48
-624
-448
32
32
-144
-64
336
224
48
16
544
-64
240
-128
32
96
48
624
240
-48
-224
80
240
-208
16
32
16
368
-144
32
384
96
-336
-240
-80
32
224
432
176
16
32
16
400
144
-320
-64
0
320
560
352
-160
-16
320
192
416
48
112
384
-112
-80
320
320
272
-208
-512
-256
80
112
480
928
128
128
96
-144
-576
-208
48
16
-48
128
320
624
192
32
-80
-144
64
-384
128
224
64
80
-160
320
-208
-400
-272
80
-416
-240
-16
-128
96
240
368
592
240
-144
192
400
-224
-224
224
0
-16
256
-112
0
80
384
128
304
-320
544
400
-48
-48
-208
-64
-80
-64
-304
-112
384
-384
-416
-256
-32
-224
-96
-48
-80
128
160
240
112
-128
48
272
-48
-96
-208
80
48
-192
416
576
64
112
-32
0
-272
288
-32
-32
80
-288
-192
-80
-304
-400
-48
96
-208
-144
-64
32
-16
176
80
112
144
-128
-112
-320
-400
-64
16
-352
-112
176
64
176
48
-144
128
-48
-192
-64
128
208
-112
-64
0
-160
-544
176
-112
-352
-320
0
0
48
288
32
-80
-288
-464
-384
-64
272
-64
176
-240
-368
-496
-400
16
304
576
112
-192
-176
-80
160
384
192
208
-48
-176
-368
-400
-32
48
-96
-336
160
-80
64
-288
-448
-256
-256
-80
-224
-320
-96
112
352
-160
-544
-432
-736
-400
-32
48
112
112
176
-128
-64
-128
208
400
0
-32
16
32
-176
-224
-416
-176
0
304
672
48
-496
-160
-64
256
16
-96
-272
-288
496
640
352
224
96
368
304
32
544
160
-112
-64
32
-144
-96
0
-16
-224
-112
-272
192
48
-112
208
128
384
144
352
144
224
176
-208
-496
-112
64
128
16
-192
-320
-16
-96
0
192
80
16
-128
-320
-96
368
-288
112
0
-64
-496
-256
-256
-144
-144
-16
400
176
-256
-176
-48
128
-176
-192
160
-208
-272
-32
416
-144
-368
64
-368
176
-48
32
16
128
32
-240
-176
-112
-112
-48
-80
-224
-384
32
160
240
336
112
-16
224
432
0
352
272
-352
-128
-64
368
256
-160
-288
64
-80
-208
-80
-688
-320
304
-112
-144
-96
32
-224
-144
-336
288
48
-320
-256
-464
-176
64
-16
0
-64
240
240
128
464
160
-160
64
112
208
-32
-112
256
16
16
160
176
-176
0
48
-272
112
592
-32
-96
-192
-512
0
128
336
-208
-336
144
432
384
-240
-128
48
112
-256
-64
80
96
272
-48
240
320
176
-208
-16
176
368
224
272
208
768
64
-128
176
-160
-48
208
48
-256
80
240
160
-320
-160
512
544
304
240
368
-16
-32
-112
192
224
304
-272
240
384
-464
-496
-240
112
16
256
-128
-80
-64
368
-144
80
320
176
96
-64
144
192
208
16
224
48
224
224
160
-80
-432
-512
-592
-624
-64
-384
-256
-208
0
-16
-48
-288
64
-80
-176
-64
-128
-720
-416
-128
240
192
-112
144
64
-256
-320
0
208
-96
-320
-256
-272
-144
240
288
160
0
160
144
-224
16
-32
-160
-80
16
496
320
-96
-208
-480
-464
-384
-480
-592
112
336
-208
-336
-208
-240
96
240
464
-352
-80
304
768
176
-256
48
-64
-160
-112
-144
-352
-288
16
64
-144
240
-96
80
192
0
208
336
16
96
-304
128
160
-16
160
-368
-256
48
-352
-208
240
224
96
288
32
208
64
0
-256
-496
-336
-112
-224
-96
-48
-144
336
448
144
-272
-320
-512
-112
-16
-112
0
0
-128
-192
-32
-336
-272
-192
128
528
256
96
-352
-192
32
-16
-272
-128
16
-112
176
192
-176
368
-384
176
288
-464
-208
-80
-304
-432
-416
-48
96
112
224
-368
-544
-176
112
192
272
-48
80
-32
-352
-176
-144
160
-144
-336
-336
240
160
-32
16
464
400
416
112
-48
-160
-176
256
192
16
16
-80
-64
-16
-144
16
144
-240
-368
-32
320
176
-144
176
64
-128
272
144
-96
-400
80
176
48
544
352
80
-144
32
-272
-96
-48
32
-176
-96
192
192
272
160
-160
-480
-32
-272
-176
400
480
448
-80
-128
0
-288
-496
-464
-224
-608
-144
464
352
-112
48
-112
-176
176
-320
-320
-192
-352
96
224
-112
-336
192
224
32
208
144
144
-80
-16
80
0
-144
176
-80
-256
320
784
320
0
208
32
400
336
80
-144
64
-176
16
240
592
384
-144
144
-48
128
-112
272
192
368
272
80
-64
-160
144
144
144
416
-32
-48
272
144
-144
160
32
-256
256
16
-16
224
-368
-288
-112
80
-112
288
-112
-448
-288
-336
-384
-128
320
80
-272
-160
-176
-384
-384
-272
-208
-304
112
16
-272
304
-240
-192
-112
-256
48
-64
224
32
-192
-160
-176
160
432
-48
-288
-128
-144
-288
336
64
-320
-256
-576
-224
16
688
176
0
-416
48
288
384
112
-48
352
192
48
-256
48
-304
-144
-432
144
-112
-96
-80
320
80
224
48
-272
-16
-400
-544
-48
-16
400
80
-384
96
272
576
304
-80
-16
-144
-208
96
0
-304
128
240
128
-80
-464
80
16
-48
80
-384
-160
-16
-288
96
-208
-80
0
112
-48
-16
-32
176
240
128
512
480
496
384
192
-48
-96
176
160
112
256
-48
64
-304
-544
-192
-288
16
-16
-96
192
-32
-144
224
544
-96
-496
16
-304
-304
112
176
16
96
32
80
64
320
64
-112
-48
-16
-16
160
144
288
144
192
160
-176
-192
400
288
32
-384
-304
-96
-304
192
96
176
400
288
-96
-448
-624
-384
-416
-112
32
-176
-144
16
-128
32
432
320
64
304
224
16
-336
-128
-128
-176
0
224
0
160
512
-16
-176
304
32
-208
64
-320
-16
-224
48
-112
256
64
-208
-416
-144
-400
-240
-480
48
192
-64
0
352
400
272
368
384
32
240
384
32
-400
192
32
-64
176
256
160
-160
-192
64
-160
256
32
-384
-336
16
80
64
-48
-224
-528
-320
-96
80
-64
208
256
80
-464
-256
64
256
400
256
368
256
-32
-224
144
448
496
560
128
-512
240
240
80
-96
80
112
208
64
432
528
-32
32
64
192
128
288
-48
144
544
240
32
-16
-224
-464
-144
208
304
-16
-352
-432
-384
112
272
544
192
-208
-288
48
-32
-48
-64
144
144
352
64
-48
224
288
48
-304
-224
-368
-192
-80
-80
80
80
-16
160
144
-16
-400
-176
-64
-64
144
-256
-480
-48
336
256
-16
-32
32
-80
112
-112
-240
128
-64
240
-176
32
-128
0
96
288
-48
160
-112
-256
-176
-144
-496
-160
144
-64
80
240
-160
192
-16
-192
-288
-96
96
-256
0
224
-112
-352
-256
-160
-304
-32
128
-224
-48
-240
368
576
240
-272
352
512
-64
176
576
432
320
48
80
-64
-336
-48
-32
-96
-80
48
-384
-112
304
112
256
176
144
176
-48
128
336
112
-432
-304
-272
-336
160
112
256
192
-160
-160
480
624
704
240
-112
176
544
176
-224
-208
0
80
304
-224
112
176
16
-112
-96
-48
-176
-112
-96
-128
-64
-192
-176
-16
-144
-16
-176
256
416
-112
-224
16
128
-240
112
240
-144
224
224
-48
16
176
-144
-96
-112
-160
-208
-192
-112
128
176
-64
-480
-464
-128
-160
-48
288
-64
-208
544
176
-160
160
-128
16
-96
-224
-272
-144
64
128
224
128
304
240
96
-16
208
208
32
-32
16
64
192
288
16
144
64
-48
192
336
96
48
32
-224
-80
-48
-160
16
-272
-48
160
112
-96
-144
-144
208
64
256
208
288
448
128
576
0
224
-32
-512
-208
-128
-48
-320
-368
-160
192
48
-208
224
672
80
-160
112
-208
-256
144
-32
288
-80
-144
-48
-208
-64
496
608
-16
80
144
80
-416
208
160
-128
-288
368
224
96
-352
-160
176
384
-80
-496
112
272
-128
64
96
-192
-560
-400
96
32
-224
400
48
-80
-400
-80
208
80
-224
-80
32
400
224
-144
-192
576
528
-240
-64
-160
-416
-480
-272
-80
336
720
272
-208
32
-304
-320
-48
80
-96
-32
-368
-112
-304
-672
-384
432
480
-64
-80
-432
-96
-160
-304
-544
-144
112
-144
64
64
32
-256
-96
96
416
80
16
-16
-368
192
128
416
-352
-288
-128
-16
80
544
272
-64
-96
240
-208
16
416
96
128
-176
272
144
144
-16
112
-144
-80
-208
-208
-112
-64
16
128
112
16
-224
-48
192
16
48
-176
-192
160
-112
-352
-208
-32
-96
-336
208
688
400
128
-224
-128
32
-80
-208
-240
-192
-80
-256
-192
-48
240
272
-144
112
496
128
-192
-512
-336
-320
-128
-192
320
448
384
240
48
-192
48
32
16
-208
-480
224
464
-240
-144
-432
-336
-304
-320
-128
-144
-16
-160
64
432
96
-192
48
32
-208
-320
-240
-96
-48
-176
704
96
-96
192
-32
-512
-16
80
-560
-544
16
240
-112
-160
-368
112
96
144
240
128
-288
-240
-304
272
-80
32
-80
-256
160
240
96
80
352
96
0
-16
48
160
-176
-336
-144
512
256
-80
208
-176
-448
-128
-592
160
256
-48
-224
-192
272
464
208
-64
-400
-480
-304
-96
0
-368
32
48
-160
112
176
64
-192
-64
-176
80
256
-144
-80
-192
-736
-256
-288
-448
48
-416
-144
288
192
224
240
400
-128
-112
400
-32
-32
-128
-208
-16
368
80
0
-16
320
576
208
16
-208
-16
384
192
-80
240
144
64
-448
-496
-256
-240
-304
-400
176
-16
-288
-272
256
352
-48
-352
-288
144
-272
-32
-480
-288
-272
-208
-112
-352
-432
-368
-448
112
96
-192
-480
-256
16
-64
-336
-256
144
128
64
224
176
-16
208
-176
192
160
-80
48
-352
64
-64
-48
144
448
144
112
96
-336
-224
-384
-336
144
-256
-336
-96
208
-16
-288
-128
128
-144
-192
-48
352
112
-432
-272
-416
-384
-64
-208
-192
-288
-256
-32
160
320
96
-448
144
48
-176
-80
32
160
32
-496
-384
176
64
-176
192
208
-224
-336
144
80
384
640
-64
320
400
224
256
48
256
-256
-176
416
128
-272
-48
48
-144
-96
-64
384
80
-128
16
48
-16
-384
-176
464
-16
-160
-128
-528
-208
-96
-80
80
16
-208
64
-240
64
-64
64
-176
-288
80
96
-192
-96
-192
16
192
576
112
-400
-592
-384
160
16
96
144
80
144
16
16
-256
-176
-272
-384
-320
-96
-448
-272
-112
-48
-16
128
128
224
320
-256
-80
-496
-48
-192
16
192
80
-384
-464
-208
64
-288
160
352
368
304
144
-112
-368
-80
448
528
-80
288
160
80
80
-144
-192
320
416
64
592
640
176
-224
32
-288
-192
-112
336
-176
-432
-144
16
224
384
-288
208
16
-384
-112
96
384
368
80
-96
160
272
96
16
208
480
-192
-112
32
-32
416
176
-112
544
176
80
240
608
400
-224
-96
432
304
128
16
-48
-272
128
240
144
272
176
-320
-720
16
176
-96
-144
496
400
544
432
464
48
96
352
352
432
80
176
192
144
96
288
32
192
-352
-272
-48
-64
-96
-464
-208
144
240
144
-144
-224
-160
-384
144
-32
-160
160
-368
-48
96
-224
-240
464
-112
-288
-224
-288
-352
96
464
-352
-256
128
-32
496
288
256
336
256
112
80
-208
-448
-400
288
192
144
304
-240
-256
-320
0
384
656
592
192
32
-64
-368
240
368
-208
-176
-32
96
288
256
-192
-96
192
-160
-80
-336
48
256
288
-144
-192
-32
-96
208
16
-112
128
-48
272
224
16
736
96
32
80
224
-112
-16
-80
-176
320
224
320
160
352
560
640
496
544
240
-144
256
80
48
-160
-176
-96
-144
64
384
448
320
112
32
528
-48
-336
240
256
512
272
-256
-112
160
-432
-208
-512
-320
-224
-224
464
352
-288
32
16
-112
240
768
416
48
368
336
-48
-336
-112
-224
-208
-176
-128
-128
272
48
-112
272
144
128
-48
208
448
368
-192
16
112
448
128
-208
-448
192
96
-192
112
-96
144
96
-112
-192
-192
-336
-32
160
128
32
16
176
64
320
352
256
272
32
-80
-128
416
368
96
-224
-464
-208
-208
-16
384
16
-400
-192
-96
-176
192
80
-32
-256
128
464
-64
-368
-112
-80
208
16
-48
-272
-192
-144
-448
-112
-80
304
240
160
288
160
224
0
288
304
-208
-352
-304
-336
-208
-176
336
144
-48
160
80
-368
-144
-80
-96
-288
-288
-176
-112
-240
-144
256
-160
32
-64
-352
-576
-240
208
128
272
560
208
-80
-240
-112
-192
32
-16
-144
-80
-96
-80
-352
-736
-224
-32
-320
208
-112
592
512
-288
400
784
320
-384
-224
-208
-240
-400
-608
64
272
16
-560
-224
384
320
80
128
32
-256
-272
-512
48
-272
-624
48
416
208
48
96
624
304
224
192
96
144
112
-112
160
-160
-128
-336
-528
32
192
48
-112
-128
-272
-64
80
-80
-96
-208
-400
96
272
-224
-288
-112
-64
160
0
80
512
-64
-384
-288
48
64
256
-256
-80
-304
-400
208
64
32
-144
288
96
-144
48
240
-16
-176
16
-240
256
672
160
-288
48
48
-368
96
352
528
176
-464
-560
-304
240
-64
48
48
64
-16
64
64
-528
-416
-48
-96
-16
-16
-208
-208
-240
464
400
224
96
256
176
80
368
736
-96
-48
176
-176
-272
-272
-384
-16
-192
-128
-16
112
32
-416
-720
-272
-208
-176
-576
-432
-416
-160
-304
-448
-80
64
-160
-32
272
240
96
448
480
672
416
64
32
128
400
368
16
304
224
48
592
880
128
-176
32
48
-208
-112
-176
176
176
-160
-192
-240
-176
-416
48
-32
-144
-304
176
320
-192
-16
-160
-192
-416
-256
-80
320
288
-256
-16
96
-352
-544
-192
-560
16
448
192
208
224
128
-144
-256
368
240
-192
-304
-336
-416
-496
-272
-112
-208
400
464
448
368
48
96
-368
-320
64
64
80
208
112
48
16
80
-48
0
144
272
-288
-336
-320
240
128
-304
-208
16
128
-176
-304
-272
-144
208
-80
-208
208
32
-416
160
32
-256
32
48
-528
-384
272
-256
-128
-32
32
-112
-208
-368
-352
0
112
-224
-112
96
-80
-208
-192
-304
-224
-112
32
-432
-32
-176
-80
48
352
368
-96
288
224
288
224
-128
-192
-272
-176
-272
-144
-64
80
-192
96
-112
-432
-368
-496
160
576
128
-64
-160
-288
32
448
144
-240
64
-80
32
-272
-240
-224
-336
80
-144
64
640
288
192
-320
16
512
688
624
432
-48
256
304
208
-80
464
288
-128
-112
80
-144
16
128
-160
-288
-352
-208
16
256
-48
-192
160
112
-16
128
272
-128
-240
-32
208
-16
-240
16
-304
-384
-384
128
-96
256
-48
-432
48
-208
-192
112
384
320
560
288
96
176
128
-16
16
-64
256
144
-128
-512
-96
560
624
192
-480
-96
112
-160
-400
-336
80
-144
-240
-112
-32
64
368
272
-320
320
288
224
288
32
224
448
352
272
400
-32
-416
32
-144
-32
64
-112
-352
-352
208
64
-16
-208
-320
-208
416
304
96
-384
256
-208
-304
160
-80
-112
48
-48
256
-336
-16
-128
-192
48
-240
64
0
-416
-160
-144
-176
32
-464
-240
-192
-416
-32
352
272
0
-608
-672
-320
-48
304
-304
-656
128
176
160
32
-16
-64
-352
-144
304
-16
-32
-400
-336
96
304
240
-208
-176
80
32
-416
-48
320
-128
240
-240
-176
-304
-32
48
-320
-80
96
-128
-304
32
256
-240
0
-176
-400
-160
-144
112
-192
-608
-256
192
256
-288
-176
112
160
-48
192
400
320
-64
96
256
224
-144
-160
48
-32
144
-64
-112
-80
-128
-320
16
192
16
48
192
256
64
336
96
-32
-160
-352
-320
-32
80
48
-128
-144
-32
288
32
144
-32
-80
-48
256
288
176
48
-80
80
-112
0
-16
-32
32
-656
-352
112
-192
-384
-48
192
112
-272
224
48
160
-64
208
352
-272
-272
0
-16
32
-96
-144
-304
-240
96
144
48
-48
304
448
-16
528
208
96
48
-32
-32
352
48
-160
-144
-400
-288
16
-288
-288
64
-64
-272
-560
32
-256
96
-80
160
240
320
368
-16
-96
-128
-304
-160
-16
-16
-208
-224
-288
-576
-384
-144
-192
80
400
128
-176
-192
-256
-176
-272
-48
-480
-192
496
64
0
-80
80
144
400
-32
-304
-544
-304
-96
192
128
96
448
32
-256
16
848
176
-16
-320
128
0
16
-352
-464
-432
-48
480
160
176
-112
-160
16
96
-144
-224
-432
-512
-336
64
368
-256
-80
-64
96
0
-48
160
400
496
336
-32
-288
-96
96
640
240
480
16
-320
176
-144
-304
336
256
-208
16
-16
-160
576
528
208
400
-128
-688
-512
-208
-288
48
96
48
-80
-160
48
64
-64
-96
288
512
32
-448
-16
-96
-160
64
-80
-96
336
-96
48
-144
32
-192
128
288
-496
-192
-576
-624
-480
-48
0
112
224
-128
80
384
224
-16
-352
48
-176
208
16
-16
80
64
224
-144
-304
288
432
0
48
272
224
-96
-16
-608
-224
144
-16
-32
-32
-144
352
-192
-448
144
320
64
-224
-384
256
608
752
208
32
240
368
-320
-48
384
192
-240
-272
-80
0
-128
-240
192
80
-48
-64
32
320
-176
-256
64
-176
128
544
208
80
16
32
80
-80
-320
-160
-256
144
112
-48
128
-48
-32
-320
-128
-400
-528
-64
-336
-176
-80
32
48
-480
-544
-64
-160
-176
-304
-336
-160
-48
-176
-656
-352
-656
-528
-208
112
352
144
-32
-224
240
192
672
64
0
544
96
176
16
-176
-208
-288
-48
-176
0
-288
-176
96
304
144
-160
-176
-64
384
-272
-384
-304
80
-368
64
224
-64
224
-336
16
-192
-304
112
272
192
32
144
160
-32
-384
128
-224
-320
304
160
-128
-96
0
304
256
160
-336
192
688
160
64
448
-16
-192
-224
-544
-272
-64
48
224
288
400
208
-368
-656
-384
-208
-208
256
16
16
96
-32
480
464
240
-96
64
-112
128
-144
-80
-64
272
128
288
384
272
32
112
128
-64
-192
304
304
112
288
480
368
256
-464
-288
96
-240
-80
304
-96
96
128
416
176
160
-96
0
0
-16
-160
384
96
464
240
176
496
416
112
256
448
160
-272
-224
-208
-144
0
-272
0
-32
-192
-256
-464
-112
-80
48
96
-224
-560
-144
-320
-384
-400
128
-64
16
208
0
-32
-16
192
432
240
-128
-160
-320
-160
464
528
224
-176
-144
-304
-400
64
160
-240
-448
-352
64
-272
-352
176
48
-112
16
304
256
-64
-160
-224
-544
-48
448
-96
-96
-288
112
256
-272
32
304
-208
-80
256
416
368
48
0
224
64
-16
256
368
352
240
-32
-112
-32
-32
-32
-160
-192
-304
-224
-208
0
80
-192
-208
-48
96
160
208
400
240
128
-80
-16
48
0
-192
208
272
352
320
-80
-192
-368
-176
-64
-112
64
0
-176
32
400
432
272
400
80
-528
-464
144
-64
-64
224
0
208
0
-224
-400
-240
256
256
-320
-320
160
-16
464
640
192
608
576
224
128
-64
592
416
-112
-512
-192
-416
64
-96
-416
-544
-64
-144
-384
-144
-128
-80
-80
-32
-336
-160
176
80
224
176
304
0
-64
368
448
-128
-528
-96
352
240
-64
-288
-368
-64
336
144
-144
128
128
-16
0
-272
48
32
-32
304
-96
-32
224
128
-32
-336
96
272
128
80
176
-160
128
-320
-64
0
-240
-416
-448
272
512
64
-16
-80
224
128
-144
-416
-240
128
208
512
224
-112
-752
-480
80
64
128
16
240
544
352
368
-48
-48
-112
288
80
-416
-576
-48
-400
-304
288
192
16
288
16
240
464
48
-352
-128
-208
-32
-64
208
400
160
64
288
368
-16
96
-288
-192
144
320
352
-160
176
-112
-64
-256
-144
-304
272
240
80
624
352
448
464
528
-32
-16
0
-160
176
-368
-96
144
144
352
-64
-480
-544
-416
208
208
384
-144
64
96
-80
32
-16
-272
-128
-176
304
192
16
192
16
656
-80
-176
160
176
16
128
48
240
48
96
-304
-112
128
-16
-96
160
144
352
176
-16
-128
-384
-352
-176
-64
160
0
-448
48
-208
-48
400
256
416
-240
-112
400
112
-176
-48
160
-272
-208
-224
-208
-240
-128
-432
208
192
-288
-80
16
-240
-400
-240
32
256
-224
-384
416
448
384
16
336
576
176
128
304
128
0
160
288
-192
112
80
-272
-48
352
64
688
416
-224
48
80
-96
-432
-96
-256
96
48
-80
-192
-128
-272
16
656
576
-208
224
-112
-96
304
80
-80
560
176
432
416
-32
32
416
-16
-176
80
-64
32
-208
320
-64
16
144
-288
-160
448
160
64
224
208
16
160
-320
-240
80
16
-176
16
-80
-208
-432
224
448
656
-192
-16
-16
-128
208
592
208
336
464
16
-16
-240
-224
-576
-480
-160
128
352
656
-64
176
336
208
496
256
128
-48
-128
64
96
-80
-464
-384
-176
-320
368
176
288
0
272
336
-96
16
256
-160
48
176
-96
-16
-384
-416
-16
16
64
736
64
144
-192
96
256
368
80
-256
160
256
-272
-544
-352
-48
208
288
176
160
-144
144
160
-128
-672
160
224
64
-48
-64
112
208
288
336
112
48
-480
-192
96
256
176
416
256
288
368
256
0
512
-64
-464
-16
-64
-256
-432
336
560
624
384
688
144
-112
-288
-400
16
128
-48
-208
-80
-432
-192
-272
-176
48
-368
-752
-432
-496
-304
160
208
-176
144
-336
-128
-256
-480
-112
-272
-256
-400
-192
208
-144
224
416
304
400
304
-16
96
-144
-384
240
-368
128
176
-128
-16
-32
304
160
384
240
-192
-32
-64
-80
0
-144
-96
192
272
272
48
-48
-208
-112
96
-16
128
0
-304
-384
96
-176
-48
32
-416
-320
160
256
-256
-176
-80
-192
-320
-368
-336
-128
-176
-144
-288
-736
-768
-112
112
160
304
-48
-224
-176
-192
64
464
288
80
32
-160
-224
-96
80
64
-16
528
64
-176
-48
96
-416
-192
192
-352
-256
32
-192
-64
-112
16
176
-144
-112
16
544
-32
-64
-208
-224
-192
-384
-336
-32
16
-64
288
80
176
352
-80
-160
16
-512
-336
-112
320
-48
-240
-48
-496
-240
-16
-80
-144
144
48
-208
160
-32
-480
-192
-192
-240
144
-224
160
80
-304
-192
-192
-80
256
576
416
-192
80
-80
192
64
32
0
-192
160
-352
-64
16
-96
-272
176
48
-96
464
64
144
-128
-144
112
144
0
48
368
-64
-144
-192
272
128
480
-64
-224
-32
-224
-320
-80
16
192
-96
-496
-224
352
496
208
48
-48
352
160
80
224
80
-320
-176
-160
-80
-192
-160
224
144
80
80
-448
-80
160
-32
48
336
16
-704
-624
32
-176
-336
-320
-48
0
32
48
-336
-160
-48
-176
-256
-32
64
-160
-256
16
208
272
224
96
-160
-160
-304
32
352
160
416
752
192
320
224
-240
-128
112
48
-144
368
112
112
96
0
-16
-240
-304
-240
-192
-32
128
-496
-192
-304
-224
112
128
0
192
-48
-64
-64
-16
400
96
416
256
-304
-64
48
0
-96
-592
-480
-16
-208
-208
-736
-768
-384
64
-48
32
48
0
384
224
-96
112
144
0
-304
-272
-352
-64
-144
-208
-368
-144
-464
-208
-16
96
96
64
-80
-272
-176
-208
176
-304
-704
-256
-16
-80
-128
-448
-544
-96
-512
-496
-128
0
160
576
-144
-176
304
320
592
368
-192
544
160
0
320
304
64
0
-80
16
-80
-256
-192
-512
-160
16
176
144
-304
-48
448
320
96
-304
-640
-64
16
-224
240
-64
-128
-192
-240
256
-288
304
240
288
224
64
-352
-64
-192
80
80
560
-80
-80
-304
-336
-64
-240
-112
32
272
-128
256
144
-304
144
192
-80
144
-144
-64
-96
64
432
176
-16
-16
-272
-80
272
128
80
-48
-272
-640
-368
-112
-224
-576
-704
-672
-208
-32
-48
208
176
-208
-112
176
-16
-96
224
544
-112
-16
80
176
-80
-512
-512
192
64
-176
16
-544
352
224
96
-288
208
-176
-624
-464
16
176
-32
112
224
256
48
-208
-48
240
624
224
0
-192
-160
32
-128
288
-272
-480
-240
288
-112
320
-176
-208
112
352
544
256
-112
144
144
64
-208
-144
80
-256
-736
-144
-208
-656
-368
-496
-560
-336
-160
-512
-368
-112
-336
-240
128
128
-48
-224
-320
-112
-48
-336
-272
-16
-48
-432
-288
-352
-144
384
-176
-80
64
-176
-48
192
224
576
480
384
272
-16
-48
-384
192
80
-32
64
-144
-48
-96
-352
-656
-336
64
224
80
16
32
-480
-576
-448
-480
64
48
96
-96
-176
-176
-144
-304
96
256
-64
-16
96
-304
-336
-208
-368
128
656
128
-688
-512
-160
48
240
64
-240
128
384
304
304
96
96
416
384
0
32
-160
-112
352
272
-240
-192
-128
64
-16
48
192
400
368
-144
-224
-32
-208
112
480
256
-272
-656
-208
-16
-64
-160
-336
-144
-224
144
160
272
320
640
48
-352
208
-32
-80
-64
48
16
352
176
-224
-160
-16
144
368
128
-48
-112
32
80
144
432
368
752
320
-304
-80
192
-176
0
384
608
320
0
-112
160
112
448
80
512
304
48
96
-400
-128
-256
48
-528
0
416
-112
-720
-368
-144
32
-272
112
352
16
-128
-144
-192
-224
-160
-64
16
208
112
-272
-96
272
592
576
96
240
704
672
352
224
-336
-320
-144
-16
-288
16
-32
-144
-240
-144
288
224
-464
-352
-240
-336
-528
-368
-608
-736
192
64
-528
-752
160
0
96
-400
80
128
-448
-96
336
368
-96
224
288
-512
-320
-224
256
-208
-144
-160
-256
208
80
-352
-256
48
192
176
0
144
480
-64
32
48
-432
-320
240
336
-176
-64
-48
176
-224
0
384
272
-96
-352
352
32
112
112
128
304
80
-224
-416
-96
144
336
512
400
-48
480
160
80
-32
-448
352
640
560
0
-160
-272
-224
-64
-400
-432
144
272
128
-176
-320
80
32
384
304
-48
0
-176
-304
-160
64
80
-160
112
208
-48
-384
-32
-32
-160
-176
-432
-176
48
528
-144
-128
128
32
224
-272
-112
-416
-144
-16
-128
176
176
80
-368
-304
-432
-384
-336
-160
-384
-592
-368
-240
-176
64
-272
-320
-400
-432
-272
-16
336
112
-96
-368
-448
-368
-160
208
448
288
-224
64
-96
-288
-128
160
160
144
80
-192
-144
-96
-192
-96
32
80
-208
-304
224
240
256
272
-160
-96
16
-16
112
-224
48
-160
-320
-128
-320
-176
176
384
240
16
48
400
176
-192
-496
-528
256
192
240
-16
-64
96
48
-80
-176
416
64
16
-48
192
320
-224
-32
96
64
96
32
-208
-96
0
-80
-224
-352
-496
-48
-128
32
288
-224
-592
192
320
-48
-320
-208
-208
-16
160
-192
160
288
-160
-208
64
192
544
112
64
0
-112
-48
-64
-176
96
560
624
-384
-432
-128
-32
64
16
192
-112
400
336
288
-48
-128
-224
32
-288
-32
-464
-400
-400
0
272
208
176
-320
224
-80
64
16
-64
240
256
48
64
160
128
-144
-128
-64
-208
-64
400
384
32
176
-16
304
240
-176
-16
496
-112
-48
-416
16
192
320
336
320
400
624
464
384
192
192
-64
-64
-432
-112
320
272
64
112
272
16
-240
-48
0
-192
-80
400
-80
-64
304
-160
-16
160
112
-144
0
448
16
-448
256
160
-32
-160
160
256
176
320
48
-176
-352
-32
-96
96
48
128
640
80
-192
48
-608
-336
-32
-96
-272
320
128
96
672
192
-48
-320
-288
-208
-160
192
-144
48
624
144
-352
64
-160
-240
256
144
32
-160
-208
-512
-256
-48
112
224
256
-128
128
-16
-16
400
272
-384
-16
-16
-256
-32
304
576
144
496
624
704
144
-16
272
-368
-336
-352
-512
-272
-400
-464
0
-144
0
0
256
176
16
320
480
112
-80
400
32
-208
112
96
336
144
-336
16
224
-80
16
432
464
112
-464
-208
-144
112
320
256
160
400
240
-320
-304
-112
96
48
352
272
96
432
-272
-128
-144
-128
-240
-464
240
480
320
-16
128
-160
-528
-336
-192
-288
368
416
48
336
32
208
480
80
288
592
-16
-256
-128
64
400
224
-16
272
176
208
-320
-240
192
-224
224
-320
96
576
160
96
80
-80
-192
288
336
64
112
-80
384
32
48
256
464
288
-160
-320
-160
-16
-80
-256
16
352
48
-32
176
96
-256
-96
-592
-544
48
48
-48
224
-32
-80
-144
160
-288
128
352
-128
-64
144
240
-16
-240
192
48
32
208
-32
48
144
304
96
-112
352
128
64
256
256
192
-336
-336
-32
-16
320
784
784
320
160
272
-256
-16
112
-240
-656
-304
-448
-480
-112
-336
192
-16
176
-48
-912
-368
-464
-352
384
0
48
288
32
-64
64
448
608
-80
-448
-608
-496
-352
256
368
240
272
320
-96
352
-256
16
112
-320
48
-16
352
160
-48
-160
48
-192
-464
-320
-128
160
-240
-208
64
176
368
480
352
-288
-416
-416
-608
-256
-80
64
208
80
-240
-352
0
-224
-320
-416
-768
-432
128
-192
-96
288
528
80
-320
-48
112
224
560
240
288
464
64
-48
256
-240
-32
-304
0
-80
-320
-112
224
-128
-592
-240
32
-320
-288
176
-256
-160
-176
-304
-224
-176
-240
-48
-48
-160
-464
-64
32
128
384
96
176
320
64
352
176
304
208
-272
-80
496
176
144
240
-160
-592
-160
-208
-144
240
16
208
0
-192
-32
208
576
432
512
544
32
0
224
-320
-368
112
-304
-96
-128
-80
272
384
128
16
-608
-848
-240
-208
-112
-144
-128
-688
-688
224
240
-256
-272
144
-272
-592
-448
-576
-224
-64
-432
-320
-112
160
-32
-80
48
144
304
368
256
64
224
-48
-336
-160
480
-208
-320
-576
-528
240
48
160
80
64
416
0
0
-16
-336
-368
-64
48
-384
96
416
512
688
32
-352
160
-144
48
-192
-352
-368
-240
-16
80
-48
32
144
-112
-48
-256
-304
-336
-416
-96
-368
-96
-96
-16
512
224
-192
-336
-224
-400
-208
-400
-240
-480
208
304
-64
-608
-544
160
16
-432
-368
176
528
272
224
-112
80
528
272
80
-112
-512
-144
128
48
32
128
240
-112
208
-64
-112
48
-512
-352
-448
-224
-256
-256
-368
-496
-128
-400
-304
-544
-800
-544
-32
-240
-448
-416
-400
-672
-96
-496
-432
176
-256
-64
-160
-528
-176
288
-96
-288
-320
-416
-704
-208
0
16
128
-304
-224
32
-144
-144
-224
-400
-768
-320
-320
-112
64
224
528
-16
64
320
-48
-288
-352
-400
-224
-240
-192
-192
-96
128
480
240
-320
-112
32
-352
-384
16
-336
-256
128
384
432
288
-128
-352
-240
-400
-528
-336
-352
-144
96
304
-304
-704
-240
-80
-192
16
-448
-256
-544
16
64
-112
-16
-80
272
-96
-96
-48
128
-352
-144
128
-32
-432
32
0
-160
-368
-368
-672
-48
-400
-48
352
-48
-176
-48
-80
336
-272
-80
-80
-32
96
-272
-400
-592
-144
-448
-160
-240
-448
-208
-352
-144
160
-208
-688
-432
-464
-624
-208
-144
-112
-16
-64
144
48
-240
-16
32
-192
-32
-480
-768
-288
-48
-736
-800
-176
-400
-368
16
48
-448
-272
288
416
48
-336
-464
-16
48
-96
-336
-224
16
80
-48
48
-320
-272
-80
544
64
352
256
-16
-96
-80
272
80
176
-304
0
-544
-176
208
528
352
240
64
48
-240
-48
240
32
64
144
128
-16
-176
-272
96
-240
-368
0
432
176
368
448
-272
-128
-208
64
336
304
112
-128
-32
-112
-48
208
304
160
336
-32
288
256
-48
304
-256
-224
-320
-320
-80
464
240
432
336
160
352
576
672
256
176
48
0
256
48
-240
-416
80
432
-16
208
384
-208
480
176
272
192
16
16
320
176
144
-288
-288
-32
-240
-16
-176
160
304
32
-128
16
32
-48
288
304
448
96
0
432
624
16
-400
-112
32
96
96
-464
96
-48
-352
96
-464
-160
240
112
368
448
112
304
672
80
16
272
-208
-448
-208
-368
-352
176
128
0
-96
192
176
256
336
-432
96
336
432
928
368
-176
48
-224
-144
-144
416
-176
-480
144
256
0
272
-64
-480
-256
-288
-576
-128
512
32
192
-48
144
352
880
592
96
304
-32
-144
-96
-304
336
176
-144
320
160
-176
144
272
16
-208
64
-96
48
-96
240
128
-128
80
-384
80
256
608
-176
32
-176
432
336
32
-128
-144
-48
0
-256
288
176
704
464
352
288
112
32
96
112
16
192
80
176
-96
-96
48
496
-128
-272
304
544
128
0
-480
176
160
48
368
352
48
80
352
240
528
-192
0
384
-160
-224
544
-160
-560
-176
96
-96
-192
32
-208
-384
-160
192
144
-96
160
32
272
144
384
480
192
32
-128
-160
-176
160
-112
-112
-272
176
-528
-160
-32
128
16
-192
-112
-272
-128
-16
16
16
48
-32
-464
-464
32
368
224
448
208
-304
-336
208
-48
-352
-400
96
96
80
224
-320
-176
304
400
-320
-64
-176
-496
-352
-192
240
448
640
176
0
144
304
0
-272
-176
80
-352
-432
-256
-336
-32
192
16
-16
64
-32
32
-96
176
144
144
176
464
-208
-32
96
336
368
112
368
-384
-320
-64
-224
-64
-208
240
224
224
224
-96
-320
-256
240
32
-208
240
128
32
192
-48
-64
112
96
-32
-336
-288
-512
-160
256
368
-128
-64
352
512
400
-320
-192
384
496
-128
-80
80
304
0
16
320
-160
240
720
384
288
288
208
-464
-576
-368
256
560
-64
128
112
0
-224
352
16
272
368
112
0
192
-48
-208
-144
80
240
-144
16
-48
-64
704
576
-32
-32
-192
-832
-400
-160
80
240
208
608
288
144
-208
336
544
16
-288
112
-240
80
64
464
208
96
-272
112
-144
0
-288
-32
80
48
288
-144
496
80
-256
16
192
16
128
64
-192
-240
-160
112
-176
-48
480
416
-208
-48
96
48
-224
0
288
288
-240
-560
-688
-512
-96
288
-48
-688
144
-208
64
32
128
96
-176
-336
-304
-128
-80
0
96
416
-32
144
32
-176
0
-16
-416
-272
-32
224
-144
48
144
240
288
32
-128
-64
112
-400
-192
-224
-160
400
288
-192
-144
16
672
96
224
400
16
-96
-208
32
112
160
-192
320
80
144
-48
64
-288
-288
128
16
-176
-48
-240
-160
80
16
-256
-400
-240
368
80
304
176
-64
432
160
32
80
-304
192
-176
-64
-48
256
272
32
-304
-416
-464
-544
432
192
-80
-144
0
208
-192
-128
-128
-128
-64
-288
-192
-416
-192
496
-208
-432
208
-224
-48
-384
-192
64
0
-176
-416
-288
-528
-64
-128
224
368
432
144
-96
0
-416
-240
496
400
64
-112
256
160
384
-144
-176
-576
-160
96
192
240
224
80
32
0
192
544
176
-320
-96
160
256
192
176
224
128
304
416
64
-448
112
336
0
112
96
-32
208
-224
-64
224
240
0
-64
272
64
-160
-224
240
224
-208
-64
-128
-224
192
-304
-528
-176
496
640
320
-448
64
464
256
256
208
160
432
496
-48
-304
352
128
-16
-176
80
-368
-336
-624
-128
32
-176
-528
-48
48
112
288
64
-240
-384
-160
-96
-144
176
48
352
160
0
64
-560
-288
176
224
-368
-336
-320
-48
-512
-496
304
496
256
336
128
0
272
624
400
-176
-16
-480
-592
48
-192
-32
128
192
-448
-128
112
-16
-672
-992
80
160
112
240
-112
320
112
-448
-416
-224
0
-80
-16
48
128
-32
352
368
48
-208
64
80
-320
-112
112
-96
-224
48
0
-256
-432
-224
-272
-224
-16
384
656
-224
-576
96
112
48
-48
16
-240
-144
80
-64
-240
224
-48
112
432
400
0
-320
-336
-352
-192
-336
-64
-16
-48
-112
-336
-144
-144
-16
0
-224
-16
80
352
-64
432
0
128
416
160
80
-304
-432
-176
160
80
336
272
-336
-288
-336
-112
240
-560
16
112
464
256
64
-176
-192
-80
224
320
-304
-80
576
480
224
-176
176
96
48
0
416
384
-16
-48
-448
-352
-704
-576
-176
-128
48
224
-400
-400
160
-16
-48
-320
-160
-384
288
560
336
320
0
-208
-240
128
576
560
128
288
32
-224
-240
32
64
16
192
-96
-80
16
32
144
-16
112
-96
128
-16
-64
-32
192
288
320
480
688
560
528
-64
-320
-512
-352
-240
-272
480
352
240
384
592
144
160
96
-496
-304
160
80
-144
-48
-48
96
304
240
208
-16
-144
-208
400
240
-32
-368
-224
-304
-144
624
784
192
272
416
416
256
-256
-48
192
80
464
160
272
240
80
192
16
-64
144
32
-192
-144
624
-224
-16
48
16
-240
80
240
-64
368
64
400
576
512
320
304
-144
48
144
272
-304
64
192
256
256
240
240
640
16
-208
-320
-304
272
336
304
80
272
288
304
-16
-32
-32
-192
-48
-112
-352
-368
48
48
128
144
-16
-192
-224
-176
272
-368
-80
80
-112
48
-416
-320
112
192
112
-144
336
400
48
-288
-496
224
288
256
-48
-128
-256
224
-192
-400
-80
-32
240
16
208
176
-272
-240
-304
64
-80
64
256
416
400
-112
-112
64
208
-48
0
320
528
-144
224
-384
-304
144
96
80
-48
16
-240
-384
336
240
-144
-192
-208
160
80
-128
224
368
-416
-16
-288
-512
-160
-48
96
-176
224
160
-304
-480
-144
288
112
48
400
112
80
16
-64
176
80
144
64
160
-128
-176
80
560
80
-272
-256
288
432
320
208
96
400
224
-16
-80
224
448
-80
-240
-160
-240
-352
0
32
-16
320
288
-96
-320
-128
-480
-304
-576
-368
-448
-224
-144
-272
-320
64
-176
-400
-80
96
448
208
320
560
-112
32
256
400
80
192
128
-112
32
-32
-320
-464
-288
-448
32
160
-208
-352
-192
-32
-256
-400
-64
-48
448
-48
-512
-384
-80
-64
-144
-400
64
176
-176
-16
-304
-256
-400
-128
128
16
-480
-720
-368
-384
-496
-528
48
240
272
-80
80
16
-192
-112
48
368
-32
64
-336
-32
288
80
-16
-32
80
144
368
-128
-160
-224
-320
-176
-416
0
176
272
384
288
336
80
-48
16
-16
-624
-416
-336
64
48
-48
80
560
448
576
-80
80
208
144
-96
288
-96
208
-80
-336
-144
48
176
80
16
192
-432
-16
80
160
240
432
-80
400
176
384
432
544
944
352
304
0
-48
-112
-80
784
464
288
-32
-176
-112
-144
-192
-448
-176
224
144
-144
80
-272
-96
672
400
-192
-208
-288
-432
-480
192
160
224
-256
-464
-288
-192
-64
48
-144
-368
-208
-32
256
-64
-64
160
-272
-48
128
112
112
-224
-64
-64
-112
176
64
48
-320
-880
-656
-320
448
0
-432
-48
400
192
464
-16
-128
64
96
320
464
96
-336
-768
-240
192
208
64
160
-160
-96
480
624
720
-32
-384
-176
128
-304
16
-32
-432
-208
-208
-240
128
64
384
144
64
-80
-208
288
-48
-288
48
-240
-304
240
128
-64
208
128
-160
400
624
144
-64
0
368
-144
-368
-192
-192
240
128
-80
160
272
-64
-192
-208
-48
384
224
-96
-144
160
176
32
112
160
-64
176
528
368
336
64
-240
-736
-304
-208
240
448
368
-176
48
48
-352
-240
0
-272
256
432
-368
-656
-128
112
496
64
-320
32
-48
16
384
0
48
-256
-208
144
64
-16
-144
208
64
-176
-112
0
416
624
-128
448
-128
208
-128
-272
-16
160
560
0
-48
336
-144
-384
-128
-432
-16
-128
-32
-32
288
-224
-368
320
304
128
48
-368
-272
80
384
256
224
-96
-16
112
-112
-16
128
224
288
16
-368
-496
-624
-64
128
432
-112
-464
-224
224
-64
192
320
560
320
128
-48
752
544
-224
-224
-176
-160
-320
-304
16
176
272
528
304
-192
-80
-144
608
-176
-272
-160
-48
-96
-352
0
-64
208
176
368
224
-144
-688
-48
336
128
192
0
96
192
240
512
64
-592
-352
96
496
144
-304
144
272
80
176
-592
-752
-320
-80
208
320
-208
-160
416
480
128
0
48
320
352
304
-144
-176
-96
-48
-80
112
-32
32
-560
-368
-304
-96
-432
-144
128
384
128
-128
-384
-80
144
-176
-48
-208
-352
-240
64
96
64
192
-624
-784
-560
0
-96
96
256
64
-32
-192
192
-240
-48
-288
-128
-176
-112
-96
176
-176
144
-448
-128
-416
-432
-80
416
-224
160
304
208
272
-224
144
-128
-240
208
192
-80
32
-464
-96
-32
-16
-112
0
528
176
224
-48
-288
-384
-176
-320
96
48
-256
-224
-128
-304
-464
-560
-192
-128
-176
-176
0
48
-464
-64
416
240
224
224
464
240
432
144
-64
144
16
-224
-80
48
336
32
528
80
32
0
224
64
192
-128
-240
144
-48
-528
-544
-272
608
64
-64
208
400
224
160
-288
-560
-96
112
-64
-336
128
128
-208
-304
176
-80
-112
-192
-112
64
144
144
544
512
496
464
368
16
336
496
368
240
-240
-256
-128
-16
-64
288
480
224
16
96
80
0
64
32
0
16
-464
-256
144
-208
176
272
-32
64
48
-48
-512
-64
-336
304
64
-144
64
-80
-32
336
160
0
64
-16
-208
272
-272
-48
-256
320
304
256
304
-112
48
-640
-224
-48
0
160
-320
-480
128
48
64
-480
-304
-368
-224
240
528
416
80
-112
176
400
-240
-48
-64
-144
-48
-128
-64
-112
96
-224
-144
176
-416
-304
-256
-368
-48
48
384
400
0
-160
-288
-288
-320
-144
-144
-176
-640
-448
-176
-80
-528
-384
-176
-16
-80
-112
-32
-336
-112
-32
-144
-160
400
576
-80
48
-160
48
32
272
416
224
-160
-144
-480
-320
128
-112
160
208
144
208
128
-432
-224
192
160
96
48
-32
-48
256
-256
64
192
80
-112
64
384
592
176
144
-48
-336
304
624
144
240
448
-80
544
240
-16
-208
-208
-528
-224
-32
96
256
240
16
-336
256
384
-400
224
32
-128
96
0
320
-112
80
32
272
-176
-336
16
-208
-480
-240
192
-112
592
464
-176
-576
-128
208
352
-208
144
240
-16
80
160
-160
-320
-112
64
-288
-208
-480
-448
-48
576
-32
-272
16
-32
400
320
-64
-256
208
-80
-224
-48
-16
-80
272
64
64
-656
-464
-272
384
16
-288
-160
368
400
160
48
32
112
-320
-304
-192
0
-160
-96
48
0
-224
-176
128
80
-496
-240
80
352
-64
-96
-128
0
-192
-64
48
-160
0
384
288
128
0
-352
-256
-288
-208
272
-256
-368
-528
-224
160
-96
32
176
128
-48
-208
-160
-320
144
-272
-512
-432
192
416
192
-128
128
-208
-176
-256
304
-32
-400
144
336
96
-192
-192
-320
160
336
-32
-64
-272
-208
-112
272
160
416
240
-240
-272
-224
-432
-608
-208
96
-64
-224
64
64
96
32
176
368
352
48
48
-96
-576
-48
336
-160
-304
0
144
-48
128
96
176
32
304
-96
-96
64
-192
-272
-144
-80
400
0
-928
-80
-16
-448
-336
368
144
-304
-96
-320
-256
-416
-304
-272
368
192
-192
-160
0
-32
128
-384
-544
304
464
-32
-400
-176
-320
-336
-160
208
-112
144
-32
-160
-272
-256
-368
112
304
112
-16
272
192
448
320
-144
256
240
432
32
-288
-352
240
-64
-112
224
400
304
256
160
496
272
128
-496
-544
-128
-368
-64
624
368
64
-96
-48
-208
272
48
64
96
528
448
0
-352
48
-432
-80
288
-16
384
-48
-496
32
48
464
864
848
288
128
-448
368
432
304
-64
-80
-112
-128
-640
48
768
368
64
96
464
176
192
352
32
-608
-336
-160
-256
96
16
-32
-304
-48
368
240
256
80
-192
112
320
-288
-128
-240
-192
-112
-16
224
256
-80
128
416
368
480
-208
-32
-16
-128
240
48
-304
-80
-64
-144
-128
-240
-192
-464
-288
0
128
336
384
336
368
256
96
-48
0
416
496
-192
256
128
288
368
80
-288
416
512
128
-192
-128
-48
0
176
0
304
656
304
96
-48
-48
-256
-208
-48
-192
16
64
128
16
368
32
-416
96
480
288
-16
160
352
-144
-560
144
448
640
144
-96
-480
0
-64
304
0
-320
144
448
64
-208
-288
-256
320
176
48
528
208
32
16
-112
-224
-48
-208
-80
176
-16
176
-16
-144
-48
-32
0
-32
144
368
-32
-64
64
-16
144
-48
-80
-80
48
-144
384
192
32
-144
-400
128
160
-400
-96
384
176
-304
-352
96
288
256
-112
-224
-368
-320
16
208
448
224
0
128
224
-208
-496
-96
0
128
416
32
-224
-384
-144
-256
-544
-320
352
-48
32
-112
-160
-432
176
464
-96
-400
-208
304
320
288
368
224
-208
-80
160
-240
32
208
-352
-336
-240
-64
-192
-48
-80
-240
-224
48
-112
0
-112
272
352
304
176
144
32
304
-160
96
256
64
240
-160
80
-112
32
-240
-400
-16
16
80
240
-96
288
272
336
96
-176
304
-16
-208
16
320
288
-96
-192
-96
320
288
-384
-240
-272
-64
160
176
416
-368
-192
-128
256
240
80
16
64
-128
-224
16
-80
-544
-384
-80
-224
48
-224
0
192
416
400
0
-32
160
416
208
-112
-176
32
0
-128
144
-432
-224
128
144
32
-160
-288
80
48
-160
0
48
224
32
-208
64
96
496
144
-224
272
576
256
-48
-16
80
-192
-544
-64
96
48
-160
-192
160
-128
-656
-128
272
-128
-432
-256
-272
-96
96
64
-80
64
448
240
-464
-64
-112
-528
-64
-144
-320
-448
-560
-64
368
208
-32
672
640
416
32
192
48
-288
0
240
288
-464
-208
208
144
16
-16
-48
128
0
-384
-240
-240
-448
-176
-208
-48
224
672
80
-352
-384
-352
-192
-400
-176
-48
128
400
-128
-256
-192
208
384
-16
32
192
-560
96
-144
-112
-80
-256
-320
-64
160
-384
-448
-320
-272
128
144
272
304
48
0
-16
-176
-224
-272
-448
-48
-272
-256
-16
-128
96
-80
-304
0
160
16
176
32
-304
-352
-256
-368
112
208
144
-112
-160
400
528
352
-176
-224
-256
-368
-416
-560
-288
-544
-224
-112
-336
-496
-224
-80
176
-144
-448
-128
-96
16
96
416
-288
-176
-160
96
-448
-560
112
144
0
-496
-112
336
368
16
-288
-64
144
-32
-128
-304
64
0
-64
192
-64
64
-144
-96
352
-64
-336
144
112
-224
-192
-256
-448
80
-144
-176
144
528
32
0
112
160
160
-272
112
688
864
496
144
-48
-208
160
-64
-352
-464
-416
-320
-144
16
-384
-96
64
-32
48
-160
-352
-192
-96
288
176
304
-320
-288
80
-512
-368
288
32
-80
-16
-336
-32
-144
-400
-240
192
720
256
-272
-48
-304
-912
-608
-272
-192
32
224
112
208
288
208
16
96
144
112
-32
496
624
320
256
432
64
-128
320
-48
-128
-256
-112
256
96
-32
-272
-64
-304
-304
144
272
272
64
-224
-352
-80
-64
48
160
96
0
-112
96
128
-320
-48
144
480
96
384
-368
-336
-176
-272
-352
112
224
-96
128
-304
-16
-32
112
112
-48
-176
-48
144
-32
-368
-608
-592
208
320
416
64
-208
-336
0
-112
-240
288
176
320
208
-48
-240
-240
-256
-48
400
-160
-384
144
208
176
16
-96
224
-48
-240
80
160
32
-192
-80
-128
144
112
320
288
0
-560
-304
-272
-192
-192
-496
-368
-224
-144
32
160
128
64
96
-32
384
208
-160
208
-384
-112
80
208
-448
-144
-448
-624
-640
-400
-560
-672
-288
-192
-96
208
240
368
-80
-432
-48
-128
-208
-368
-144
80
-320
-464
304
-272
-400
-16
240
512
192
-256
-192
-64
-272
-96
-16
-96
64
288
64
96
208
272
272
368
208
-288
112
352
272
400
128
80
-288
-304
0
0
-96
-64
-368
128
176
208
384
416
432
-272
-208
-160
144
432
80
304
672
256
208
48
0
-224
0
-256
80
-128
256
240
-304
-112
320
192
-944
-688
-336
-192
-48
32
96
0
416
64
-320
-384
128
352
96
-128
-384
176
-64
-288
256
-192
0
-48
64
-480
-400
-144
352
144
160
-128
-112
-416
-352
-160
80
-112
-32
-208
0
0
144
-96
-304
-336
16
-272
-176
160
256
224
-144
-16
-112
272
128
-304
-112
-32
208
144
432
624
-112
-528
-176
144
-80
-144
-400
-192
160
240
464
576
240
496
192
-304
48
96
-32
288
288
176
240
608
-96
16
528
-352
-624
64
480
112
-336
-480
416
320
-160
-176
144
48
272
-16
16
-112
-624
-240
-208
128
96
240
368
48
-320
-304
-224
-96
144
-64
-96
-496
-320
-208
-48
-128
128
-80
208
160
0
64
-144
112
304
96
-96
80
32
-64
-256
32
208
272
-48
-160
-96
-288
-464
-208
-80
96
80
-16
16
-128
-192
384
112
192
-48
-368
-320
-128
176
16
-224
-352
-96
-224
224
368
288
352
-64
-160
-112
-288
-272
-272
48
80
64
-656
-880
-464
-32
-368
192
304
144
48
32
-288
-576
-64
-96
528
656
608
480
352
288
-80
304
352
-144
192
448
496
496
96
-16
-560
-560
64
-64
320
208
-80
-592
-208
-80
-64
-208
-224
-160
-192
0
-208
-224
-16
-240
-16
176
80
-208
0
320
256
112
256
-256
-176
-304
-192
-64
-288
-544
-16
368
-160
-112
-96
-272
-448
-240
144
-160
-256
-272
-112
96
464
448
368
496
464
112
96
-48
272
-32
-112
-320
-400
96
-160
96
160
256
-240
-416
-80
192
48
96
48
160
272
96
-288
-464
-144
64
-144
-272
-112
96
0
176
-64
-16
176
-112
32
-32
208
432
-144
-368
400
160
128
416
368
288
64
128
128
-304
-240
-288
352
352
-64
-96
80
-240
-16
144
112
192
-320
-288
-320
128
-160
32
-192
-128
16
0
-352
-336
-512
48
192
112
48
-256
-160
-192
-16
-96
336
112
-96
112
224
240
-240
-208
304
528
-16
-400
-128
384
-160
-128
-240
-304
160
304
-400
-304
144
112
-208
-16
-128
-272
16
-64
240
192
16
-96
-224
-112
-16
-208
272
144
-208
240
-368
80
32
-352
112
192
80
-448
-48
0
-288
-32
-96
-304
-608
-80
-160
48
96
-320
-144
-624
-576
-224
256
64
0
0
-400
-96
0
-96
-192
-128
384
160
-352
96
368
-16
-272
-288
16
224
32
-288
64
304
-16
-288
-160
-80
-304
-144
496
592
384
336
368
272
-224
-400
-288
-144
-16
32
-48
-208
-32
416
0
-384
128
64
240
-400
-256
-16
-240
-48
64
-80
-112
-432
-480
-304
-160
32
176
128
176
16
-144
-304
-256
32
-128
288
-96
-80
-256
-544
64
96
80
480
-208
-336
-256
16
624
432
416
512
96
-96
32
256
512
480
608
0
-384
-352
16
176
-80
-112
-160
-192
112
128
0
-16
32
-176
128
176
-224
-208
0
304
144
304
448
336
-128
128
832
464
480
208
160
192
-192
32
256
208
352
-48
-96
-144
0
80
-80
64
-96
320
240
-96
48
336
464
160
-224
16
-112
-240
288
-192
-16
-128
304
112
208
64
112
464
0
112
-16
-160
-336
-96
-176
256
240
-416
-400
-112
-160
272
688
64
0
448
-32
-256
-464
384
-80
-144
336
-96
-80
-240
-128
0
-208
32
-48
-16
-64
176
-16
64
240
256
208
-544
-224
240
0
-304
64
-208
-176
512
304
-576
-464
256
288
-288
-160
-144
-96
112
-144
-144
-320
-224
0
-272
-224
-160
32
32
-208
352
-64
-416
-240
48
160
64
-128
-128
64
96
176
-512
-368
144
160
-512
-224
-336
16
-224
-16
128
-64
0
-192
-192
96
272
432
688
64
48
384
432
256
128
464
16
240
640
32
-64
16
256
-96
-192
96
-240
192
-320
-256
240
-32
256
352
352
-304
-304
192
176
464
240
288
-48
64
96
144
-112
-64
-160
-336
-272
-32
0
-544
208
448
-336
64
208
-128
240
176
176
-16
-192
224
160
-80
32
-320
-96
-368
-16
160
336
-16
-16
400
656
496
256
-192
-400
-208
144
288
256
272
-64
80
112
-144
240
416
304
192
368
288
-64
-32
-224
-464
-400
-48
336
336
-336
-80
256
592
528
-64
-160
-192
176
-160
400
192
-16
176
176
304
-192
-96
-96
80
0
-384
-128
-176
-384
-16
128
32
48
224
160
-160
-32
-144
-240
-256
-384
-880
-256
-32
-400
464
16
0
160
-32
-240
304
224
208
192
-48
32
32
80
336
624
320
432
112
-208
176
-224
-48
-160
-32
272
-160
-48
128
-272
-112
0
-192
0
-176
-160
-224
112
160
-96
-368
-144
80
400
528
16
64
400
-48
224
-48
-384
64
-224
-176
-240
128
-352
-144
0
-320
-176
-192
-128
160
-208
64
-160
-96
0
-160
240
288
400
-16
144
-80
160
-272
-96
320
80
-128
-384
-208
320
384
-208
-112
64
-16
-48
-160
-336
208
208
-16
-352
16
288
336
-144
176
288
-48
112
64
-80
96
-464
-464
-512
-112
160
0
192
160
400
112
-400
-128
-400
-240
-128
-400
-352
-496
-256
48
608
-64
-176
112
-560
-368
-416
-528
-256
-176
-80
16
320
48
-400
-384
-384
-192
-160
-144
-192
-16
144
-16
16
-224
-80
-320
-160
-448
-144
-80
64
144
320
80
-192
-480
176
160
16
128
-128
64
-64
352
144
240
-80
-96
-208
-528
-272
-192
48
-400
0
384
272
-272
-144
-48
-256
-32
16
-80
-128
-576
-368
16
0
-256
-288
208
96
-112
240
-80
-464
-80
-176
-224
-144
80
240
288
464
-112
-160
-320
-48
-464
-304
-208
176
176
48
-448
16
240
-224
432
32
-272
-192
176
272
304
0
416
256
96
128
-32
-368
-112
288
-336
-16
-320
-320
-448
0
288
208
16
-32
-416
-160
304
544
464
-144
-464
80
48
80
-176
-256
256
208
-96
-176
-112
-288
-416
-80
224
144
224
80
208
-256
224
112
64
368
464
656
144
-80
112
160
64
0
-32
112
400
256
272
32
-32
480
400
-208
16
304
48
224
-240
160
48
112
64
160
384
256
-80
-96
-64
240
-112
-240
-272
-48
-144
-208
0
32
0
128
-224
-144
-96
240
384
-144
-112
-32
-400
-16
-16
-96
32
-64
256
-112
48
336
0
272
48
-400
-240
-32
-48
144
352
-192
0
-32
0
144
96
32
-160
-304
-160
-256
-368
-96
-240
304
-64
-80
-208
-272
-64
0
-80
-16
-192
-384
-432
-384
16
112
-32
-208
64
160
256
448
0
-128
-192
-64
16
-352
-544
-272
-144
-80
-64
-64
224
240
-80
-208
288
64
-192
-432
-224
-32
-160
288
208
144
-224
16
176
16
-208
240
320
-144
80
-16
336
512
384
544
144
64
192
-448
-256
112
-192
224
-64
96
416
352
-400
-272
-512
-224
-64
-112
96
-224
304
528
-176
-416
-112
-640
-576
400
256
176
128
-464
-176
-816
-240
-80
-400
80
32
0
48
320
32
416
80
-480
-80
128
464
80
-256
48
112
-48
-400
-384
-240
-512
32
48
16
-320
-160
-208
-560
-208
-336
-448
-112
368
-176
-400
-144
480
288
208
-240
-48
208
176
-432
-480
-224
-96
544
288
144
-32
-112
368
176
-192
0
272
-112
-416
160
-304
32
144
368
240
96
256
-144
-160
32
-64
-96
-112
-192
-448
-496
-304
-176
64
128
-64
-192
128
-48
304
-16
-304
176
80
-32
48
336
-16
-704
-48
256
192
224
304
176
368
496
272
32
-704
-448
-192
-112
-176
-112
-272
16
224
416
-160
-112
96
-416
112
336
32
-224
-480
-480
64
96
240
288
160
160
-192
0
80
-144
16
320
48
240
576
160
64
240
-16
144
528
-48
96
80
80
128
208
176
-176
288
64
0
112
160
-432
-512
-400
-448
-128
-176
-352
-16
128
-432
-384
112
-16
-32
-160
-160
-320
-192
128
32
-192
-192
-16
352
336
-48
32
0
160
-224
-192
144
-192
-240
240
480
48
64
48
352
496
-48
-160
64
0
496
704
144
-272
128
224
704
656
224
-400
-96
240
144
-304
0
192
0
-208
-160
-512
176
320
224
368
-128
400
144
-112
-16
32
-64
32
-160
-608
-240
-288
0
-336
-416
-32
-48
-160
64
-176
-336
48
176
352
32
256
96
-496
-352
64
464
80
272
240
208
-176
-480
-688
-176
-192
160
-96
64
192
80
96
272
336
448
320
-208
-576
-464
-368
-128
-16
368
176
128
-432
-48
352
-224
-496
-384
0
240
112
224
112
16
-64
96
64
160
-144
-336
64
208
-112
224
624
-96
-288
352
400
-112
384
-112
-128
128
672
464
208
-112
-224
-256
-560
368
368
208
176
352
272
224
368
64
-208
-544
-16
32
32
208
64
-96
-96
32
304
336
-144
-64
112
0
160
-192
-256
208
208
-352
-256
-80
48
-32
240
400
144
-96
-16
-240
-432
176
320
208
-144
-224
288
208
608
400
-224
0
144
-32
-32
-240
-144
448
160
96
96
464
448
112
208
0
-176
-384
368
512
352
-80
-256
-224
-96
-64
-64
-16
208
176
96
96
-112
32
-48
-224
0
240
-224
240
96
240
144
112
256
32
-224
16
160
-256
16
-192
-176
-288
-352
-112
-144
-208
80
160
-256
-160
-80
-512
-336
-368
-16
-336
48
256
-16
-288
-80
-64
208
288
-96
-352
-256
224
464
-32
-96
-48
-208
32
288
192
-240
112
176
192
-304
-288
64
16
0
-32
32
64
192
-48
96
352
256
208
-304
240
336
-240
-368
-112
96
64
144
-304
208
128
144
160
144
384
-48
-416
-416
48
560
224
208
352
-224
-288
-16
336
176
-160
128
240
32
-128
128
-160
-272
224
144
-128
32
0
-16
208
144
48
144
-400
128
192
-224
-256
-32
192
-192
-400
272
80
-16
-32
208
96
384
160
-192
0
352
272
-16
304
864
608
96
64
256
640
-224
-256
400
144
-144
224
-160
-80
256
-400
-448
-272
-32
80
0
96
-144
-224
-112
-304
-544
-384
112
576
480
-240
-704
-608
-64
208
-160
304
-80
192
-80
80
304
160
96
96
-64
-64
288
-16
192
144
-384
-352
-160
240
-80
-352
-320
-304
-432
-272
-160
-528
-208
-112
48
-128
160
-96
176
-144
-432
-304
-112
160
64
-208
144
192
-160
-480
-640
160
432
160
-304
272
96
-256
-16
-192
-464
-240
64
-96
192
-96
96
384
240
128
512
400
-384
304
-144
-320
416
240
-208
-32
48
-80
112
-144
-384
-368
-784
-352
176
208
-32
48
320
-16
144
32
-16
-128
-32
-80
128
-192
-48
176
-96
128
144
-176
-368
-192
-384
304
-96
-368
-32
128
-400
-176
-96
176
144
-64
272
448
544
240
-16
-240
-208
48
-400
-240
160
48
-256
-16
-368
-560
-208
-240
0
432
240
176
240
352
160
-160
208
672
48
-128
-64
192
384
112
-160
208
192
288
176
-128
-112
128
320
128
-464
-144
0
-32
-80
-560
-112
144
32
112
176
256
80
-80
-368
-16
-256
-192
-288
144
432
112
-16
-320
544
336
32
288
480
304
-112
-112
-96
-128
-256
96
-176
-208
-352
0
144
-320
-144
0
16
16
16
0
128
160
-112
-32
208
-464
-96
48
192
240
-208
-16
-224
-160
-96
80
144
192
256
176
-320
-400
-144
112
144
128
-80
-48
-416
-256
-320
-576
-176
80
32
-176
-96
-16
-112
-80
64
128
48
-320
-544
0
-272
-336
16
-256
-256
-272
160
144
-208
128
-336
-32
-208
-112
528
-432
-400
-32
-128
144
-192
-480
384
240
64
704
576
112
-400
128
-80
-240
-144
-80
-240
-256
96
192
-144
-288
32
-48
-416
80
368
144
-320
-480
-80
0
32
-416
-144
-80
-272
-192
-16
-336
-688
-416
-48
-368
-304
-160
592
368
-80
-96
112
256
-64
-160
32
144
160
-16
112
-32
-160
-16
-176
-416
-208
-336
320
128
384
432
32
-384
528
0
-176
-176
-400
-16
48
-176
-240
-368
32
288
176
112
-32
224
368
-384
32
304
288
400
80
112
240
784
144
-416
-112
256
-96
-112
176
320
0
96
64
-32
272
-144
-176
-240
-512
-112
-160
-160
-144
304
416
-64
16
-96
32
-80
-496
-64
-544
192
528
192
-160
-352
-144
-304
-176
160
-96
192
176
144
-208
-208
-16
16
96
-112
-192
80
-112
-128
0
-48
-32
-512
-320
-64
48
112
-256
-240
336
64
-48
-432
-32
-32
-608
32
368
-64
-384
-224
-32
-240
-64
-480
-80
16
160
48
336
672
448
320
-240
-64
-96
-176
-544
0
-192
-240
-288
-416
-96
80
272
48
-80
-96
-112
-48
-112
-112
-160
-64
224
64
64
-96
224
448
48
-80
-144
272
128
144
512
32
112
-64
-384
32
-16
-64
-352
176
-32
-16
-80
-32
-32
80
128
192
-80
-288
-48
144
-192
-208
32
-48
-16
64
-112
416
-416
-560
-144
736
896
192
-400
-160
16
144
-432
-304
48
32
448
272
192
-384
-112
32
96
64
288
144
192
-224
320
288
240
144
224
320
560
544
96
-16
-80
0
64
-64
-416
-144
272
400
208
592
384
208
-80
-128
-48
208
304
-32
240
-160
16
176
64
-128
-240
-208
352
-32
-144
560
0
-208
-160
-80
-64
80
240
-96
112
368
208
384
560
272
432
-352
-560
-192
224
-32
0
-240
-192
-288
-32
-208
-64
-128
-144
112
-240
160
352
96
-144
-80
-80
-368
-544
-64
208
128
304
336
-16
-192
-320
368
-80
-112
80
48
224
576
416
704
304
-32
336
304
144
192
176
224
416
368
432
304
48
144
192
496
144
-96
176
32
304
-288
-144
-240
384
368
320
432
-16
96
-16
-272
-176
-32
80
-80
-32
-176
32
-176
-224
128
160
80
80
48
208
-352
-64
96
-96
-336
-528
112
-368
-128
-128
-192
224
512
-144
-560
-320
-96
-64
-256
-160
-640
-416
112
128
-240
-160
-352
208
-64
-112
-80
-256
32
224
176
240
-144
-48
-144
144
272
144
384
-48
0
-192
16
-64
48
-32
-192
144
304
160
160
-96
288
336
160
-512
-48
240
-176
336
288
-112
-512
176
-176
160
224
368
352
64
80
-16
-112
64
288
-128
160
208
480
368
256
512
704
-288
-464
-144
16
432
256
-432
-192
-240
-176
-240
32
-144
80
-96
-208
-416
-288
288
400
80
-96
368
48
-16
-176
16
272
0
-64
-432
-128
272
48
224
384
-128
-16
0
32
32
-48
16
416
560
336
80
-48
224
192
240
-144
-128
-192
-32
-160
-192
80
240
-272
-320
176
-16
-224
-144
-256
-80
48
352
224
-16
-32
-240
-448
-368
-16
256
464
0
64
208
-512
-80
-80
-192
-272
-208
-224
128
32
-384
-592
288
320
240
288
16
-160
-336
-160
-144
-416
-336
-160
-336
-640
-256
-112
-112
-32
272
160
416
336
-320
-240
-16
112
96
-16
16
32
128
128
160
112
224
0
288
208
-144
-96
-144
-640
-368
192
-32
256
112
384
320
64
16
32
32
112
176
64
-64
-592
-464
48
-16
544
480
0
-288
-48
288
224
48
64
-160
0
-48
-272
-336
48
-480
-128
-32
-512
160
352
-176
-240
288
352
208
-64
-176
384
128
-48
-672
112
192
-96
352
592
240
368
288
208
48
192
352
0
560
432
-16
-432
48
-304
-128
-48
-64
144
-272
80
64
-80
320
0
-144
160
192
-160
80
-112
240
208
208
624
288
-128
64
64
96
256
32
96
80
-384
-80
-112
80
-80
48
-32
80
0
-384
-384
-432
592
480
-128
-336
112
384
-208
-192
-32
-32
-32
-512
-256
80
208
-80
48
-112
144
144
-192
336
112
32
144
160
-160
-176
224
192
-304
80
32
-384
-352
-304
64
-96
-368
-32
-144
80
464
192
-208
-336
-64
-720
-432
176
144
112
-64
304
160
336
256
352
256
352
192
-240
-48
-208
-256
-336
-80
128
352
-80
-144
48
-144
336
128
144
-112
-272
288
-240
-288
-544
-320
-256
48
-112
80
-112
208
48
320
608
592
16
176
-544
-448
-320
-512
-496
-192
-32
-400
32
-192
-288
80
368
240
-64
-240
-128
-224
64
-32
-224
80
-32
-304
-336
-448
-160
-176
-192
-224
-160
-160
-416
-192
256
48
-112
176
-240
-16
432
272
256
112
-128
160
-16
-208
-96
64
224
464
-192
-496
224
-64
176
144
-112
96
-96
32
-160
-112
80
512
96
-256
-304
144
320
-320
-272
-64
-432
-368
-32
336
-32
208
816
64
256
64
-64
-128
-160
96
336
-144
-80
112
-224
-48
192
448
0
-512
-64
-304
-96
112
128
176
672
416
400
96
-592
-128
-80
-320
-528
-192
96
32
144
160
176
160
128
0
-256
-464
-464
-256
352
304
-32
-144
-576
-720
0
-128
-128
-384
-240
-240
-624
-304
-496
-272
-544
-128
16
272
512
0
64
448
32
-144
0
-240
48
336
288
32
48
-528
-320
-432
-208
48
-192
-112
144
256
256
-208
32
272
432
-16
336
-176
-272
-336
96
448
-16
-176
-160
-176
-96
-112
-400
-48
-32
224
208
-400
128
16
128
32
-80
224
352
368
-240
-768
-752
192
-16
-128
-256
-272
-128
16
80
128
160
-144
272
464
-144
-48
-256
288
-16
256
-400
16
560
224
-32
-192
-96
-624
-32
272
128
80
-288
-336
-512
-192
96
-320
-112
-224
16
-128
-144
-16
368
304
48
16
176
288
-48
128
352
176
-304
32
112
-160
-64
0
-64
-112
-16
448
112
-240
144
432
144
-64
-240
224
320
128
48
-112
96
-64
-400
32
336
-176
-304
-352
-560
-256
-48
48
48
16
256
-320
-288
-448
-240
-192
416
576
208
32
32
112
32
-32
-64
16
192
-128
-144
48
-176
-240
-320
-320
176
-96
-64
144
192
-224
368
16
-464
-336
288
160
240
336
288
80
-80
592
400
-240
-160
-176
0
144
240
528
368
-240
-304
-704
-416
240
-80
-160
-96
-224
112
32
-144
-80
-96
-64
-368
-496
208
-160
-48
144
48
592
112
320
352
-176
-480
320
-16
0
320
144
-144
-32
288
64
128
160
-272
-144
16
32
0
0
-256
-208
48
-176
272
-32
-320
368
688
128
160
-384
-432
-208
-208
-80
80
-128
80
128
-16
144
112
48
-688
-304
128
80
-80
-80
-112
-208
-48
-64
-400
-496
-80
336
160
256
240
32
-160
256
368
400
464
544
240
320
448
208
624
336
48
208
-240
-128
192
-80
-96
-240
-32
-128
-96
-16
-352
-240
96
-144
-592
-64
64
-96
144
496
576
176
-384
-208
-16
464
496
-304
-368
256
416
112
-144
528
320
-432
-640
-448
32
544
544
-112
-208
-320
144
-16
0
-64
-240
144
-560
-288
-192
-352
144
272
224
48
256
272
-112
-160
400
304
-352
-688
-432
16
0
-32
-496
-336
-352
176
448
-128
-288
-64
-256
-208
-224
-624
-784
-448
-240
608
96
-192
16
-48
-224
-192
-240
144
-96
-512
112
-32
-160
-368
-32
304
48
-368
336
384
48
-192
-480
-176
192
-112
32
-64
-528
-176
256
-80
-48
-576
80
368
32
128
304
512
160
-240
32
-176
-176
-224
-336
-16
-208
-544
32
256
384
416
64
-464
-336
-176
32
176
-320
-256
0
288
320
128
-48
-304
-336
0
0
-336
-800
-624
208
272
176
448
-32
80
64
-16
288
-240
-192
-160
-192
272
400
192
-80
128
496
384
224
560
96
-112
-208
-48
528
80
-576
-496
-80
-336
144
-16
-48
-96
-16
-256
-160
352
416
208
256
528
-192
-640
-416
-192
-64
-16
272
272
288
-256
-320
-256
-16
384
-64
-272
-96
-80
48
272
-48
-416
-80
-384
-368
-464
-288
64
240
-80
-32
16
32
-48
80
-432
-224
-256
-64
256
400
-32
-656
-48
304
256
-240
-560
-432
-208
224
416
144
-144
144
208
-64
-144
-256
224
560
96
16
528
480
320
352
112
-32
-48
-112
-528
-400
-176
80
544
304
448
400
-112
-240
-544
32
160
320
-112
432
496
320
80
-192
-224
-48
-16
160
-48
0
128
176
-224
-464
-112
336
416
240
592
128
-96
32
640
80
-368
-592
-656
-432
144
-80
240
240
32
64
-32
-512
-96
16
592
224
384
-176
112
192
16
64
-96
-128
-160
-608
-256
-80
-144
-368
-224
272
272
112
-144
-64
-112
-96
-112
32
128
256
80
-208
-480
96
320
192
-400
-400
112
-256
96
432
-32
-256
-16
112
112
288
160
-160
-128
320
288
288
320
-304
-272
320
-48
64
16
-64
-448
240
-192
-144
112
-80
160
128
112
-416
-32
32
-416
-320
208
432
-112
-144
-144
-272
-288
-288
-112
16
-400
-688
32
176
512
592
496
288
208
-48
-192
-368
-128
240
0
-592
-256
-592
-640
-336
-256
-528
-64
464
320
-32
48
112
-256
-48
640
144
-480
16
320
176
-208
64
400
64
144
176
304
288
160
144
48
96
-256
16
-112
368
576
0
-144
-16
0
-144
144
112
304
32
240
128
-64
-112
96
-224
-64
-176
-288
0
-160
-32
-80
448
272
96
64
48
256
-48
-224
-528
48
144
-80
-320
-448
208
16
160
224
-80
-480
-640
80
288
-48
-176
-480
-304
304
432
96
48
-272
-80
-144
80
144
112
128
336
-144
-128
-96
-16
-112
-464
-496
-112
-32
-368
-240
-368
-368
-192
32
-144
-288
-192
192
0
-16
80
-240
-48
-160
416
176
-128
-192
-224
128
32
-48
-320
48
80
208
-176
-64
-480
224
16
48
48
32
0
-16
208
112
128
320
208
320
-96
-272
-208
-128
-176
0
144
496
160
256
448
336
-96
208
-304
-64
400
336
224
368
-80
-96
80
448
464
96
0
96
48
0
-336
336
384
-144
-96
-64
144
192
240
-64
32
208
-256
-448
-240
576
1008
656
144
176
336
192
-608
-624
128
-144
-320
-544
-432
-256
176
64
-128
-128
128
160
-48
-176
240
528
-128
176
-32
80
224
240
-16
96
160
192
96
240
192
-32
-432
-256
-176
16
384
592
320
-16
-112
-416
-256
48
256
16
144
-16
-240
336
48
0
-432
-816
16
-16
-192
-144
-160
-160
-512
16
32
-144
-544
-224
-16
-176
-224
-368
304
112
-80
96
-192
304
320
224
-64
48
320
336
224
-240
-192
-368
-112
512
544
48
176
256
176
-144
-352
-80
-160
32
-240
-336
304
-48
-464
-32
112
96
32
288
-192
-464
-368
-80
-144
-288
-416
-64
80
-16
-160
-320
128
352
160
160
0
-32
-16
-144
32
-208
-176
-48
-192
-304
-256
-176
384
-16
-256
528
-48
256
-112
-16
240
240
-16
-336
-208
480
320
272
80
-560
-32
-144
-848
-480
-224
112
-64
144
-128
-208
-272
-288
-64
-32
-192
16
-128
80
128
-64
-352
64
240
-224
-464
-160
240
-144
-96
-208
112
144
256
128
416
304
-160
-208
144
-80
-448
0
192
144
-176
-160
-272
-176
-480
-544
-464
112
-64
-176
-48
-336
-112
256
192
160
96
-80
-480
-160
304
352
208
0
384
272
-16
0
240
-112
-240
352
-96
-448
-272
-320
112
-352
-80
32
-208
-432
-240
208
96
-512
-256
384
624
-320
-256
-560
-112
144
112
80
96
-112
-64
-224
-288
-160
-32
0
32
-176
-368
-448
-208
-320
-336
-96
272
-304
-368
16
336
448
80
80
144
-128
128
176
80
272
176
80
208
-112
64
-32
128
-32
-288
-128
-192
-128
-416
-96
-80
-272
-368
-288
-176
176
16
-496
-304
16
96
112
64
-48
-48
-160
160
-96
-480
-64
48
0
336
-272
96
192
464
112
128
128
256
336
-336
256
272
-48
304
144
16
-336
-384
32
-256
-160
-48
-144
-48
144
-224
-176
-176
-80
-176
-48
128
-64
-96
-320
80
128
416
-128
160
-192
-288
-32
32
-64
-416
224
272
-416
48
160
-336
288
48
272
-80
128
384
-240
-176
-144
-16
176
256
496
416
368
544
224
-512
32
192
144
288
-240
-304
-48
192
-128
336
-144
-496
-64
-112
-224
112
176
192
-144
-384
-688
-160
144
384
384
96
-448
16
-256
-368
-16
-32
128
48
-80
48
-144
144
-80
208
-256
80
208
-464
-528
-304
-176
560
256
0
256
80
-352
-368
144
48
96
80
96
-288
-304
112
-112
-320
0
576
240
-256
-176
-160
112
64
-96
80
256
-64
-80
-176
-448
400
128
64
-128
-64
144
320
-64
-112
-64
-400
-64
272
-16
-192
208
160
-256
-112
128
-32
64
0
-80
-224
112
192
-192
-112
320
304
-176
64
-96
32
112
-160
448
352
-16
256
-48
-32
320
112
160
16
288
32
32
-64
-48
-240
-80
-64
-304
-32
336
560
352
240
384
112
16
48
240
-80
-320
48
0
-352
-192
-80
144
-96
-272
-32
128
-240
-224
0
48
0
-256
16
-544
-320
144
128
64
-208
-480
-784
-752
-464
16
496
80
0
48
-128
-272
16
0
-208
208
80
-96
-240
-336
0
-16
16
-160
-16
96
192
176
-560
336
160
-160
32
80
320
160
384
-256
48
544
400
448
304
192
-16
-80
128
-160
-112
-448
304
400
256
-384
-416
-336
-48
160
16
320
192
-368
16
208
-160
-336
-592
-208
-128
-48
16
304
0
256
96
-176
-256
-176
-160
-608
-128
224
368
368
336
-384
-176
16
0
-192
-64
80
-224
-160
272
336
96
-32
-288
-288
32
176
160
64
-16
-272
-80
-16
-32
288
256
48
-256
-80
640
496
112
144
-128
-336
-32
-144
-480
-288
16
-272
-16
-448
-688
-704
-112
96
-192
0
96
-64
-16
-16
352
-80
-320
-416
-240
-224
128
-352
-320
-560
-368
-256
-272
-96
-160
288
80
-144
-432
-208
-320
144
256
-256
-176
-128
-32
-224
-432
-64
-432
-288
-320
48
160
0
400
320
336
160
-160
256
-96
-176
-80
-288
-96
352
208
80
-48
112
608
480
176
528
224
336
448
0
-48
-96
80
-16
352
544
-272
0
432
336
16
-304
-160
256
160
176
-16
-432
-16
112
-64
160
400
464
384
-128
-112
96
-192
16
-224
-48
96
-96
-96
0
-16
0
144
-64
288
128
-240
-48
144
-224
-160
-96
-80
240
288
160
144
-96
288
128
-32
-16
0
192
-160
-80
112
-96
-176
-48
112
-64
144
0
-96
-112
32
-448
-432
-240
-208
48
288
16
16
-96
192
-48
-368
-176
96
-192
160
304
192
272
304
48
384
480
400
384
-80
-32
-160
-160
48
0
-176
-128
16
208
-64
32
272
-96
112
-176
32
384
0
16
160
80
-256
-160
-208
48
-224
-256
-288
128
-336
-112
272
176
-256
96
688
48
-432
-576
-400
-176
208
320
-368
0
-368
-464
-48
288
368
-80
-96
-368
144
-144
-384
-112
-128
-32
-272
-224
-256
-320
-288
352
16
48
0
-80
64
176
304
384
-352
-144
512
128
-592
-464
-272
-544
-304
352
528
-368
16
80
-192
-384
-224
-496
432
448
160
32
-192
-64
32
-48
-96
336
80
-48
-320
-48
-80
64
208
176
-80
0
256
128
304
-176
-288
-176
-16
576
112
-128
112
176
48
272
240
-16
32
48
-304
-144
-448
-32
-144
-352
-144
-240
192
176
-64
384
-256
0
96
96
32
352
-304
-128
-224
-16
160
-560
-496
192
208
112
-80
-144
-96
48
-16
-352
-224
-112
304
160
-112
-448
64
-48
-64
176
-176
-96
288
288
16
-64
-128
-240
-208
-80
144
-64
-112
-432
-512
-240
-144
-336
-80
-128
16
-128
-240
80
-192
48
-224
272
144
320
288
80
352
256
288
288
48
-16
192
32
-16
144
-128
-256
-368
-176
-16
-352
-32
16
16
64
-240
-48
208
272
176
32
240
-48
-416
-432
-528
-256
-224
-64
0
128
112
-80
48
-352
0
160
-96
-448
-400
16
-560
-224
-80
128
-80
-64
320
192
96
112
-80
-144
32
-48
160
16
-288
240
80
96
352
-16
48
240
144
432
112
16
128
48
-224
0
-128
16
32
64
160
240
208
496
384
-96
-128
96
-48
160
-368
-480
-528
-192
480
224
-112
-496
-80
-16
-16
-176
256
464
400
352
-64
-16
-192
-448
96
304
288
-16
832
64
-96
384
528
160
-192
-240
32
-16
-112
32
416
320
336
336
-32
-208
-368
-288
240
288
-208
32
80
176
-496
-144
-256
-160
-48
-144
-288
-64
-384
208
-32
-368
-192
160
-192
48
-16
-384
-608
96
160
320
432
64
-400
16
256
176
144
-240
-64
176
16
32
288
352
368
320
-112
128
112
320
-16
-128
-224
96
96
432
480
16
-208
-16
-288
16
-80
96
656
528
368
464
-176
-192
-160
-416
-368
-192
-112
48
80
16
352
384
528
-368
-672
-368
-304
-80
-288
-64
-16
144
-112
-192
304
320
64
-544
-32
-240
160
-192
-16
-240
-560
-128
80
-224
-144
-16
512
352
192
336
-32
-32
-96
16
-256
-288
32
160
-128
-256
-224
-128
0
32
-96
-176
-352
-64
-144
-304
-304
-80
-32
-176
-256
-368
-112
-384
-480
112
64
-128
80
192
32
144
432
208
-400
-352
48
64
224
64
-272
48
96
464
416
448
256
272
96
192
320
112
64
352
448
432
192
304
-128
32
80
-160
-224
-272
-192
-400
-496
-688
-64
352
80
208
320
144
-32
-208
-176
240
544
176
48
-80
-208
-16
240
32
-32
416
-192
-672
-96
0
-480
48
464
80
160
176
48
-80
-240
-16
-208
-16
96
-272
128
-176
-48
96
-32
208
288
-320
32
64
48
320
640
-16
176
80
48
256
-16
-288
-16
240
-48
32
448
720
240
-352
-96
96
-240
-384
-160
192
448
752
240
-32
288
64
-128
-48
80
160
-80
-96
64
592
816
368
-272
-336
-624
-432
128
272
-304
176
208
-224
-384
272
288
-112
-320
32
0
192
368
48
-320
64
144
80
224
320
-176
-112
-16
416
128
-400
-512
-64
352
-96
-496
-416
-192
176
416
256
-352
304
432
240
112
-512
32
496
272
192
176
-336
112
-160
144
-32
0
-144
256
128
192
144
-48
-144
304
224
240
496
208
176
64
432
0
-320
-224
160
240
48
-256
-848
-432
272
96
0
272
-368
-80
352
416
368
-128
-32
512
336
624
224
-384
-480
288
-48
-96
-144
-304
-80
-288
-160
-16
384
-160
0
192
448
384
288
160
-304
48
-176
64
48
16
-224
-144
-160
-192
-96
-240
-272
-16
-288
0
16
304
400
64
-128
160
352
432
256
128
-16
-144
-160
256
-208
-128
0
192
-32
-80
368
320
48
144
96
-176
32
112
160
80
112
80
496
-96
-224
144
-256
-16
544
640
112
-160
-128
-80
688
288
192
-16
-208
32
-16
-288
-64
-96
-128
-336
-272
96
128
320
32
-240
-96
48
144
-384
48
336
384
-352
-384
48
192
432
128
128
32
32
-176
-512
-224
16
272
-16
-64
-16
-320
-240
192
128
-240
-416
-304
224
352
-192
320
400
80
-224
-288
-304
-128
256
96
-192
-144
144
336
544
-288
-192
-96
192
480
-160
-352
128
-352
-608
-240
-416
-112
272
48
432
304
-256
256
-320
-160
-416
-336
-32
-224
176
240
-272
128
240
-48
-80
-400
-304
48
-112
-176
16
96
64
-48
-224
-96
-112
-144
416
16
192
80
-304
288
464
80
-128
-384
-608
448
784
176
-224
32
-96
-192
16
80
224
128
160
32
-240
32
80
112
352
656
512
-96
-160
-96
112
16
-80
-496
-272
64
-192
-224
-144
48
-192
-224
-544
-272
192
336
-352
-320
-336
-256
64
-96
144
112
-176
-272
336
160
0
208
368
0
-176
-304
-416
-80
384
-16
-288
-336
-256
-560
-688
-192
480
240
-528
-80
-16
272
368
32
272
0
-224
-336
-96
-144
96
-32
-112
64
144
128
-208
-112
-176
160
112
48
336
288
464
-80
-96
-304
-96
128
160
-144
-112
48
96
-16
-32
752
176
176
-160
208
-176
-256
-208
-384
96
128
-224
-496
-112
128
-64
-16
-160
-368
-176
-192
112
-80
-544
-512
-192
224
208
640
96
-80
160
240
288
400
-16
144
-304
-192
32
-112
336
16
-32
-48
48
32
192
-64
-128
560
224
-208
-112
-352
-224
-96
-176
-96
-64
-480
-32
432
432
-128
176
288
-96
-496
-288
-288
48
0
-496
-272
16
624
896
592
16
-368
-128
-304
-144
-336
-192
-160
32
-320
-32
-176
-704
160
704
192
0
-288
0
448
272
336
-144
-176
400
432
592
416
-384
0
400
0
0
208
-224
112
608
640
448
144
32
240
-160
-208
32
352
384
464
688
288
176
256
-224
-112
-352
-544
-368
64
128
-128
-192
-400
64
-432
-416
-448
288
368
-176
-112
256
0
48
0
-400
-80
368
-240
160
80
64
336
336
-176
-144
-64
-208
16
256
-176
-256
-16
-208
0
-192
-144
400
432
368
672
416
-96
-480
-496
-160
-672
-336
-112
176
-64
-368
-288
192
192
48
-64
-288
-192
-448
-128
624
160
-160
48
-16
-576
-272
-96
0
176
16
304
-544
-720
-160
0
48
-16
400
-48
-112
-368
-176
48
-144
240
176
240
336
448
496
112
304
304
-176
224
464
352
384
160
-64
32
256
432
-80
-416
-128
-192
-32
-272
-240
-192
-48
-208
-416
144
-336
-16
-16
-128
-528
-368
-80
272
336
240
32
-192
-96
352
-128
-224
-288
96
944
688
224
-320
80
144
48
112
112
-16
112
144
128
-320
-352
-336
64
-256
-144
-64
-32
288
352
-144
-96
-240
208
608
464
-32
0
-240
-288
-256
208
320
-160
-208
-128
32
144
-128
-32
-32
-112
144
-272
-128
-336
-464
0
368
304
-112
-432
-112
-96
-288
-336
32
-48
-16
32
-224
-192
-64
144
-96
-352
-448
-48
-128
-176
-352
96
96
272
272
128
-368
-400
-64
336
224
272
160
-176
0
-192
-336
-160
448
528
256
-176
-352
-208
-48
48
240
160
-160
-64
80
-544
-128
-64
-112
-384
-48
352
16
-16
288
-64
-48
-32
32
208
48
0
-48
-272
32
240
-432
320
240
32
-224
-272
-496
-192
-256
-112
48
256
-224
-208
16
512
240
0
16
-352
-80
160
528
624
864
64
272
-16
0
368
16
112
128
208
-32
-224
-400
-144
-176
-224
-160
-144
-224
144
288
336
112
80
16
304
256
-32
-240
-144
128
96
-80
-352
-112
-16
-544
96
576
352
160
-320
-496
-544
-320
-560
-48
160
400
560
128
-288
-336
0
160
-128
288
224
-160
-64
-336
-256
112
160
-448
-384
32
192
48
-176
-592
-352
224
80
-224
-288
-208
-336
-384
-240
176
496
-32
-384
64
128
144
16
160
-112
272
-224
-112
96
-208
288
496
-304
-368
160
320
-256
0
176
-32
48
432
192
-528
-368
-128
256
176
16
336
176
32
336
176
48
0
416
96
-48
208
256
-256
-192
48
-368
-320
-288
64
-160
-48
-272
16
-80
64
32
208
208
-288
-288
-144
-16
80
32
-288
-320
-560
-176
-192
-336
-304
32
-224
-384
224
160
-176
-240
-320
-512
112
208
-320
-16
0
256
304
144
-336
-400
-400
-64
240
336
272
48
-240
-208
352
16
-256
-480
-96
-32
-160
32
352
80
96
-48
-320
-464
-208
-192
-400
-368
-304
208
-208
-208
192
48
-16
80
-48
608
400
64
48
0
400
-64
64
-96
-256
-80
-48
416
304
-240
-208
-464
-144
704
240
256
-384
-256
112
160
448
176
-144
16
-144
-336
-176
128
48
160
-48
-288
-176
304
288
192
-256
-448
-160
-96
-64
-176
-256
304
288
48
-352
-384
-144
-400
-80
112
-64
-240
96
80
112
320
336
16
-32
-288
-48
32
0
-80
-64
-480
128
96
176
32
-240
-16
-176
64
64
-16
-336
-560
-48
160
240
272
304
-224
-144
176
-64
336
432
96
288
-304
-368
64
176
-32
96
0
-16
48
-96
-112
32
432
96
0
-224
-48
-128
-176
-528
-240
-224
-320
-112
272
80
128
400
256
16
-432
-400
-416
-256
160
-160
-272
-240
-224
176
-32
-304
-192
-176
48
16
160
-64
256
336
96
240
-48
128
96
304
304
-144
320
336
-304
64
-256
-144
-336
256
640
336
240
-640
-352
-160
400
368
-272
-128
-304
-256
192
288
-192
-304
-256
-48
-208
-256
-80
-304
96
224
64
16
-32
384
816
144
-112
272
144
-16
144
-64
-304
-128
96
-240
-64
-16
-48
128
-384
-224
-144
32
-240
-320
-64
160
304
0
-96
240
368
-192
-400
-48
-16
448
-304
16
192
400
160
368
96
256
-48
-320
192
464
240
240
464
304
-304
-176
16
32
-240
-144
240
176
-304
-304
-656
144
304
176
-176
-544
-528
-144
-160
32
-80
0
-112
48
-96
-272
-224
112
96
-112
-16
208
288
-48
-128
-208
32
0
-240
112
256
-16
-368
-224
-112
128
64
384
-32
-256
-16
272
144
-64
112
224
-16
176
80
352
80
-96
-48
-208
400
-16
-48
16
352
384
352
-336
-32
448
144
112
368
272
96
-48
48
-160
-176
32
-96
-272
0
-240
-176
32
544
176
-480
-784
-288
32
80
-144
-288
-96
176
256
-176
-96
-240
-672
-416
-304
80
480
-96
-160
-208
48
96
608
304
-144
-192
192
16
-320
-160
-208
-32
80
48
-160
-144
-400
-352
208
-80
-272
-16
-16
96
80
240
-160
-80
-128
400
256
64
384
-368
-304
-160
-208
-192
-112
0
224
-480
-32
288
176
-352
-272
144
0
-48
160
288
352
80
48
-224
-384
-544
-80
-224
-176
-128
-16
-320
-288
-192
48
240
-16
-112
-384
-16
-208
256
0
192
-416
160
0
240
544
-80
-80
-272
432
480
224
16
-192
-192
-592
-400
-16
432
272
352
48
-416
144
-256
80
128
-96
-384
-48
-512
-560
-544
-160
224
192
240
-448
-384
-368
-416
-48
96
-144
-96
176
192
0
-160
-32
192
32
-64
48
-224
16
288
256
256
-64
-80
224
-128
-112
-96
-48
128
-160
-528
-176
-176
-272
-192
-256
0
-96
-304
-448
96
64
288
-16
-176
-384
-352
-16
-240
-304
320
-16
-256
176
400
160
288
32
96
144
160
-208
-304
-272
128
224
96
-96
-272
-496
-544
-80
-112
352
144
48
-192
-320
-16
176
-48
-256
-352
-288
-48
-96
-96
64
-112
-368
-48
112
240
-48
-240
16
-432
-352
400
16
-304
-288
-336
48
368
80
336
-192
-192
112
-288
-192
176
-208
160
208
-368
-544
-256
-480
-48
-16
-480
-448
-416
-384
112
-176
192
512
144
288
112
64
-48
-656
-304
-48
256
-80
-64
-128
16
480
208
-48
320
400
256
400
400
272
176
-16
320
128
384
208
-272
-160
-208
-64
176
-128
32
-304
-896
-240
224
16
-64
160
-256
-432
-80
-208
-32
432
272
-144
-384
32
128
176
-64
0
464
592
320
-112
-352
48
-208
-176
240
96
400
272
-96
128
-16
480
672
-16
-256
-320
-352
288
560
64
96
-176
176
352
160
-160
-368
48
384
448
-80
80
0
144
-320
-176
64
240
-16
48
48
48
-96
-528
-752
-272
-288
-192
-128
-400
48
80
32
240
16
176
32
96
-208
-320
-160
224
368
464
-256
-128
-640
-400
192
224
-288
-240
192
320
448
512
368
32
64
-64
-128
-256
-64
128
144
-160
272
272
272
128
-160
-144
-272
-288
-448
-352
-32
160
48
240
368
96
320
624
32
-400
-128
-320
-416
368
112
272
-480
-272
-176
-176
-16
-448
160
-112
-288
-160
240
448
208
256
80
0
-336
160
240
224
64
-240
320
-32
-224
368
80
64
16
192
320
144
-80
-384
-16
544
-128
-64
-32
-112
32
320
-368
-320
-144
-432
-352
80
-16
-64
-80
128
352
320
416
144
-240
-160
192
-16
-16
336
128
112
0
-352
-352
-48
-416
-560
-128
-80
0
-256
-368
-336
-32
160
144
64
-224
-208
64
208
-160
-144
-400
-816
-208
-288
-384
-192
-128
256
0
-16
-96
608
96
112
384
96
0
-192
-256
-96
-144
-160
16
32
-368
-624
-96
304
-112
-304
224
16
-64
80
240
336
-512
64
176
48
-16
80
-48
-224
-368
-48
-288
608
304
80
32
16
-112
144
48
-256
-64
240
160
32
-224
528
400
-512
-704
-496
64
192
192
80
384
64
320
-272
-144
-176
336
336
-112
-96
-272
-32
96
-16
-112
-560
-320
-336
-256
-48
-176
-112
400
240
128
288
144
32
112
176
384
368
592
432
-96
-208
-16
-288
-64
-224
-544
-304
192
-176
0
-368
-144
272
576
368
-16
-224
-272
-256
512
224
272
32
336
560
496
160
-256
0
128
-16
-176
-272
-624
-112
-336
-1088
-608
-112
560
368
272
480
256
-144
112
176
224
224
304
416
368
528
800
144
-192
-496
-32
48
288
480
464
64
-144
128
160
208
448
256
-160
-128
352
-64
-192
-736
-208
240
240
64
-48
-368
-512
-416
-80
-112
144
272
592
-208
-96
-144
192
304
96
320
320
-48
-320
-32
288
272
704
320
272
512
336
128
640
-256
-128
272
144
544
368
-224
-128
32
-16
-320
-384
-352
-208
-96
-560
-448
-240
-256
-464
-176
-208
-144
416
240
368
-576
-384
48
80
-144
-480
144
-480
-128
64
64
-432
-384
-576
-496
-272
-192
-208
64
160
-128
384
112
-160
-64
-32
112
-48
-128
-64
352
-112
-48
128
256
464
640
-16
-576
-256
-560
0
48
-192
-176
192
-400
-624
-592
-464
160
400
176
96
192
96
-272
-96
-288
-400
16
208
-64
-160
-48
-256
-384
-560
-272
-128
176
144
192
336
288
-336
-272
-176
-320
-480
-192
-160
-352
-112
144
32
624
352
-112
176
112
80
-64
320
128
256
-112
64
-176
112
368
128
464
240
-240
-256
-464
-576
16
320
-320
-144
80
-80
-304
-208
144
80
128
256
-352
-864
-416
-448
-320
-64
96
-192
-192
432
64
-128
0
-32
32
-48
-64
224
16
-144
-288
-400
-32
160
320
-224
-848
-128
128
-272
16
144
144
464
528
32
0
256
-272
128
48
144
96
-448
-880
-176
-32
-160
-192
-400
80
160
-208
-32
-368
-512
-80
-256
0
208
224
-192
-176
-48
608
352
-128
32
160
144
-352
-176
336
128
-160
256
320
192
-160
-384
64
-144
0
-48
512
128
320
208
-16
256
-464
-768
-192
-48
400
128
448
288
80
352
16
224
160
160
160
384
256
-384
240
0
-688
-496
-64
-16
-624
-304
256
16
416
-192
-608
-352
-448
-496
160
48
32
-96
-304
-16
-352
128
-96
-112
240
64
0
-80
-192
-176
-288
-208
256
0
144
-48
-112
-512
144
368
160
144
160
0
-128
192
16
-496
-336
-272
288
448
272
288
48
-192
176
384
208
80
160
544
448
208
304
-32
-192
-224
80
-48
-112
-256
-208
-304
-624
-208
-96
-144
96
-288
-576
-112
-304
-288
-32
-432
-320
256
208
-208
-128
-352
-768
-768
-512
-640
-352
48
-480
-576
-448
-560
-544
-464
-544
-160
128
496
80
-176
-384
-112
176
128
64
-624
-368
-128
-304
48
16
-336
-144
-192
-240
-112
160
-432
48
-32
128
80
-208
48
-304
-224
-32
176
64
48
-112
-656
-80
-384
-512
-240
368
160
400
144
-32
-368
-512
-176
112
192
0
256
-272
-400
-64
336
32
224
240
272
-16
-176
-448
-192
48
-176
-400
-848
-208
-160
-224
-144
32
240
128
-352
-464
-496
-304
-144
-208
288
624
400
240
112
48
288
176
-80
-464
-192
-160
-32
0
-480
-304
0
112
-160
-544
-352
-128
352
176
-384
-336
-256
-240
80
80
-128
240
-192
-704
-352
640
416
192
208
-240
-336
-448
-176
-272
64
480
240
-624
32
96
96
-144
-352
-16
64
144
-176
-256
-144
16
-176
-432
-288
-320
-16
176
-48
-400
-400
-112
-112
-336
-368
16
64
496
496
48
-48
256
128
352
112
336
176
-192
-208
-144
-128
-32
-64
-240
-256
16
48
-288
-592
464
208
80
64
128
-32
-304
16
80
-16
-128
288
192
-64
-176
-320
80
272
80
160
64
-48
208
-336
-160
160
-272
-128
-352
-80
432
432
576
256
400
256
-176
-112
224
400
80
48
400
400
-160
160
-80
528
-16
-288
-464
-384
-80
-176
112
-176
688
496
336
256
-224
-32
-448
-320
384
272
576
32
-96
-48
144
80
256
-32
80
464
-64
-80
-304
-128
-544
-80
304
-288
-96
-80
224
64
240
-464
-240
112
448
544
-400
-320
-80
-752
-560
144
272
-32
-16
-32
-208
-32
576
64
256
192
-80
224
288
192
448
368
-256
-368
192
-224
-336
-112
16
96
128
352
384
448
-160
320
400
176
96
160
112
240
256
80
-416
-272
-32
-192
-448
-176
-320
272
-112
-368
80
304
64
32
-160
-80
-80
240
272
-48
-432
-352
48
-112
-240
208
80
0
-224
144
-144
-144
-64
256
336
112
176
80
288
160
-352
432
32
-416
-96
-160
-112
0
48
176
208
592
400
32
-208
-96
80
-304
-384
-272
48
144
96
288
-32
0
304
-16
288
256
-80
-352
-224
-352
-192
-128
-224
-128
112
128
48
-32
0
288
288
144
-272
-112
-528
128
176
-208
112
128
480
64
96
272
224
32
-64
176
64
-112
-384
-128
-144
-288
32
80
32
-64
256
-64
-368
-80
80
16
-112
16
64
96
192
192
-352
-416
208
608
400
-272
-496
-224
-64
-160
-512
-160
-176
256
304
352
-80
-144
-304
0
64
-208
64
128
-240
-48
112
-224
-224
-112
416
272
-48
48
-96
128
176
-176
48
-256
-192
32
160
-256
288
336
288
384
16
128
-256
400
368
304
656
96
-288
-48
-176
192
368
672
288
-320
-128
-64
144
416
272
144
112
64
128
48
-112
-48
48
192
-192
-560
0
-48
-496
-112
-112
-96
48
112
336
304
400
-96
112
-240
-704
-240
-96
-176
-352
-160
768
896
160
-176
80
416
-272
160
-48
272
192
160
368
-128
304
800
688
208
336
288
-288
48
32
80
16
32
336
304
-32
304
64
-64
-528
-64
-32
304
112
192
256
-64
144
320
544
400
144
16
-128
112
144
512
-64
-176
-16
336
784
320
48
32
48
240
64
384
688
320
-48
-208
144
112
224
224
-464
-448
-304
-128
128
48
384
480
400
656
272
-304
-208
304
-128
16
640
208
464
64
-240
80
-496
-256
112
160
48
-48
-96
-112
16
96
-16
560
496
112
-112
48
32
256
0
384
288
32
48
-224
-432
-48
464
-96
336
560
224
-208
48
-176
-80
256
352
304
256
448
0
-256
16
80
160
128
528
544
-48
-80
96
560
144
96
-32
-48
-384
48
224
192
-96
-144
-96
-128
-640
-528
240
384
-144
-272
-96
-160
-128
480
384
496
368
352
352
-208
48
-32
144
336
-224
96
-16
-192
-128
336
48
-384
-208
-384
-352
144
160
-256
112
368
240
-144
-16
-176
208
-32
-400
-80
48
144
160
112
-48
336
128
-80
640
432
336
144
320
48
-144
-128
64
-336
-368
80
80
48
64
464
272
96
144
-288
-96
448
-224
-544
-208
240
208
64
192
144
96
128
-112
-80
-96
176
112
-32
240
624
288
272
144
-192
352
224
128
-80
464
32
-240
-224
-112
-336
-240
-192
144
0
80
-96
176
-16
-112
32
-64
32
224
112
16
-32
-16
32
272
16
16
224
-128
-48
0
-80
-272
-672
-448
-528
-80
-208
-64
272
-80
-480
-64
-48
-240
-128
-256
-480
-672
-512
-464
-576
-448
-224
112
384
352
-368
64
336
-80
-144
-48
-96
-160
-64
-336
-464
-16
-320
-208
-32
-288
-48
-48
-288
-112
-16
400
-160
-160
-272
-240
256
64
128
480
16
240
256
-192
-16
-128
-192
-176
80
-160
336
464
272
-176
-112
-80
-96
-352
-576
-368
-240
-192
-288
-368
176
256
-16
-96
624
416
16
-160
64
112
160
464
288
0
-160
320
432
176
64
-608
-224
-160
-48
-48
272
256
160
-272
-192
0
-96
-208
16
-48
320
608
-112
-48
32
-368
-128
720
208
48
224
352
720
-240
-48
208
336
480
-32
96
320
80
112
240
240
160
16
-208
-432
32
-224
48
336
-176
-160
-96
-48
-192
-128
-176
-208
-352
48
160
-480
-400
-448
-336
-80
320
48
272
-128
-288
-112
32
656
416
192
32
-368
176
-96
-176
-224
-336
80
352
320
208
112
16
192
-224
-272
640
208
112
128
368
528
400
-16
-240
400
96
-512
-752
-432
-208
0
144
-224
48
352
208
0
-32
304
112
-128
-320
-192
-144
-224
-160
-160
-384
-176
0
-32
-256
144
112
-224
-288
-240
-64
-176
160
480
384
176
176
336
128
288
-96
-224
-320
-176
240
448
256
144
16
-80
176
80
-368
-560
-400
288
128
368
416
-144
-304
-240
-256
-544
-416
-496
0
-192
-144
-288
-176
-400
288
416
-160
-336
32
48
448
480
176
-224
-64
-112
80
48
-256
-64
-176
-48
320
160
-320
-288
-80
-352
-144
48
416
160
64
16
112
-336
-368
-224
-16
-32
16
-128
-176
0
-192
-48
-80
-64
-544
-208
-48
-16
64
-448
-64
320
256
-64
368
128
16
-368
-208
16
16
-192
-240
-224
16
304
256
432
592
432
224
32
-48
96
352
-48
-320
0
-128
-320
624
80
320
0
192
48
112
-96
-256
96
208
-16
224
192
16
400
192
432
160
-128
-304
144
0
112
48
96
336
-16
128
416
192
-128
-160
-352
-256
304
64
208
-128
32
288
128
64
240
-416
-176
-240
-256
256
160
-576
-176
592
880
-48
-304
-224
-496
-64
128
-16
16
160
208
320
-304
-192
-128
128
368
-272
-368
64
48
-176
0
384
64
464
-48
-336
-208
-160
-384
-448
-320
-160
-32
48
-176
-400
-112
176
-96
-368
-32
496
352
-240
-240
0
-32
-192
-464
-64
352
272
-192
128
-32
-256
80
96
-48
400
304
-16
224
48
-48
192
-224
-256
-64
496
288
-368
-128
-240
-272
-208
-208
-112
-16
-240
-80
64
336
-336
208
-16
-320
-80
-160
16
-64
48
-80
96
-16
0
-80
-432
-240
-256
-176
64
96
-32
-16
-176
-400
-256
-176
48
-416
-752
-352
-496
-96
256
304
-112
-64
288
-64
-224
-80
336
304
-144
64
464
80
112
512
16
-160
-64
368
192
48
80
64
-96
64
-144
-32
80
-224
80
-32
-592
-624
-288
-256
-384
-32
192
-256
16
112
-176
464
240
192
64
-208
128
-272
-400
-320
-240
-512
-256
-304
-80
-144
144
-32
160
784
240
-240
-432
-368
-192
96
144
208
-160
-32
-128
-96
-224
-64
160
96
272
192
-16
160
32
-336
-112
176
224
96
256
-96
192
320
160
-128
-64
-112
128
96
-272
64
208
96
-16
-80
-128
-368
-112
144
80
-256
-288
-272
-240
224
512
208
-416
-32
-384
-176
160
-304
-416
16
-288
-48
176
-288
-32
528
-160
-208
112
320
480
-128
-224
-128
-192
-304
-176
48
480
256
576
672
560
352
128
352
-32
-160
-176
-144
96
80
240
208
-160
-208
-512
-192
-64
-80
16
304
240
96
-112
-160
0
-96
-224
-304
-496
48
496
240
112
240
-208
-112
0
-64
-352
176
-320
-384
-288
-608
32
256
288
384
416
272
224
-112
-112
-272
-64
160
352
-80
48
320
-80
-256
-128
-32
80
32
80
192
-400
-192
448
-64
64
80
48
0
-704
-32
496
-208
-400
64
-224
208
-224
-208
-80
-160
336
192
-144
112
-128
-128
-224
-80
-96
-384
-256
-464
-528
-848
-848
-112
368
-160
-192
-96
-16
-240
128
32
-80
-224
256
384
64
-192
160
-16
-96
-368
16
-224
80
384
-496
-480
0
-272
16
16
-400
-208
16
144
256
192
-96
-208
96
160
144
320
-16
-544
-320
-496
-528
64
160
64
48
-144
240
304
128
208
32
-240
32
-112
320
144
-128
-112
-112
48
240
288
464
640
0
-368
-80
-160
32
128
80
-544
96
-16
-144
-480
-416
416
432
224
-224
-256
-96
-16
144
-64
96
-64
240
-80
-240
-32
112
240
-112
-272
-192
-16
192
256
-160
304
304
144
32
368
352
-352
-432
96
-112
512
16
112
128
-64
-240
-16
160
-96
416
112
-176
-240
528
592
96
-80
-64
-288
48
-320
16
112
400
528
-112
-112
496
192
-128
-112
80
-48
48
112
-208
-336
-256
-64
320
368
-144
-416
-336
-240
64
192
208
192
48
96
64
-160
-224
16
-144
144
64
-240
16
160
-64
16
-128
-32
432
96
-352
-256
-256
-224
-128
-64
-192
-224
-32
-144
-640
-544
-512
-48
64
320
176
208
160
32
-160
-96
256
272
208
144
-272
-448
-288
320
400
304
144
272
-16
-16
624
0
320
192
-192
-128
96
192
-160
-336
192
-320
-208
304
224
400
64
-16
128
16
-112
-672
144
544
-112
240
160
304
256
-128
-224
-256
64
160
-352
-464
-704
-128
416
416
-16
80
384
272
336
-128
-96
-64
128
-32
32
16
96
-192
-384
-128
-192
-192
-336
368
-64
-176
192
224
96
128
432
336
48
48
112
-80
-272
48
-176
48
144
-272
64
-432
-256
-96
128
176
48
64
-64
-208
-256
-128
-160
-256
-208
0
-240
128
288
-256
288
448
16
48
-304
-400
-192
192
384
-48
-16
-112
-304
144
416
112
32
240
320
-272
-320
256
-64
64
-160
-208
-48
-320
-320
-208
-96
32
176
-96
-16
32
160
-80
0
96
464
-64
-272
-208
-16
-64
224
384
240
-128
-336
384
320
80
48
144
80
192
480
160
-160
-32
96
-144
-144
-336
-64
-160
-624
-352
-144
-32
128
384
304
-224
112
208
-352
-176
16
208
64
240
-176
-304
80
80
-96
-352
-208
-320
224
48
96
32
80
0
-144
-48
-448
-592
-192
128
304
336
192
160
-96
-496
-224
240
288
448
176
112
192
144
272
448
128
64
-64
-48
-448
272
496
32
-272
-224
64
-16
-304
-160
-384
-448
112
0
-336
-528
-144
-272
-128
96
-16
48
384
80
288
-96
-160
-80
-144
240
-272
-272
-256
-16
-240
-112
-160
-448
-432
-192
-272
-656
-448
48
256
-96
320
144
-16
-48
-32
-400
-352
-96
-80
96
352
368
64
256
-16
96
80
128
-64
-144
-96
320
224
16
80
16
48
-432
-80
-192
224
128
-144
-448
-304
-560
-208
144
16
-224
-192
-336
144
-32
-336
144
32
-128
0
368
-272
-368
240
-64
-400
-368
-400
-144
192
336
-176
-32
-160
-384
-304
32
80
-464
-16
160
-48
144
576
128
-96
176
256
416
272
-112
80
-272
-272
-64
-144
-432
-48
-80
-400
-432
-592
-288
-288
-96
304
-224
288
256
-272
-16
144
208
400
352
560
176
-112
-528
-112
32
-448
96
144
-112
240
80
48
-288
-128
208
256
480
-176
-208
208
304
0
-208
-32
-384
-256
-32
48
-16
48
16
-352
-64
-64
-64
-208
64
64
-384
-528
-64
-128
368
544
16
144
240
0
48
160
256
96
-480
48
-176
64
176
0
304
352
544
-352
-272
-112
-16
128
48
128
128
160
512
32
128
-144
-320
-256
128
368
80
160
384
560
160
-224
-656
48
496
-32
112
-64
128
-32
112
64
224
288
-208
192
368
448
-368
80
176
-208
352
288
160
96
704
320
288
-224
-96
176
320
-224
320
224
-96
-384
-640
-64
16
128
192
80
96
32
-48
96
448
288
48
-16
-368
-144
144
32
144
128
-112
-224
-320
288
16
-256
-464
-288
112
0
-128
-112
80
-16
-192
-320
-320
-96
160
-48
-640
-176
96
-64
48
-464
-384
-224
-368
-160
-176
-256
-48
128
560
-48
-400
-112
96
-112
16
48
48
80
-192
-560
-608
144
-16
-48
48
64
-224
-288
-384
0
208
-320
-192
400
368
176
272
-336
-96
496
112
240
240
80
-32
64
160
400
64
368
48
320
-144
144
320
240
176
-304
64
-64
-448
-416
-352
-64
304
16
416
80
176
-128
-224
96
-256
-112
-32
-80
96
80
0
-64
96
368
16
-80
-256
240
256
-304
-128
128
64
16
-112
192
-176
-64
-128
272
368
32
-112
-112
192
656
608
-192
-80
32
96
-32
16
-208
304
640
304
-64
288
208
-32
-240
-80
-128
272
288
64
16
32
320
-240
-352
128
432
64
32
-448
-368
-304
96
160
-64
-496
-240
336
400
272
288
-464
80
384
64
32
-16
-128
-512
-272
592
240
240
-112
96
416
336
160
-112
-224
0
-128
-144
240
384
320
-352
-512
80
400
512
1008
368
176
-112
368
224
-160
-320
-176
-16
-112
-144
-80
-560
-288
-16
64
-32
80
-144
224
144
144
256
496
544
448
240
-336
-160
96
-176
128
176
128
224
112
352
144
-592
-352
-528
-240
-80
-16
-352
-416
272
-48
240
240
-16
-160
-640
160
208
-224
-272
192
192
80
-112
304
224
-144
-240
-144
-240
-336
-80
176
144
160
-272
-512
-192
224
-240
-112
-208
-32
112
384
-240
-208
320
160
-128
-160
304
400
288
384
208
-256
-560
-192
-208
-16
48
336
-256
-384
192
256
80
576
848
32
-400
-336
448
384
-176
-128
-192
-352
96
224
-208
144
96
112
-224
-288
-144
-272
-144
256
144
-96
144
-176
224
-112
-224
208
-176
-240
-464
-768
-288
-480
144
192
544
192
-400
-16
288
128
-384
-384
-160
-32
-224
-128
16
304
864
480
288
624
688
64
-288
160
-160
320
-176
-480
-240
-240
-304
-320
-48
320
208
-160
-304
-272
-192
-96
256
384
176
-112
144
160
-320
-288
-576
-464
-208
-240
-496
-48
-32
-112
-144
16
64
352
-320
-368
144
-80
-176
-240
-272
32
368
288
-96
-64
-128
240
96
288
768
224
-336
-96
-368
-240
-240
64
64
336
256
176
-224
-368
-176
480
400
64
-352
-208
368
288
448
112
48
-240
-464
-272
-416
-432
304
80
32
-160
96
96
-112
-128
16
112
-144
-112
-256
-400
-192
-336
-112
-112
208
80
-224
-320
-288
336
16
-256
-176
-448
-320
-288
48
-96
112
-384
-400
-224
160
448
0
-48
272
144
96
368
352
144
-144
176
-16
304
-176
-240
-16
-96
-80
0
304
-48
-320
-304
-480
-416
-224
-144
-48
-80
-256
512
352
-96
-80
-208
-16
576
400
-144
-16
0
-208
-224
-32
48
-448
-208
144
-128
-48
336
-80
288
-16
-96
-32
160
304
-64
-112
-16
-48
128
272
576
-64
144
432
288
-224
-320
176
272
128
256
528
80
-144
384
-128
-80
96
288
208
384
320
272
288
80
160
80
272
240
192
224
432
96
416
-32
-16
32
-176
80
-48
-32
288
0
112
-272
-272
-336
-464
-272
-80
128
32
256
448
384
-16
-272
-128
-112
-288
-48
208
80
320
48
-160
96
-96
-496
-672
-240
-64
-688
0
112
304
288
-336
256
144
-256
192
224
224
-48
-480
96
-256
96
160
-144
112
64
-320
-336
-48
-96
128
80
416
464
512
480
-176
-160
480
560
208
-144
-176
-256
176
336
512
400
-192
80
160
-288
-656
0
96
144
96
176
128
-48
-32
-112
48
32
272
384
-144
-336
112
144
256
-16
-80
-128
-224
128
-96
0
544
320
16
-320
-160
-432
-464
224
16
-80
512
432
624
112
48
48
-112
-240
224
-400
-16
-144
32
112
-96
0
-64
-176
-48
240
144
-224
-16
16
-272
160
352
272
272
320
192
-448
-32
400
0
-128
-128
-80
448
304
-32
-128
48
112
-96
240
432
-48
-96
224
272
-112
-112
-320
-160
-192
-288
-464
-400
48
16
-112
-416
-304
-224
-320
-288
-224
-112
224
208
16
-320
32
480
368
400
240
-144
-240
-32
544
400
208
176
448
256
144
352
208
-48
-64
32
80
-224
64
-48
192
-32
192
32
-752
-384
0
464
-144
48
144
32
160
0
64
224
128
96
-240
-304
-176
256
0
-560
-48
192
-48
0
-144
-160
-160
-144
-160
352
240
32
16
-208
-352
-240
-64
-48
-80
-272
-464
-416
240
0
208
32
128
288
320
-144
-64
-64
-288
400
-48
-128
-192
0
240
-80
-208
-64
-176
-144
-128
-240
-80
-48
-304
-128
240
368
-448
-192
16
-160
-240
-512
-256
-144
112
-400
-48
288
-96
-256
-304
400
416
32
-96
-80
0
176
160
160
272
0
256
256
-160
-432
160
-160
-400
112
112
0
-176
-16
32
96
-320
64
-16
-48
-288
-80
448
96
-400
-192
96
48
288
224
16
-80
32
-144
-240
240
224
336
464
80
-400
-224
96
-352
-64
-160
-304
-224
0
176
112
64
368
64
224
112
208
-96
96
208
144
-16
16
352
96
288
0
-336
208
-352
-608
-352
-288
-208
224
576
224
-352
-336
-320
-336
144
368
320
128
32
176
656
592
176
-256
112
336
80
-240
-128
80
-16
-32
-80
-272
160
32
-352
-256
32
-400
-304
16
160
272
192
-272
48
48
-32
-16
-432
-288
-144
208
320
224
-16
400
128
-240
208
256
-304
-176
-16
-64
64
-32
-176
-448
256
304
240
128
208
48
192
496
368
-144
-384
-224
-112
128
48
-288
-80
-16
-256
352
256
32
-48
-384
-208
256
-208
-208
-32
32
-96
-80
320
544
-192
-176
-32
-560
-208
-368
-32
304
320
-80
0
-208
112
-16
-384
256
288
240
128
240
-256
-128
0
-432
-352
80
-112
176
-208
-352
-384
-224
-144
-32
-160
-608
32
144
-80
224
336
-80
-240
144
272
64
-240
16
464
144
-32
-160
-272
160
-32
144
-112
-272
-176
-416
16
544
80
176
-16
-224
-32
-160
160
688
32
96
48
144
-112
112
-304
-304
64
240
-16
-352
-48
-112
-544
-224
0
-160
352
208
-192
176
288
-96
-128
-352
64
-352
-480
0
-272
-336
80
272
96
160
-96
-160
-128
-32
480
144
96
272
144
-192
-64
32
-304
-464
-240
-48
-32
-416
-448
-16
48
-80
240
352
-304
-288
240
176
256
448
-80
-576
-320
-160
128
-64
-96
400
560
752
256
576
304
-128
-32
-112
-80
-592
-160
-544
-48
160
240
176
192
-224
-400
-32
-48
-512
-272
-400
256
160
288
-400
-384
48
-160
64
-160
-416
80
48
-80
288
192
-432
288
368
-32
-240
160
368
-240
-96
48
176
320
576
64
-112
112
16
-240
-464
-512
-192
256
288
144
64
320
336
208
-288
-368
128
80
-144
-384
144
-192
192
496
176
-128
96
-16
-464
-80
-272
-400
-288
-32
160
-624
-928
-320
-256
-144
192
48
0
112
320
-64
-256
-48
-32
-256
128
0
160
320
272
-16
-80
-112
336
48
-144
-64
16
480
448
-112
-192
-224
-32
64
144
-240
224
416
208
480
0
-304
-64
-272
112
-208
-304
-208
-208
-80
288
-48
0
-128
160
-48
-128
176
240
512
0
80
-144
-416
-272
-256
-288
-224
96
832
320
160
80
-160
224
-32
160
64
128
80
64
448
560
-80
48
304
-48
224
208
240
336
0
64
-176
-288
144
192
304
128
336
48
-128
-48
64
128
320
-208
-208
48
-128
240
496
0
544
304
-16
128
-48
-224
192
-192
96
-144
80
-16
-560
-176
-416
0
-256
208
-240
-256
-128
-32
-256
-560
-240
304
80
-16
-288
-112
48
32
352
176
-208
-112
-368
-288
-48
32
160
48
288
256
-144
-320
48
176
-160
-224
304
400
64
224
-256
-240
-160
-144
-224
-96
-304
-400
-176
-352
-496
-256
-528
112
16
256
32
128
80
256
-128
-16
208
-160
48
128
-352
-560
-288
-208
64
-32
-112
128
64
32
704
48
-352
-48
32
368
480
-128
-288
176
160
0
-176
192
-176
32
-384
-272
304
48
32
432
-48
-464
-224
-112
80
496
448
32
-224
64
-240
320
160
-48
-192
-160
-272
-144
-160
-176
-208
-352
-272
-464
-464
-112
-176
336
-16
128
-208
-176
-64
-64
128
304
-208
-464
-96
128
-48
32
-336
-128
448
384
-112
-112
64
144
-512
-144
272
400
224
-224
256
576
144
-192
-624
-64
-16
400
32
-144
-160
-80
336
208
-416
-240
-144
96
288
288
32
-112
-48
-272
112
-80
-224
-400
-560
-224
-224
-32
-176
-64
-256
-128
-16
-256
16
400
304
-64
-80
-528
-16
400
304
-464
176
368
160
-80
-112
144
160
-96
112
-224
-112
-224
-304
-80
-80
-160
16
32
112
-176
-480
-384
112
-336
-240
-160
-64
64
128
-240
-144
112
544
48
-128
176
-80
-80
64
192
304
0
-192
-192
192
352
64
416
464
352
-304
-64
-16
-176
-144
-208
-240
-96
0
160
-16
240
112
-320
128
-80
224
-160
-16
144
-176
-336
-352
-240
-64
352
-240
-624
-96
-320
-272
-480
-240
16
192
304
-48
208
-240
-112
224
288
352
-16
48
336
464
-64
-64
80
240
144
416
304
64
384
96
16
80
208
320
-208
-64
112
-176
-272
256
192
-240
48
240
32
128
160
192
-144
0
272
384
288
336
-64
-240
-288
432
416
32
-16
-16
-64
128
128
240
-64
-208
0
96
-128
-128
-656
-464
0
128
256
-448
-432
320
-32
-48
16
192
432
640
496
224
192
-368
16
16
-144
-256
-96
112
-32
0
-96
-176
-448
-192
16
16
0
-496
-432
-320
-512
-80
-128
-528
32
128
496
-32
0
96
-144
64
160
-96
-16
-112
-192
-416
96
368
176
128
96
160
-64
64
-64
288
432
560
-16
-48
240
432
192
-112
416
288
-320
-48
-128
352
208
128
272
-16
160
336
48
160
464
-160
-64
0
-144
-448
96
464
32
16
224
-288
-352
-272
-176
-560
-160
432
304
96
-304
-368
-240
-144
352
512
208
16
-224
-416
-224
192
-32
-256
48
112
400
-64
-256
176
-80
-400
-384
-272
-256
-336
288
128
304
-224
-432
-288
32
0
-32
0
208
256
0
-208
-464
32
-176
80
160
48
-64
-304
144
-80
-208
-224
32
400
176
80
-528
-640
160
304
272
-64
-240
32
224
64
-16
-288
240
-112
-80
64
256
-64
-128
-192
-288
-32
112
-192
-224
96
-96
48
48
272
48
64
-112
-80
192
0
96
-320
208
560
192
-400
-480
-272
-352
256
176
-416
-432
-32
64
-160
208
464
-112
-96
-272
224
208
160
144
112
128
448
112
32
112
160
-48
176
-384
-240
320
272
208
528
-16
-48
112
208
96
-176
144
448
-128
160
176
48
-128
-560
-64
-240
-112
-336
-176
-176
-304
0
-128
-16
80
384
544
192
208
192
432
-160
-304
64
464
240
-304
16
432
512
144
-32
112
64
-192
-144
48
-96
224
288
-64
304
416
224
304
240
0
208
160
-48
-704
-80
32
-80
112
-80
-432
-368
-96
320
224
144
-128
-192
