-352
-352
-384
-416
-176
-16
-16
-16
-16
0
0
256
736
336
-208
-192
-272
-400
-464
-528
-560
-576
-592
-608
-272
-16
-16
-16
-16
-16
0
240
720
288
-432
-416
-496
-624
-704
-768
-800
-816
-816
-832
-416
-16
-16
-16
0
0
0
208
688
288
-672
-704
-752
-928
-1008
-1088
-1120
-1152
-1152
-1216
-624
-32
0
-16
0
-16
0
160
576
240
-992
-1152
-1120
-1248
-1328
-1376
-1408
-1408
-1392
-1472
-784
-48
0
0
0
0
-16
128
544
272
-928
-1216
-1120
-1216
-1296
-1328
-1344
-1328
-1312
-1376
-784
-48
-16
0
-16
-16
-16
128
592
448
-224
-304
-240
-288
-288
-304
-288
-272
-288
-336
-272
-32
-16
-16
0
0
-16
128
672
640
656
704
656
624
608
592
576
576
512
464
160
0
-16
-16
0
0
0
112
720
752
1168
1296
1184
1120
1088
1056
1024
992
912
864
400
16
-16
-16
0
0
0
96
688
768
1216
1328
1168
1104
1056
992
960
928
848
800
432
32
0
0
0
0
0
80
672
752
992
976
848
768
688
624
592
560
512
448
272
32
0
0
0
-16
-16
64
608
736
880
832
736
672
608
544
512
464
416
336
224
32
0
0
-16
-16
0
48
592
720
816
768
688
624
544
480
432
368
288
160
80
16
0
0
-16
0
-16
48
544
656
592
560
512
448
384
304
240
160
64
-96
-128
-16
-16
-16
-16
0
-16
32
480
576
336
304
288
224
160
96
16
-80
-176
-336
-336
-48
0
-16
-16
-16
-16
16
432
512
128
80
96
32
-16
-96
-160
-240
-336
-480
-480
-80
-16
0
-16
-16
0
16
384
480
16
-48
-32
-96
-160
-224
-288
-352
-416
-544
-512
-80
0
-16
0
0
0
16
368
480
-16
-112
-96
-176
-256
-320
-368
-416
-448
-528
-496
-96
0
0
-16
-16
0
0
352
480
-16
-160
-176
-272
-352
-416
-464
-496
-496
-560
-512
-96
0
-16
0
0
-16
0
320
480
-64
-272
-304
-416
-512
-576
-608
-656
-640
-688
-640
-160
-16
0
-16
-16
0
0
288
480
-176
-496
-496
-608
-688
-752
-784
-816
-816
-848
-816
-240
-16
0
0
0
-16
0
272
496
-224
-688
-624
-704
-800
-848
-880
-912
-912
-944
-928
-304
-16
0
0
0
0
0
272
512
-192
-752
-656
-720
-816
-864
-896
-912
-912
-928
-944
-352
-16
0
0
0
0
0
240
512
-64
-672
-576
-640
-736
-784
-816
-832
-832
-848
-864
-352
-16
-16
0
-16
0
0
224
528
80
-528
-464
-512
-608
-640
-672
-704
-688
-704
-736
-336
-16
0
-16
-16
-16
0
224
544
224
-288
-272
-304
-384
-432
-480
-496
-496
-544
-576
-304
-16
0
-16
-16
-16
0
224
576
336
-80
-80
-128
-208
-256
-288
-320
-320
-368
-416
-240
-16
-16
-16
-16
0
0
208
592
400
128
112
64
-16
-64
-112
-144
-160
-224
-288
-208
-16
0
-16
0
0
0
208
608
448
256
240
192
112
64
0
-32
-80
-160
-224
-176
-16
-16
-16
0
0
0
192
608
496
368
336
288
224
160
112
64
16
-48
-128
-128
-16
0
0
0
-16
0
176
624
512
448
416
352
288
224
144
80
32
-64
-160
-176
-16
-16
0
0
-16
-16
160
656
528
368
336
288
224
160
96
16
-32
-112
-224
-208
-32
-16
0
0
0
-16
144
640
512
272
256
224
128
80
0
-64
-128
-208
-320
-304
-32
0
0
-16
0
-16
128
640
496
128
112
96
16
-32
-112
-160
-224
-320
-432
-352
-48
0
0
-16
0
-16
112
592
480
80
48
32
-48
-96
-160
-208
-272
-320
-432
-368
-48
-16
-16
-16
0
0
96
592
496
96
32
16
-64
-128
-176
-224
-272
-320
-400
-368
-64
0
-16
-16
-16
0
80
576
528
112
16
-16
-96
-160
-208
-256
-288
-320
-384
-352
-64
-16
-16
0
-16
-16
64
544
512
96
-16
-32
-128
-208
-256
-288
-320
-352
-416
-400
-80
-16
-16
0
0
0
48
528
528
48
-96
-112
-192
-256
-304
-336
-368
-384
-448
-432
-96
-16
-16
-16
0
0
48
496
528
32
-144
-144
-224
-288
-320
-352
-400
-432
-480
-464
-112
0
0
0
-16
0
32
480
528
48
-144
-144
-208
-272
-320
-352
-384
-400
-464
-464
-128
-16
0
-16
-16
-16
32
464
560
112
-80
-80
-160
-224
-272
-304
-336
-352
-400
-416
-128
-16
-16
-16
-16
-16
32
432
560
208
32
16
-64
-144
-208
-240
-256
-272
-320
-352
-112
-16
-16
-16
0
0
16
432
576
288
128
96
0
-80
-128
-160
-208
-224
-288
-320
-112
-16
-16
-16
0
0
16
400
576
304
128
112
16
-64
-128
-176
-224
-256
-304
-368
-144
-16
-16
0
0
0
16
400
592
288
96
80
0
-80
-128
-176
-224
-256
-320
-384
-160
-16
0
0
-16
0
0
368
608
288
48
64
-16
-96
-160
-208
-256
-272
-352
-432
-192
-16
0
0
-16
-16
0
352
624
288
16
48
-16
-96
-160
-208
-256
-288
-368
-448
-208
-16
-16
0
-16
-16
0
336
624
304
16
48
-16
-80
-144
-192
-256
-288
-352
-432
-208
-16
-16
-16
-16
-16
0
304
640
336
48
64
16
-80
-128
-192
-240
-272
-352
-432
-240
-16
-16
-16
-16
-16
0
288
640
352
48
64
0
-80
-144
-192
-240
-288
-368
-448
-256
-16
0
-16
0
0
0
272
640
368
0
16
-48
-128
-192
-256
-288
-320
-400
-480
-288
-16
-16
-16
-16
0
0
256
624
352
-64
-48
-96
-192
-240
-304
-352
-368
-448
-544
-336
-32
-16
0
0
0
0
224
624
368
-112
-112
-144
-240
-288
-336
-368
-400
-448
-544
-352
-32
0
-16
0
0
0
208
624
384
-96
-96
-128
-208
-256
-304
-352
-368
-416
-496
-352
-32
0
0
0
-16
0
192
608
400
-16
-32
-64
-160
-208
-272
-304
-336
-384
-448
-352
-48
0
0
0
0
0
176
592
416
48
0
-16
-96
-144
-192
-240
-272
-320
-400
-336
-48
-16
-16
-16
-16
0
144
560
416
96
48
16
-48
-96
-160
-208
-256
-320
-416
-368
-64
-16
-16
0
-16
-16
128
560
448
112
48
32
-48
-96
-160
-192
-240
-288
-400
-384
-64
-16
-16
0
-16
-16
128
576
464
96
32
0
-80
-144
-192
-240
-272
-320
-432
-400
-80
0
-16
0
0
0
112
608
480
64
-32
-48
-128
-192
-240
-272
-304
-352
-432
-416
-80
0
0
0
0
0
112
624
528
64
-48
-48
-128
-176
-224
-256
-288
-336
-384
-384
-80
0
0
0
0
0
96
608
544
144
16
16
-64
-128
-176
-192
-208
-256
-304
-352
-96
0
0
0
0
0
80
608
576
240
128
96
16
-48
-96
-112
-144
-176
-240
-272
-80
-16
0
-16
-16
0
64
576
576
304
176
144
64
-16
-64
-112
-144
-176
-240
-304
-96
-16
-16
-16
-16
-16
64
528
560
288
160
128
48
-16
-64
-112
-160
-192
-288
-352
-112
-16
0
-16
-16
-16
48
528
592
256
96
96
32
-48
-96
-144
-208
-240
-336
-384
-128
-16
-16
-16
0
-16
32
496
592
240
64
64
0
-80
-128
-176
-208
-240
-336
-416
-144
-16
-16
0
0
-16
32
496
608
240
32
32
-32
-96
-160
-192
-240
-272
-336
-416
-160
-16
0
0
0
0
32
464
624
256
16
32
-32
-96
-160
-192
-240
-256
-320
-384
-160
-16
-16
-16
-16
-16
16
432
608
288
80
64
0
-64
-112
-160
-192
-208
-272
-352
-176
-16
0
-16
-16
-16
16
400
624
320
96
80
16
-48
-112
-144
-192
-224
-288
-352
-176
-16
-16
-16
-16
-16
16
384
624
336
96
96
16
-64
-112
-160
-192
-224
-288
-368
-208
-16
0
0
-16
-16
0
384
640
352
96
96
32
-64
-112
-160
-208
-240
-304
-384
-208
-16
0
0
-16
-16
0
352
640
352
64
80
16
-80
-128
-176
-240
-272
-336
-416
-224
-16
0
0
0
-16
0
336
640
352
48
64
0
-80
-144
-192
-240
-272
-336
-416
-256
-16
-16
-16
0
-16
0
304
656
384
48
48
0
-96
-160
-208
-256
-288
-336
-416
-256
-16
-16
-16
0
0
0
288
640
368
16
16
-32
-128
-176
-240
-272
-304
-368
-448
-304
-32
-16
-16
0
0
0
256
640
384
-16
-16
-64
-160
-224
-272
-304
-336
-384
-480
-320
-32
-16
0
0
0
0
240
624
400
-32
-48
-80
-176
-224
-272
-320
-352
-400
-480
-352
-32
-16
-16
-16
-16
0
224
640
416
-48
-64
-96
-176
-240
-288
-320
-336
-400
-496
-384
-48
0
0
-16
-16
0
208
640
448
-16
-48
-64
-144
-192
-256
-288
-304
-368
-448
-368
-48
0
-16
-16
0
0
192
640
464
64
32
0
-80
-144
-192
-240
-272
-336
-416
-368
-64
0
0
-16
0
0
176
624
464
112
48
16
-48
-112
-160
-208
-256
-304
-384
-352
-64
-16
0
-16
-16
0
144
608
496
144
80
64
-16
-80
-128
-176
-224
-288
-368
-368
-64
0
-16
-16
0
0
144
608
496
160
80
48
-16
-80
-144
-192
-224
-272
-368
-384
-80
0
0
0
-16
-16
112
608
512
160
64
48
-32
-96
-144
-192
-224
-272
-368
-384
-80
0
-16
0
0
-16
112
608
528
160
64
48
-32
-96
-144
-192
-224
-272
-352
-400
-96
-16
-16
0
-16
-16
96
592
544
176
64
32
-32
-96
-144
-192
-224
-272
-336
-384
-112
-16
-16
0
-16
-16
80
576
544
192
64
48
-32
-96
-144
-176
-224
-256
-336
-384
-112
-16
-16
-16
0
0
80
560
560
224
80
64
-16
-80
-128
-160
-192
-240
-304
-384
-128
-16
0
-16
0
0
64
544
576
240
80
64
0
-64
-128
-160
-208
-240
-320
-384
-128
-16
0
0
0
0
48
544
592
256
80
80
0
-64
-128
-176
-208
-240
-320
-400
-160
-16
0
-16
-16
0
48
528
608
256
64
64
0
-64
-128
-160
-208
-240
-320
-400
-160
-16
0
-16
-16
-16
32
512
624
288
80
80
16
-64
-128
-160
-208
-240
-320
-384
-176
-16
-16
-16
-16
-16
32
480
640
304
80
80
16
-48
-112
-144
-192
-208
-272
-368
-192
-16
-16
-16
-16
-16
16
448
624
320
112
112
32
-32
-96
-128
-192
-208
-272
-352
-176
-16
-16
-16
-16
0
16
432
624
336
112
112
48
-32
-80
-128
-176
-208
-272
-352
-208
-16
-16
-16
-16
0
16
400
640
352
112
112
48
-32
-80
-128
-176
-224
-288
-368
-224
-16
-16
0
0
0
0
384
656
368
80
96
32
-48
-112
-160
-208
-240
-304
-400
-240
-16
-16
0
0
0
0
368
656
368
80
80
16
-48
-112
-160
-208
-240
-320
-416
-272
-16
-16
0
0
0
0
352
656
384
64
80
16
-64
-112
-176
-208
-256
-320
-400
-256
-16
0
-16
0
0
0
320
656
384
80
80
32
-48
-112
-160
-208
-224
-288
-384
-272
-32
0
0
-16
-16
0
304
656
400
80
80
16
-48
-112
-160
-208
-224
-288
-368
-272
-32
0
0
-16
-16
0
272
656
432
80
64
16
-64
-112
-176
-208
-224
-288
-384
-288
-32
0
0
-16
-16
0
240
640
432
96
80
32
-48
-112
-160
-208
-224
-288
-368
-320
-48
-16
0
0
-16
0
224
656
448
112
80
48
-32
-96
-144
-192
-240
-304
-384
-320
-48
-16
-16
-16
0
0
208
624
448
96
80
32
-48
-96
-160
-208
-240
-304
-384
-352
-48
0
0
0
0
0
192
640
464
112
64
32
-48
-96
-160
-208
-240
-304
-384
-336
-64
-16
-16
-16
-16
0
176
624
464
128
80
48
-48
-96
-160
-192
-224
-272
-352
-352
-64
-16
-16
-16
0
0
160
608
480
128
64
32
-32
-96
-144
-192
-224
-272
-352
-368
-80
-16
0
0
-16
-16
144
624
496
144
80
48
-32
-80
-128
-176
-208
-256
-336
-352
-80
0
-16
0
0
0
128
608
512
144
64
48
-32
-80
-144
-176
-224
-272
-352
-400
-96
0
0
0
0
-16
112
608
528
160
64
48
-32
-96
-144
-192
-224
-288
-368
-400
-112
0
-16
-16
-16
0
96
608
544
160
64
48
-32
-96
-144
-192
-240
-272
-368
-416
-112
-16
-16
-16
0
0
96
592
560
176
64
48
-32
-96
-144
-192
-224
-272
-352
-416
-128
-16
-16
-16
-16
-16
80
592
576
192
48
48
-16
-80
-128
-176
-224
-272
-336
-400
-128
-16
0
-16
0
0
64
560
576
208
64
64
-16
-80
-128
-176
-208
-240
-320
-400
-160
-16
0
0
0
0
48
544
608
240
64
64
-16
-80
-144
-176
-208
-240
-320
-400
-160
-16
0
0
-16
-16
48
528
624
256
64
64
-16
-80
-144
-176
-208
-240
-320
-384
-176
-16
0
-16
-16
0
32
528
640
272
48
48
-16
-80
-144
-192
-224
-240
-320
-400
-192
-16
0
0
0
0
32
496
640
288
48
48
-16
-80
-144
-176
-224
-240
-320
-384
-192
-16
0
-16
0
0
16
464
640
288
48
64
0
-80
-144
-176
-224
-240
-320
-400
-224
-16
0
0
0
0
16
432
640
304
64
64
0
-64
-128
-176
-224
-240
-304
-384
-208
-16
-16
-16
0
0
16
400
640
336
80
80
16
-64
-112
-160
-208
-224
-288
-384
-224
-16
-16
0
-16
-16
0
384
656
352
80
80
16
-64
-112
-160
-208
-224
-288
-368
-240
-16
-16
-16
-16
0
0
352
656
368
64
80
16
-64
-112
-160
-208
-240
-304
-384
-256
-16
0
-16
-16
-16
0
336
656
368
64
80
16
-64
-128
-176
-224
-256
-320
-400
-288
-32
0
0
-16
0
0
320
656
400
80
80
32
-64
-112
-160
-208
-240
-304
-400
-288
-32
-16
0
0
0
0
288
656
416
80
80
32
-48
-112
-160
-208
-240
-304
-384
-288
-32
-16
0
-16
-16
0
272
672
432
96
80
32
-48
-96
-160
-192
-208
-272
-352
-320
-48
-16
0
0
-16
0
256
656
448
96
80
48
-48
-96
-160
-192
-208
-288
-352
-304
-48
-16
-16
-16
0
0
240
656
464
112
96
48
-48
-96
-144
-192
-208
-272
-352
-320
-48
-16
0
0
-16
0
208
640
448
112
96
48
-32
-96
-144
-192
-224
-272
-352
-320
-48
-16
-16
-16
0
0
192
640
464
128
80
48
-32
-96
-144
-192
-224
-272
-352
-336
-64
0
0
0
-16
0
176
640
480
128
80
48
-32
-96
-144
-192
-224
-272
-368
-368
-80
0
0
-16
-16
-16
160
640
496
144
80
48
-32
-80
-144
-192
-224
-288
-368
-368
-80
-16
0
-16
0
0
144
640
512
144
80
64
-16
-80
-144
-192
-224
-272
-352
-400
-96
-16
0
0
-16
0
128
624
512
160
80
64
-16
-80
-144
-176
-224
-272
-352
-384
-96
-16
0
-16
0
0
112
624
544
160
64
48
-32
-96
-144
-192
-224
-272
-352
-400
-112
-16
-16
-16
0
0
96
608
544
160
48
32
-48
-112
-160
-192
-224
-272
-352
-416
-128
-16
-16
-16
-16
-16
80
592
576
176
48
32
-32
-96
-160
-192
-240
-288
-352
-400
-128
-16
0
-16
-16
0
80
576
576
192
48
48
-48
-96
-160
-192
-240
-272
-352
-432
-160
-16
0
0
-16
-16
64
576
592
192
32
32
-48
-112
-160
-192
-240
-288
-352
-416
-160
-16
0
-16
-16
-16
48
544
608
224
32
48
-32
-96
-144
-192
-240
-272
-352
-416
-176
-16
0
0
0
0
48
528
624
240
32
32
-32
-96
-160
-208
-240
-272
-352
-432
-192
-16
-16
0
0
0
32
512
640
256
48
48
-32
-96
-144
-192
-240
-272
-336
-416
-192
-16
-16
-16
0
0
32
480
624
272
48
64
0
-80
-144
-192
-224
-256
-320
-416
-224
-16
-16
-16
-16
0
16
464
656
288
48
48
-32
-96
-144
-176
-224
-256
-320
-400
-224
-16
-16
-16
-16
-16
16
432
656
320
48
48
-16
-80
-144
-176
-224
-240
-304
-400
-240
-16
-16
0
0
-16
16
416
656
336
48
64
0
-80
-128
-176
-208
-240
-304
-384
-256
-16
0
0
0
0
0
400
672
368
64
64
0
-64
-128
-160
-208
-240
-304
-384
-256
-16
0
0
-16
-16
0
368
656
368
64
80
16
-64
-112
-160
-208
-224
-288
-384
-288
-32
0
-16
-16
-16
0
352
688
400
80
80
32
-48
-112
-160
-208
-224
-288
-384
-272
-32
0
-16
0
-16
0
320
672
416
96
96
32
-48
-112
-160
-208
-240
-288
-384
-288
-32
0
-16
0
-16
0
304
672
432
96
96
48
-32
-96
-144
-192
-224
-288
-384
-320
-32
0
0
0
0
0
272
672
448
112
96
48
-32
-96
-144
-192
-240
-288
-384
-320
-48
-16
0
-16
0
0
256
656
448
112
96
64
-32
-80
-128
-176
-224
-288
-368
-336
-48
-16
-16
-16
0
0
240
672
464
128
96
64
-16
-80
-144
-176
-224
-272
-368
-336
-48
-16
-16
-16
0
0
208
656
480
128
96
64
-32
-80
-144
-176
-208
-272
-352
-352
-64
-16
-16
0
0
0
192
672
512
128
80
48
-32
-96
-160
-192
-208
-272
-352
-368
-80
0
0
-16
-16
0
176
656
512
144
80
48
-32
-96
-144
-192
-224
-256
-336
-352
-80
0
0
0
-16
0
160
640
512
144
80
64
-32
-96
-144
-176
-208
-256
-336
-368
-96
-16
-16
-16
-16
0
144
624
512
160
80
48
-32
-96
-144
-176
-224
-272
-336
-368
-96
-16
-16
0
0
-16
112
608
528
160
80
64
-32
-96
-144
-192
-224
-272
-352
-384
-112
-16
-16
0
0
-16
112
608
544
160
48
32
-48
-112
-160
-208
-240
-288
-368
-416
-128
-16
-16
-16
-16
-16
96
592
544
160
32
16
-48
-112
-176
-208
-256
-304
-384
-432
-128
-16
0
-16
-16
-16
80
576
560
176
32
32
-48
-112
-160
-208
-240
-288
-352
-416
-144
-16
0
-16
-16
0
80
560
576
208
64
48
-16
-96
-144
-176
-208
-240
-320
-384
-144
-16
0
0
0
0
64
560
608
240
80
80
0
-80
-144
-176
-208
-240
-320
-384
-160
-16
-16
0
0
0
48
560
624
256
64
64
0
-80
-128
-176
-208
-240
-320
-400
-192
-16
0
0
0
0
48
544
640
272
64
64
0
-80
-144
-176
-224
-256
-320
-400
-192
-16
0
0
0
-16
32
512
640
272
64
64
0
-64
-128
-176
-208
-240
-304
-400
-208
-16
-16
-16
-16
0
32
480
640
288
64
64
0
-64
-128
-176
-208
-240
-320
-384
-208
-16
-16
0
0
-16
16
464
640
304
64
80
16
-64
-112
-160
-208
-240
-304
-400
-224
-16
-16
0
0
0
16
432
640
320
48
64
0
-64
-112
-160
-208
-224
-304
-400
-256
-16
0
0
-16
-16
16
416
656
336
64
64
16
-64
-112
-160
-208
-240
-320
-400
-256
-16
0
0
-16
-16
0
384
656
352
64
80
16
-64
-112
-160
-208
-224
-288
-384
-272
-32
0
-16
-16
0
0
368
656
368
80
80
16
-48
-112
-160
-208
-240
-288
-384
-272
-32
-16
-16
-16
-16
0
336
672
400
80
80
16
-64
-112
-160
-208
-224
-272
-368
-288
-32
-16
-16
-16
-16
0
320
672
416
80
80
32
-48
-112
-160
-192
-208
-272
-368
-320
-32
-16
-16
-16
-16
0
288
688
448
80
64
16
-64
-112
-160
-208
-224
-288
-384
-320
-48
0
-16
-16
-16
0
272
672
432
80
80
32
-48
-112
-160
-208
-240
-304
-384
-336
-48
-16
0
0
0
0
256
672
448
96
80
32
-48
-112
-160
-208
-256
-304
-384
-336
-48
0
0
0
0
0
224
656
464
112
80
32
-48
-96
-144
-192
-224
-272
-368
-336
-64
0
0
0
-16
0
208
656
480
112
80
32
-48
-96
-160
-192
-208
-256
-352
-352
-64
-16
-16
0
-16
0
192
672
512
128
64
48
-48
-112
-160
-192
-224
-272
-352
-368
-80
0
0
-16
-16
0
176
656
512
128
64
48
-48
-112
-176
-208
-240
-288
-384
-400
-96
-16
-16
-16
0
0
160
640
528
128
64
48
-48
-96
-160
-208
-240
-288
-368
-384
-96
0
0
-16
-16
-16
128
624
528
160
80
64
-32
-96
-144
-192
-224
-272
-352
-384
-112
-16
-16
-16
0
-16
128
640
560
192
80
64
-32
-80
-144
-192
-208
-256
-336
-400
-112
-16
-16
-16
0
0
112
624
576
192
80
64
-16
-80
-144
-176
-224
-256
-336
-400
-128
-16
0
0
-16
0
96
624
592
192
64
64
-16
-80
-144
-192
-224
-272
-352
-416
-144
-16
0
-16
-16
0
80
592
592
208
64
64
-16
-80
-128
-176
-224
-256
-336
-400
-144
-16
0
0
-16
0
64
576
592
224
64
64
-16
-80
-128
-176
-224
-256
-320
-400
-160
-16
0
0
-16
-16
64
560
608
240
64
64
0
-80
-128
-176
-208
-240
-320
-416
-192
-16
-16
0
0
0
48
528
624
256
80
64
0
-80
-128
-176
-224
-256
-336
-416
-208
-16
-16
-16
0
0
48
512
624
272
64
80
0
-80
-128
-176
-224
-256
-336
-432
-208
-16
-16
-16
-16
-16
32
496
640
288
64
80
0
-64
-128
-176
-224
-256
-320
-416
-224
-16
0
-16
-16
-16
32
480
640
304
64
80
16
-64
-128
-176
-224
-256
-320
-400
-224
-16
-16
-16
-16
-16
16
480
688
336
64
80
16
-64
-112
-176
-208
-224
-304
-384
-240
-16
0
0
0
-16
16
432
672
352
80
80
32
-48
-112
-144
-192
-224
-288
-384
-256
-16
0
0
0
0
16
416
688
384
96
96
32
-48
-96
-144
-192
-208
-288
-368
-272
-32
-16
-16
0
0
0
384
688
384
80
96
32
-48
-96
-144
-192
-224
-288
-384
-272
-32
0
-16
0
0
0
352
672
384
80
80
16
-64
-112
-160
-208
-256
-304
-400
-288
-32
0
-16
0
0
0
336
688
400
64
64
16
-64
-112
-176
-208
-240
-304
-400
-320
-32
0
-16
0
-16
0
304
688
432
64
64
16
-64
-128
-176
-208
-240
-304
-400
-320
-48
0
0
0
0
0
288
704
448
80
64
16
-64
-112
-176
-208
-240
-288
-384
-336
-48
0
-16
-16
-16
0
272
688
464
96
80
32
-48
-112
-160
-192
-224
-288
-368
-336
-48
-16
-16
-16
-16
0
240
688
480
112
80
48
-48
-96
-144
-192
-240
-288
-368
-352
-64
-16
0
0
-16
0
224
672
496
128
96
48
-32
-96
-144
-176
-208
-256
-352
-352
-64
-16
0
0
-16
0
208
672
512
144
80
48
-32
-96
-144
-192
-240
-304
-368
-352
-80
-16
0
0
0
0
176
672
512
128
80
48
-48
-96
-160
-192
-240
-288
-368
-384
-80
-16
0
0
-16
0
160
656
528
144
80
48
-48
-112
-160
-192
-240
-288
-368
-384
-96
-16
0
0
0
0
144
656
544
160
64
48
-32
-96
-160
-192
-240
-288
-368
-400
-112
-16
-16
-16
-16
0
128
624
544
176
80
48
-32
-96
-144
-192
-224
-272
-352
-416
-128
-16
0
-16
-16
0
112
624
576
192
64
48
-32
-96
-144
-192
-224
-272
-352
-416
-128
-16
-16
0
0
0
96
624
576
192
64
64
-32
-96
-144
-192
-224
-256
-336
-416
-144
-16
0
-16
0
0
96
624
608
224
64
64
-16
-96
-144
-192
-224
-256
-336
-400
-160
-16
-16
0
0
-16
80
592
608
240
80
64
-16
-80
-144
-192
-224
-256
-336
-400
-160
-16
0
0
0
-16
64
560
608
240
64
64
0
-80
-128
-176
-224
-256
-336
-416
-192
-16
-16
-16
-16
0
48
544
624
256
64
64
-16
-80
-128
-176
-224
-256
-336
-400
-192
-16
-16
0
-16
-16
48
528
624
272
64
80
0
-64
-128
-176
-208
-240
-320
-416
-208
-16
0
0
0
0
32
512
640
304
80
80
16
-64
-128
-176
-208
-240
-320
-400
-208
-16
-16
-16
-16
0
32
480
640
304
80
80
16
-64
-128
-160
-208
-240
-320
-416
-240
-16
-16
0
-16
-16
16
464
656
320
80
80
16
-64
-112
-176
-208
-240
-320
-416
-256
-16
-16
-16
0
-16
16
448
672
336
64
80
16
-64
-128
-176
-208
-224
-304
-400
-256
-16
-16
0
0
-16
16
416
672
352
64
80
16
-64
-128
-176
-208
-240
-320
-416
-288
-32
0
0
0
-16
0
400
688
368
48
64
16
-64
-128
-176
-224
-256
-320
-416
-288
-32
0
-16
-16
-16
0
368
672
368
48
64
16
-64
-112
-176
-224
-272
-336
-432
-320
-32
0
0
-16
0
0
352
688
400
64
64
16
-64
-112
-160
-208
-256
-320
-416
-336
-48
-16
0
0
0
0
336
704
448
80
64
16
-64
-112
-160
-208
-240
-304
-400
-320
-48
-16
-16
-16
0
0
304
720
464
96
80
32
-48
-96
-160
-192
-208
-272
-352
-336
-48
-16
-16
-16
-16
0
288
704
464
96
80
32
-48
-96
-144
-176
-208
-256
-352
-320
-48
-16
-16
-16
-16
0
240
672
480
112
80
32
-48
-96
-144
-192
-224
-272
-352
-336
-64
-16
-16
0
-16
0
224
672
480
112
80
32
-48
-96
-144
-192
-224
-272
-368
-368
-80
0
0
-16
-16
0
208
672
512
128
80
48
-48
-96
-144
-192
-240
-304
-384
-384
-80
-16
0
0
0
0
192
688
528
128
80
48
-48
-112
-160
-192
-240
-288
-368
-384
-96
-16
0
0
0
0
160
656
512
128
64
48
-48
-96
-144
-192
-240
-272
-352
-368
-96
-16
-16
-16
0
0
144
672
560
160
64
48
-32
-96
-144
-176
-224
-272
-352
-384
-112
0
0
0
-16
0
128
640
560
176
64
48
-48
-96
-160
-192
-208
-240
-320
-400
-128
-16
0
-16
-16
-16
112
640
592
192
80
48
-32
-96
-160
-192
-224
-256
-336
-400
-128
-16
0
-16
-16
-16
112
640
608
208
80
64
-32
-96
-160
-192
-224
-256
-336
-416
-144
-16
0
-16
-16
-16
80
608
592
224
64
48
-16
-96
-144
-176
-224
-256
-336
-400
-144
-16
-16
-16
-16
-16
80
576
592
224
64
64
-16
-80
-144
-176
-224
-256
-336
-400
-160
-16
-16
0
0
-16
64
576
624
240
64
64
0
-80
-144
-192
-224
-256
-320
-416
-192
-16
-16
0
0
-16
48
544
624
272
80
80
0
-80
-128
-176
-224
-256
-320
-384
-176
-16
0
0
0
0
48
528
624
272
80
80
16
-64
-112
-176
-208
-240
-304
-384
-192
-16
0
0
0
0
32
496
624
288
96
80
0
-64
-112
-160
-208
-240
-288
-368
-192
-16
-16
-16
-16
0
32
464
624
304
80
96
32
-48
-112
-160
-208
-224
-304
-368
-208
-16
0
-16
-16
0
16
448
640
320
80
96
16
-48
-112
-160
-208
-224
-304
-384
-240
-16
-16
-16
-16
-16
16
432
640
352
80
96
32
-48
-112
-160
-208
-240
-320
-400
-256
-16
-16
-16
-16
0
16
416
672
352
80
96
16
-64
-112
-176
-208
-240
-320
-416
-272
-32
-16
-16
0
0
16
400
656
352
64
80
16
-48
-112
-160
-208
-240
-320
-416
-288
-32
0
0
-16
-16
0
384
688
384
64
80
32
-48
-112
-160
-224
-256
-320
-416
-320
-32
0
0
0
-16
0
368
688
400
80
80
32
-48
-112
-160
-208
-224
-288
-400
-336
-48
0
0
0
-16
0
336
704
432
80
80
32
-48
-96
-160
-208
-240
-304
-384
-320
-48
-16
0
0
-16
0
320
688
432
80
80
32
-48
-96
-160
0
240
688
480
96
64
32
-48
-96
-160
-192
-224
-288
-384
-384
-80
-16
-16
0
-16
0
224
688
512
112
64
48
-32
-96
-144
-176
-224
-272
-368
-368
-80
0
0
0
-16
0
192
688
528
144
80
64
-16
-80
-128
-176
-192
-256
-336
-384
-96
-16
0
0
0
0
176
704
560
160
96
64
-16
-80
-128
-160
-208
-256
-336
-368
-96
-16
-16
0
0
0
160
672
544
176
96
80
-16
-80
-128
-176
-208
-256
-336
-384
-96
-16
0
0
0
-16
144
656
560
176
80
48
-32
-80
-144
-192
-224
-272
-352
-400
-112
-16
0
-16
-16
0
128
640
576
176
48
32
-48
-112
-160
-192
-240
-288
-368
-416
-128
-16
0
0
0
0
112
624
576
176
48
32
-48
-112
-160
-208
-240
-272
-368
-448
-144
-16
0
-16
-16
-16
96
608
592
192
48
32
-48
-112
-160
-208
-256
-288
-368
-432
-160
-16
-16
-16
-16
0
80
576
592
208
64
64
-32
-96
-160
-192
-256
-288
-352
-432
-176
-16
0
-16
-16
-16
64
576
608
240
64
64
-16
-80
-144
-176
-224
-256
-320
-400
-176
-16
-16
-16
0
-16
48
544
608
256
80
80
0
-80
-128
-176
-208
-240
-304
-384
-192
-16
0
0
0
0
48
528
640
288
80
80
0
-80
-128
-176
-208
-224
-304
-400
-208
-16
0
0
0
0
32
528
672
320
96
96
16
-64
-112
-144
-192
-208
-288
-384
-208
-16
-16
0
0
0
32
496
656
336
112
112
48
-48
-96
-144
-192
-224
-304
-384
-224
-16
-16
0
-16
-16
32
480
672
336
96
96
32
-48
-112
-160
-192
-224
-304
-400
-240
-16
0
0
-16
-16
16
448
656
336
80
80
32
-48
-112
-160
-208
-224
-304
-384
-256
-16
0
-16
0
-16
16
432
672
352
80
96
32
-48
-112
-160
-208
-240
-304
-400
-272
-32
0
-16
0
-16
16
400
672
384
80
96
32
-48
-112
-160
-208
-240
-304
-400
-288
-32
0
-16
0
0
0
384
672
384
80
80
16
-64
-128
-176
-224
-272
-336
-416
-304
-32
0
-16
0
-16
0
368
688
400
48
64
16
-64
-128
-192
-240
-256
-320
-416
-336
-32
0
0
-16
0
0
336
688
416
48
48
0
-80
-128
-192
-240
-272
-336
-416
-336
-48
-16
-16
0
0
0
320
720
432
48
48
16
-64
-128
-176
-224
-240
-304
-400
-368
-48
-16
0
0
-16
0
288
704
464
80
64
16
-64
-112
-176
-208
-240
-288
-384
-352
-48
-16
0
-16
0
0
272
704
496
96
64
32
-48
-96
-160
-192
-224
-288
-368
-352
-64
-16
-16
0
-16
0
240
704
496
128
80
48
-48
-96
-144
-192
-208
-256
-352
-352
-64
0
0
0
0
0
224
688
512
144
96
64
-16
-80
-144
-176
-224
-272
-352
-352
-80
-16
-16
0
0
0
208
704
544
160
112
64
-16
-80
-128
-176
-208
-256
-352
-384
-80
-16
-16
-16
0
0
176
672
544
160
96
64
-16
-80
-128
-176
-224
-272
-352
-384
-96
0
0
-16
0
0
160
688
576
176
80
64
-32
-96
-144
-192
-240
-288
-368
-400
-112
-16
0
-16
0
-16
144
672
576
176
64
48
-32
-96
-160
-192
-240
-288
-368
-432
-128
-16
-16
0
0
0
128
656
592
160
48
32
-48
-112
-176
-208
-256
-304
-384
-432
-128
-16
-16
-16
0
0
112
640
592
192
64
64
-32
-96
-144
-192
-224
-272
-352
-432
-144
-16
-16
0
0
0
96
624
608
224
64
48
-16
-80
-144
-176
-224
-272
-352
-400
-144
-16
0
-16
-16
-16
80
608
624
240
64
64
-16
-80
-144
-176
-224
-256
-336
-416
-176
-16
0
0
0
-16
64
576
624
256
80
80
0
-64
-128
-160
-208
-240
-336
-416
-192
-16
0
0
0
0
64
560
640
288
96
80
16
-64
-128
-160
-208
-256
-336
-416
-192
-16
-16
0
0
0
48
544
640
288
96
96
16
-48
-112
-160
-208
-240
-320
-432
-224
-16
-16
-16
-16
-16
48
544
672
320
80
96
16
-64
-112
-160
-224
-256
-336
-432
-224
-16
-16
0
-16
-16
32
512
672
320
64
80
16
-64
-128
-176
-224
-256
-320
-432
-240
-16
-16
-16
-16
0
32
480
672
336
64
80
0
-64
-128
-176
-224
-240
-320
-416
-272
-16
-16
-16
0
0
16
448
688
352
80
80
16
-64
-128
-176
-208
-240
-304
-400
-272
-16
0
0
0
0
16
432
688
368
80
80
16
-80
-128
-176
-208
-240
-304
-400
-288
-32
0
-16
-16
0
16
416
688
384
64
80
16
-80
-128
-176
-224
-256
-320
-400
-288
-32
0
-16
0
-16
0
384
704
416
80
80
16
-80
-128
-176
-224
-256
-304
-400
-320
-32
0
0
-16
-16
0
352
704
416
80
80
32
-48
-112
-176
-208
-224
-288
-400
-336
-48
-16
0
0
-16
0
336
704
448
96
80
32
-48
-96
-160
-208
-240
-304
-400
-336
-48
-16
-16
-16
-16
0
320
704
448
96
96
48
-32
-96
-144
-192
-224
-288
-384
-352
-48
0
0
0
0
0
288
720
480
112
96
48
-32
-96
-144
-192
-240
-288
-384
-352
-64
-16
-16
-16
-16
0
256
704
496
112
96
48
-32
-96
-160
-208
-240
-288
-384
-368
-64
0
0
-16
-16
0
240
720
512
112
80
48
-32
-96
-144
-192
-224
-288
-368
-384
-80
-16
0
0
0
0
208
704
528
128
80
48
-32
-96
-144
-192
-240
-288
-384
-400
-80
0
-16
-16
-16
0
192
688
544
144
64
48
-48
-96
-160
-208
-240
-304
-384
-416
-96
0
0
0
0
0
176
704
560
144
64
48
-32
-96
-160
-208
-256
-288
-368
-400
-112
-16
-16
-16
0
0
160
688
576
176
80
48
-32
-96
-160
-192
-240
-272
-352
-400
-112
-16
0
-16
-16
0
144
688
592
192
80
64
-16
-80
-144
-192
-208
-256
-320
-384
-128
-16
0
0
0
0
112
640
576
208
80
64
0
-64
-128
-160
-208
-240
-320
-384
-128
-16
0
-16
0
0
96
624
592
224
96
80
0
-64
-128
-160
-192
-240
-304
-400
-144
-16
0
0
0
-16
80
608
608
240
80
80
0
-64
-128
-160
-208
-256
-336
-400
-160
-16
0
0
0
-16
80
592
624
240
80
80
0
-80
-128
-176
-224
-272
-336
-416
-176
-16
-16
0
0
-16
64
576
640
256
64
64
-16
-96
-144
-192
-240
-272
-352
-448
-208
-16
0
0
-16
-16
48
560
656
272
48
48
-16
-96
-144
-192
-240
-272
-352
-432
-208
-16
-16
-16
-16
-16
48
544
656
288
48
64
0
-96
-144
-192
-240
-256
-336
-432
-224
-16
0
-16
0
0
32
512
672
320
64
80
0
-80
-144
-176
-208
-240
-304
-400
-224
-16
0
-16
0
0
32
496
672
336
80
96
16
-64
-128
-160
-208
-256
-320
-400
-240
-16
-16
0
-16
-16
16
480
672
352
96
96
16
-48
-112
-160
-192
-224
-304
-400
-256
-16
0
0
-16
0
16
448
688
384
96
96
32
-48
-112
-160
-208
-240
-304
-400
-272
-16
-16
-16
-16
-16
16
416
688
384
96
112
32
-48
-112
-160
-208
-240
-304
-400
-288
-32
0
-16
-16
0
0
400
688
400
80
96
32
-48
-112
-160
-208
-240
-304
-400
-304
-32
-16
-16
0
0
0
368
688
416
80
96
32
-64
-112
-160
-224
-256
-320
-416
-320
-32
0
-16
-16
-16
0
336
672
416
80
80
32
-48
-112
-160
-208
-240
-320
-416
-352
-48
0
-16
0
0
0
320
704
448
96
80
32
-48
-112
-160
-208
-240
-320
-416
-352
-48
0
0
0
-16
0
304
704
464
96
96
48
-48
-112
-176
-208
-224
-288
-400
-368
-64
-16
0
0
0
0
272
704
480
112
96
48
-48
-96
-160
-208
-224
-288
-384
-352
-64
-16
0
0
0
0
256
720
496
112
80
48
-32
-96
-160
-208
-240
-288
-368
-368
-64
0
-16
-16
-16
0
224
688
496
112
80
48
-32
-96
-160
-192
-224
-288
-368
-400
-80
0
0
-16
0
0
208
704
512
128
64
48
-32
-96
-160
-192
-240
-304
-384
-400
-96
0
0
-16
0
0
192
704
544
144
80
48
-32
-96
-160
-192
-240
-288
-384
-416
-112
-16
0
0
0
0
176
688
560
160
80
64
-16
-80
-144
-176
-224
-272
-352
-400
-112
-16
0
-16
-16
-16
144
688
576
176
80
64
-16
-80
-128
-176
-224
-256
-336
-400
-112
-16
-16
-16
-16
-16
128
672
576
192
80
64
-16
-80
-128
-176
-208
-240
-320
-400
-144
-16
-16
-16
-16
0
112
656
608
208
80
64
-16
-80
-128
-176
-208
-256
-336
-400
-144
-16
-16
-16
0
0
96
624
608
208
80
64
-16
-80
-128
-176
-224
-272
-352
-432
-160
-16
0
0
0
-16
80
624
640
224
64
64
-16
-80
-144
-176
-224
-272
-352
-416
-176
-16
-16
-16
-16
0
64
608
640
256
80
80
0
-80
-128
-176
-208
-240
-320
-416
-176
-16
0
0
-16
-16
64
592
672
272
64
64
0
-80
-128
-176
-224
-256
-336
-416
-208
-16
0
0
-16
-16
48
560
672
288
80
80
0
-64
-128
-160
-208
-224
-304
-400
-208
-16
-16
-16
0
0
32
528
656
304
96
96
16
-64
-112
-144
-192
-224
-288
-384
-224
-16
-16
-16
0
0
32
512
672
336
96
96
16
-48
-112
-144
-192
-224
-288
-384
-224
-16
0
0
0
0
32
480
672
352
96
96
32
-48
-112
-144
-192
-224
-304
-400
-256
-16
-16
-16
0
0
16
480
704
368
80
80
16
-64
-128
-176
-208
-240
-320
-432
-288
-32
-16
-16
-16
-16
16
432
688
368
64
80
16
-64
-128
-176
-224
-272
-352
-432
-288
-32
0
-16
-16
-16
16
416
688
368
64
80
16
-64
-128
-176
-224
-256
-320
-432
-320
-32
-16
-16
-16
-16
0
384
688
400
80
80
16
-64
-128
-160
-208
-240
-304
-400
-304
-32
0
-16
0
0
0
352
688
416
96
96
48
-48
-112
-160
-208
-224
-304
-384
-320
-48
-16
-16
0
0
0
336
704
448
96
96
48
-48
-96
-160
-192
-208
-272
-368
-336
-48
0
0
-16
0
0
304
704
464
112
96
48
-48
-96
-160
-192
-224
-288
-384
-336
-48
0
0
-16
0
0
288
704
480
112
96
64
-32
-96
-160
-192
-224
-288
-384
-368
-64
0
0
0
-16
0
272
704
496
112
96
48
-48
-96
-160
-208
-224
-288
-384
-368
-64
0
0
-16
0
0
240
704
512
112
80
48
-32
-112
-160
-208
-240
-288
-384
-384
-80
-16
0
0
-16
0
224
704
512
128
80
64
-32
-96
-160
-208
-224
-288
-384
-400
-96
-16
-16
-16
-16
0
192
704
544
144
64
48
-32
-96
-160
-192
-240
-288
-368
-384
-96
-16
-16
-16
-16
0
176
704
544
144
80
48
-32
-96
-144
-192
-240
-288
-352
-400
-112
-16
-16
-16
-16
-16
160
704
560
160
64
48
-16
-96
-144
-192
-240
-288
-368
-400
-112
-16
-16
-16
-16
-16
144
672
560
176
64
48
-32
-96
-144
-192
-240
-272
-352
-400
-128
-16
0
0
-16
-16
128
656
592
192
80
64
-16
-64
-128
-176
-208
-256
-336
-416
-144
-16
-16
0
0
-16
96
640
608
224
80
80
0
-64
-128
-176
-208
-256
-336
-400
-144
-16
-16
0
0
0
96
624
624
240
80
80
0
-64
-128
-176
-208
-240
-320
-416
-160
-16
-16
0
0
0
80
608
624
256
80
80
0
-64
-128
-176
-224
-256
-320
-400
-176
-16
0
0
0
0
64
592
640
256
80
80
0
-80
-128
-176
-240
-256
-320
-400
-192
-16
-16
-16
-16
-16
48
560
640
256
64
64
-16
-80
-128
-176
-240
-272
-336
-416
-208
-16
0
-16
-16
0
48
544
656
288
48
48
-16
-80
-144
-192
-240
-272
-336
-416
-208
-16
0
-16
-16
-16
32
512
656
304
64
64
-16
-96
-144
-192
-240
-272
-352
-432
-240
-16
-16
0
0
0
32
496
656
304
64
64
0
-80
-128
-176
-224
-256
-336
-416
-240
-16
-16
0
0
0
16
464
672
336
64
80
0
-80
-128
-160
-208
-224
-288
-384
-240
96
32
-48
-112
-160
-192
-208
-288
-400
-304
-32
0
0
-16
0
0
384
704
416
96
96
32
-48
-112
-160
-208
-240
-304
-400
-320
-32
-16
0
0
0
0
352
704
432
96
96
32
-64
-128
-176
-208
-240
-320
-416
-336
-48
-16
-16
-16
-16
0
336
720
448
80
80
32
-64
-112
-176
-224
-256
-320
-416
-368
-48
-16
-16
0
0
0
304
736
480
96
80
32
-48
-112
-176
-208
-240
-304
-400
-368
-64
0
0
0
0
0
288
736
512
112
96
48
-32
-96
-160
-208
-240
-304
-400
-384
-64
0
-16
-16
-16
0
272
752
528
128
112
64
-32
-96
-144
-192
-240
-288
-384
-384
-64
-16
-16
-16
-16
0
240
736
528
144
96
64
-32
-96
-160
-208
-240
-304
-400
-400
-80
-16
-16
0
-16
0
224
736
544
144
96
48
-32
-96
-160
-208
-240
-320
-400
-432
-96
0
0
0
0
0
192
736
576
144
80
48
-48
-112
-176
-224
-256
-304
-400
-432
-112
-16
0
0
0
0
160
704
576
160
80
64
-32
-96
-176
-208
-240
-304
-384
-448
-128
-16
-16
-16
0
-16
144
704
592
176
80
48
-32
-96
-160
-192
-240
-288
-368
-416
-128
-16
-16
-16
-16
-16
128
672
592
208
80
64
-16
-80
-144
-192
-240
-272
-352
-416
-144
-16
-16
0
-16
0
112
672
608
208
80
80
0
-80
-144
-192
-224
-272
-352
-432
-160
-16
0
0
0
-16
96
656
624
224
80
80
-16
-80
-144
-176
-224
-272
-352
-432
-176
-16
0
-16
0
0
80
624
640
240
80
80
0
-64
-128
-192
-240
-272
-352
-448
-192
-16
0
0
-16
-16
64
624
656
256
80
80
0
-80
-128
-176
-240
-272
-352
-432
-192
-16
-16
-16
0
-16
64
592
672
272
64
64
0
-80
-144
-176
-224
-256
-336
-416
-208
-16
-16
0
-16
-16
48
560
672
288
64
80
0
-64
-128
-176
-224
-256
-336
-432
-240
-16
-16
0
0
0
32
544
688
304
64
80
16
-64
-128
-176
-224
-240
-336
-416
-240
-16
-16
0
0
0
32
512
688
320
80
80
16
-64
-112
-176
-208
-240
-320
-432
-256
-16
0
0
-16
0
16
496
704
352
64
80
16
-64
-112
-160
-208
-240
-320
-432
-272
-16
-16
0
0
0
16
464
736
384
64
80
16
-64
-112
-160
-208
-240
-320
-416
-272
-32
0
0
0
-16
16
448
736
400
80
96
32
-48
-112
-160
-208
-240
-304
-416
-304
-32
0
0
-16
-16
0
416
752
432
80
96
32
-48
-112
-160
-208
-240
-304
-400
-304
-32
0
-16
-16
-16
0
384
736
432
96
96
48
-48
-96
-160
-208
-240
-304
-400
-320
-32
-16
-16
0
0
0
352
720
448
96
80
32
-48
-112
-160
-208
-240
-304
-384
-320
-48
-16
0
-16
0
0
320
720
448
96
80
32
-64
-128
-176
-224
-256
-304
-384
-336
-48
-16
-16
0
0
0
304
720
480
96
80
32
-64
-112
-176
-208
-240
-288
-384
-352
-64
0
0
-16
-16
0
272
704
480
112
80
32
-64
-112
-160
-208
-240
-304
-384
-352
-64
-16
-16
-16
-16
0
256
720
512
128
96
48
-48
-96
-160
-192
-224
-272
-384
-384
-80
-16
-16
0
-16
0
240
720
544
144
96
64
-32
-96
-144
-176
-224
-288
-368
-384
-80
-16
-16
-16
0
0
224
736
576
176
112
64
-32
-96
-160
-192
-224
-272
-368
-400
-96
-16
-16
0
0
0
192
720
576
176
96
64
-16
-96
-144
-192
-208
-272
-352
-400
-96
0
-16
-16
-16
0
176
736
608
192
96
64
-16
-80
-144
-192
-240
-288
-384
-416
-112
-16
-16
-16
0
0
144
688
592
192
96
80
-16
-80
-144
-192
-224
-272
-352
-416
-128
-16
0
0
-16
-16
128
688
608
208
96
80
-16
-80
-144
-192
-256
-304
-384
-432
-128
-16
-16
0
-16
-16
112
656
608
224
96
96
0
-80
-144
-192
-240
-288
-368
-416
-144
-16
0
0
-16
-16
96
640
624
240
96
80
0
-80
-144
-192
-224
-272
-352
-432
-176
-16
0
0
-16
-16
80
640
656
256
80
80
-16
-80
-144
-192
-224
-256
-336
-432
-192
-16
0
-16
0
0
64
608
656
256
64
80
0
-80
-144
-192
-240
-272
-352
-448
-208
-16
0
0
0
0
64
608
672
272
64
64
-16
-96
-160
-192
-240
-272
-368
-448
-224
-16
-16
0
0
0
48
560
672
288
48
64
-16
-96
-160
-208
-256
-288
-352
-448
-224
-16
-16
-16
-16
0
32
528
672
304
64
64
0
-80
-144
-192
-240
-256
-336
-432
-256
-16
-16
-16
-16
-16
32
512
704
336
64
64
0
-64
-128
-176
-224
-240
-320
-416
-256
-16
-16
-16
-16
-16
16
496
704
352
64
96
32
-64
-112
-176
-224
-256
-320
-432
-272
-16
0
0
0
-16
16
464
720
368
80
96
32
-48
-112
-160
-208
-256
-336
-416
-288
-32
0
-16
-16
-16
16
416
704
384
80
96
32
-48
-96
-144
-208
-240
-320
-400
-288
-32
-16
-16
-16
0
0
400
720
400
80
80
32
-48
-96
-144
-192
-224
-304
-400
-320
-32
-16
-16
-16
0
0
368
720
432
96
80
32
-48
-96
-144
-192
-224
-304
-400
-320
-32
0
0
0
-16
0
352
736
464
96
96
32
-48
-112
-160
-208
-240
-304
-400
-352
-48
-16
0
0
0
0
320
736
480
96
96
32
-48
-112
-160
-208
-256
-304
-400
-352
-48
-16
0
0
0
0
288
720
496
112
96
48
-48
-112
-160
-208
-240
-304
-400
-368
-64
-16
-16
0
0
0
272
736
512
112
80
32
-64
-112
-160
-208
-240
-304
-400
-384
-64
-16
-16
-16
-16
0
256
736
528
112
80
48
-64
-128
-176
-208
-240
-304
-384
-384
-80
0
0
0
-16
0
224
720
528
128
80
48
-48
-128
-176
-208
-240
-288
-384
-400
-80
0
0
0
-16
0
208
704
544
128
80
32
-48
-112
-176
-208
-256
-304
-384
-400
-96
-16
0
0
0
0
176
688
560
160
80
48
-32
-112
-160
-208
-256
-288
-368
-400
-96
-16
-16
0
0
0
160
688
576
160
80
48
-32
-96
-160
-208
-240
-288
-368
-432
-128
-16
-16
-16
0
0
144
688
592
176
64
48
-32
-112
-176
-208
-240
-288
-368
-432
-128
-16
-16
-16
0
0
128
672
608
192
64
64
-32
-112
-176
-224
-256
-288
-368
-448
-144
-16
-16
-16
-16
-16
112
656
624
208
48
48
-32
-112
-176
-224
-256
-304
-384
-448
-160
-16
-16
-16
0
-16
96
640
640
224
48
48
-48
-112
-176
-224
-272
-320
-400
-464
-176
-16
0
-16
-16
-16
80
624
656
224
32
32
-48
-128
-192
-240
-288
-320
-400
-496
-208
-16
0
-16
-16
0
64
592
656
240
16
16
-64
-128
-192
-240
-288
-336
-400
-480
-224
-16
0
0
-16
-16
48
576
672
256
16
48
-32
-112
-176
-240
-288
-320
-384
-496
-240
-16
0
-16
-16
-16
48
544
656
288
32
48
-16
-96
-144
-192
-256
-288
-368
-448
-240
-16
0
0
0
0
32
512
672
320
64
80
16
-64
-112
-160
-224
-256
-320
-416
-240
-16
0
-16
0
0
32
496
688
352
112
112
32
-32
-96
-144
-192
-224
-304
-400
-272
-16
0
-16
-16
-16
16
480
704
384
128
128
64
-16
-64
-112
-160
-208
-272
-384
-256
-16
-16
0
0
0
16
464
720
400
128
128
64
-32
-80
-144
-176
-208
-272
-384
-288
-32
0
0
0
-16
16
432
736
416
80
96
32
-48
-112
-160
-208
-240
-320
-416
-304
-32
0
0
0
-16
0
400
736
416
48
48
0
-96
-144
-208
-256
-288
-352
-464
-336
-32
0
0
0
0
0
368
720
416
32
32
-16
-96
-160
-208
-256
-304
-368
-464
-368
-48
0
-16
-16
-16
0
352
736
448
48
48
0
-80
-144
-192
-240
-272
-352
-448
-368
-48
0
-16
-16
0
0
320
720
464
48
32
0
-96
-144
-192
-240
-272
-352
-448
-400
-64
0
-16
0
0
0
288
736
480
48
32
-16
-96
-144
-192
-240
-272
-336
-432
-400
-64
-16
-16
-16
-16
0
256
720
496
80
32
16
-80
-144
-192
-224
-256
-304
-416
-400
-80
0
0
0
-16
0
240
704
512
112
64
32
-64
-112
-160
-208
-240
-288
-368
-400
-80
-16
-16
-16
-16
0
224
720
560
160
96
64
-16
-80
-128
-176
-208
-256
-336
-384
-80
-16
-16
-16
0
0
192
704
560
192
112
96
0
-64
-112
-160
-192
-240
-336
-400
-96
-16
-16
0
0
0
176
720
592
192
96
80
0
-64
-128
-160
-208
-256
-336
-384
-112
-16
-16
-16
0
0
160
688
592
208
112
80
0
-80
-128
-160
-208
-256
-336
-400
-128
-16
0
0
-16
-16
144
688
608
224
96
80
0
-64
-128
-176
-208
-272
-352
-416
-144
-16
-16
-16
0
-16
128
672
624
240
96
80
0
-80
-144
-176
-224
-272
-352
-416
-160
-16
-16
-16
-16
-16
96
640
624
240
96
80
-16
-80
-144
-176
-208
-256
-336
-448
-176
-16
0
-16
0
0
96
640
640
256
80
80
-16
-96
-144
-192
-224
-272
-352
-448
-192
-16
-16
-16
0
0
80
608
656
272
96
80
0
-80
-144
-192
-224
-256
-336
-432
-192
-16
0
0
0
-16
64
592
656
288
80
80
16
-64
-128
-176
-208
-256
-336
-432
-224
-16
0
0
0
-16
48
576
672
304
96
96
16
-64
-128
-176
-224
-256
-336
-432
-224
-16
0
0
0
-16
48
544
688
320
80
96
32
-64
-128
-176
-224
-256
-320
-448
-256
-16
-16
0
-16
0
32
544
704
352
80
96
16
-64
-128
-176
-224
-256
-336
-432
-256
-16
0
-16
-16
0
32
512
704
352
80
96
16
-64
-128
-176
-224
-256
-336
-432
-272
-16
-16
-16
-16
0
16
480
704
368
80
80
16
-48
-112
-176
-224
-240
-320
-416
-288
-32
-16
0
-16
0
16
448
704
384
80
80
32
-48
-112
-160
-208
-240
-320
-400
-288
-32
-16
-16
0
-16
16
432
720
400
96
96
48
-32
-96
-160
-192
-224
-288
-384
-304
-32
-16
0
0
-16
0
400
720
432
96
112
64
-16
-80
-144
-176
-208
-272
-368
-304
-32
0
-16
0
-16
0
384
736
464
128
128
64
-16
-64
-128
-176
-208
-272
-368
-304
-48
0
-16
-16
-16
0
352
736
464
144
128
80
0
-48
-112
-160
-192
-256
-352
-320
-48
-16
0
-16
-16
0
320
736
496
160
128
80
0
-48
-112
-160
-192
-256
-352
-320
-48
-16
-16
-16
0
0
304
736
512
144
128
80
0
-64
-112
-160
-192
-256
-352
-352
-64
-16
-16
0
0
0
272
736
512
144
112
64
-16
-64
-128
-176
-224
-288
-368
-368
-64
-16
-16
0
0
0
256
752
544
128
80
64
-32
-96
-144
-192
-240
-288
-384
-384
-80
0
0
0
-16
0
224
736
544
112
64
32
-64
-112
-160
-208
-240
-304
-384
-416
-96
0
0
0
-16
0
208
736
576
128
64
32
-64
-128
-176
-208
-240
-288
-384
-416
-96
-16
0
-16
-16
0
176
720
576
160
64
48
-48
-112
-160
-208
-240
-288
-384
-432
-112
-16
0
0
0
0
144
688
592
160
48
32
-48
-112
-160
-208
-256
-304
-384
-432
-128
-16
-16
0
-16
0
128
688
608
176
64
32
-48
-112
-160
-208
-256
-304
-384
-432
-144
-16
-16
-16
0
0
112
656
608
192
48
48
-32
-112
-160
-208
-256
-288
-368
-448
-160
-16
-16
0
0
0
96
656
656
224
64
48
-32
-112
-160
-208
-256
-288
-384
-448
-176
-16
0
-16
0
0
80
640
656
240
64
80
-16
-96
-160
-192
-240
-272
-352
-464
-192
-16
-16
0
0
0
80
640
688
288
80
80
0
-80
-144
-192
-224
-272
-352
-448
-208
-16
-16
-16
0
-16
64
624
704
320
96
96
0
-80
-144
-176
-224
-256
-336
-432
-208
-16
-16
-16
-16
-16
48
592
720
336
96
96
32
-64
-128
-176
-208
-240
-320
-432
-240
-16
0
-16
-16
-16
48
576
736
368
96
112
32
-64
-144
-176
-224
-240
-320
-432
-240
-16
-16
0
0
-16
-224
-240
-320
-400
-272
-32
0
0
-16
0
16
432
720
416
112
112
48
-32
-96
-160
-208
-240
-304
-400
-304
-32
-16
-16
-16
0
0
416
720
432
128
112
48
-32
-96
-160
-208
-240
-304
-400
-320
-32
-16
-16
0
-16
0
384
736
448
112
112
48
-48
-96
-160
-208
-256
-320
-432
-352
-48
-16
-16
0
-16
0
368
736
448
96
80
32
-48
-112
-176
-224
-272
-336
-432
-352
-48
-16
-16
0
0
0
336
752
480
80
80
32
-64
-128
-192
-240
-272
-352
-448
-384
-48
0
0
-16
-16
0
320
752
480
64
64
32
-64
-128
-192
-240
-272
-352
-432
-400
-64
0
0
0
-16
0
288
752
496
80
64
32
-64
-112
-176
-224
-256
-320
-416
-400
-80
0
0
-16
-16
0
256
736
512
112
80
48
-32
-96
-160
-208
-256
-304
-400
-416
-80
0
0
0
0
0
240
752
544
128
80
48
-32
-80
-144
-192
-224
-288
-384
-400
-96
-16
-16
0
0
0
208
736
560
160
96
64
-16
-80
-144
-176
-208
-272
-352
-384
-96
-16
-16
-16
-16
0
192
736
592
176
96
80
0
-64
-128
-176
-208
-256
-352
-400
-112
-16
-16
-16
0
0
160
720
592
192
96
80
0
-64
-112
-160
-208
-272
-352
-400
-112
-16
-16
-16
-16
-16
144
704
624
224
112
96
0
-48
-112
-160
-208
-256
-352
-416
-144
-16
0
0
-16
-16
128
688
624
240
112
96
0
-64
-112
-160
-208
-272
-352
-416
-144
-16
-16
0
0
0
112
656
640
256
112
96
16
-64
-128
-160
-208
-256
-336
-416
-160
-16
0
0
0
0
96
656
656
256
96
96
0
-64
-128
-176
-208
-256
-336
-432
-176
-16
-16
0
0
0
80
640
672
272
80
80
-16
-80
-144
-176
-224
-272
-352
-432
-192
-16
-16
-16
-16
0
64
624
688
272
64
80
-16
-96
-144
-192
-224
-256
-336
-432
-208
-16
-16
-16
-16
0
48
608
704
288
64
64
-16
-96
-144
-192
-224
-256
-336
-432
-224
-16
0
-16
-16
0
48
576
720
320
64
80
0
-80
-144
-192
-224
-256
-320
-432
-240
-16
0
0
0
0
32
544
720
336
64
80
0
-80
-144
-192
-224
-256
-336
-432
-256
-16
-16
-16
0
-16
32
512
736
368
80
80
0
-80
-144
-192
-240
-272
-336
-448
-272
-16
0
0
0
-16
16
480
736
384
64
80
0
-80
-144
-192
-240
-272
-336
-448
-288
-32
-16
-16
0
-16
16
448
736
400
64
80
0
-96
-144
-208
-240
-272
-336
-432
-304
-32
-16
0
0
0
16
432
752
416
64
80
16
-80
-144
-192
-240
-256
-320
-416
-320
-32
-16
-16
-16
0
0
400
752
448
64
80
32
-64
-128
-192
-224
-256
-320
-416
-336
-48
-16
-16
-16
-16
0
368
768
464
96
80
32
-64
-128
-176
-224
-256
-320
-416
-352
-48
0
0
-16
-16
0
336
752
480
112
96
32
-48
-112
-176
-224
-256
-320
-416
-384
-48
0
0
0
-16
0
320
768
496
128
96
48
-48
-112
-176
-208
-240
-320
-400
-368
-64
0
0
0
0
0
288
752
528
144
112
64
-32
-96
-160
-208
-240
-288
-384
-368
-64
-16
0
0
0
0
256
736
528
144
112
64
-16
-80
-144
-192
-224
-288
-368
-384
-80
-16
-16
-16
0
0
240
736
544
160
112
64
-16
-80
-144
-192
-240
-288
-368
-384
-80
0
0
-16
-16
0
208
704
544
160
96
64
-32
-96
-160
-208
-240
-304
-384
-416
-96
0
0
-16
-16
0
192
720
560
144
80
48
-48
-96
-160
-208
-256
-320
-400
-416
-112
0
-16
-16
0
0
160
720
592
144
64
48
-48
-112
-176
-224
-272
-320
-400
-432
-128
-16
-16
0
0
-16
144
704
608
160
48
32
-48
-112
-160
-208
-256
-304
-384
-448
-144
-16
-16
-16
0
0
128
704
640
176
48
48
-32
-96
-160
-208
-256
-304
-384
-448
-144
-16
-16
0
-16
-16
112
672
640
208
64
64
-32
-96
-144
-192
-240
-288
-368
-448
-160
-16
-16
-16
0
-16
96
656
656
224
64
64
-16
-80
-144
-192
-240
-288
-368
-432
-176
-16
0
-16
-16
-16
80
640
672
272
80
80
-16
-80
-144
-176
-240
-272
-352
-432
-192
-16
0
0
0
-16
64
608
672
288
80
80
0
-64
-128
-160
-208
-256
-336
-432
-208
-16
0
0
0
0
48
592
688
320
96
96
16
-64
-128
-160
-208
-240
-320
-416
-208
-16
0
0
-16
-16
48
560
688
336
112
128
32
-48
-112
-160
-208
-240
-320
-432
-240
-16
0
-16
-16
-16
32
544
704
352
96
112
32
-64
-112
-160
-208
-240
-320
-416
-240
-16
-16
-16
-16
-16
32
512
720
368
80
96
32
-64
-112
-176
-224
-256
-320
-432
-256
-16
-16
-16
0
0
16
496
736
384
80
80
16
-64
-128
-176
-224
-256
-320
-432
-288
-32
-16
-16
0
0
16
464
752
400
80
80
16
-64
-128
-176
-224
-256
-320
-432
-304
-32
0
-16
-16
0
16
432
752
416
80
96
32
-64
-128
-176
-224
-256
-336
-448
-336
-32
-16
0
0
-16
0
416
768
448
80
80
16
-64
-128
-192
-240
-272
-336
-448
-336
-32
0
0
-16
-16
0
368
752
464
64
64
16
-80
-144
-192
-256
-288
-352
-448
-352
-48
-16
-16
0
0
0
352
768
480
64
64
16
-80
-144
-192
-240
-272
-336
-448
-384
-48
-16
-16
-16
-16
0
320
768
512
96
80
32
-64
-128
-192
-240
-272
-336
-432
-384
-64
0
0
0
0
0
288
768
528
128
96
48
-48
-112
-160
-208
-256
-320
-416
-400
-64
-16
0
0
0
0
272
768
544
144
112
64
-32
-96
-160
-208
-240
-304
-384
-400
-80
-16
-16
0
-16
0
240
752
560
160
96
48
-32
-96
-176
-208
-240
-304
-384
-400
-80
-16
-16
0
0
0
224
752
576
144
80
48
-48
-112
-176
-224
-240
-304
-400
-432
-96
-16
-16
0
0
0
192
736
592
160
80
48
-32
-96
-160
-208
-240
-288
-384
-432
-112
-16
-16
-16
-16
-16
176
736
592
160
64
32
-48
-112
-176
-208
-256
-288
-384
-448
-128
-16
0
0
0
-16
144
704
592
192
80
48
-32
-96
-160
-192
-240
-272
-352
-416
-128
-16
-16
-16
-16
-16
128
688
624
224
96
64
-16
-96
-160
-192
-240
-272
-352
-416
-144
-16
-16
0
0
0
112
656
592
224
96
80
0
-80
-144
-192
-240
-288
-368
-448
-176
-16
-16
-16
-16
-16
96
656
640
224
64
48
-32
-96
-160
-208
-272
-320
-416
-480
-192
-16
0
-16
0
0
80
624
640
224
32
32
-48
-112
-176
-224
-288
-320
-416
-512
-208
-16
0
0
0
0
64
624
672
240
32
32
-32
-112
-160
-208
-272
-304
-384
-464
-208
-16
0
0
0
0
64
592
704
304
96
96
16
-64
-112
-160
-208
-240
-304
-384
-208
-16
-16
-16
0
0
48
576
704
368
176
160
80
0
-48
-96
-144
-176
-256
-368
-224
-16
-16
-16
0
0
32
544
720
400
176
160
80
0
-64
-112
-160
-208
-288
-384
-240
-16
-16
-16
-16
-16
32
528
736
384
96
96
32
-64
-112
-176
-208
-240
-336
-448
-288
-16
0
-16
-16
0
16
496
752
368
32
48
-16
-112
-160
-208
-256
-288
-368
-480
-304
-32
0
0
-16
0
16
464
752
368
0
16
-48
-128
-192
-240
-288
-304
-384
-480
-320
-32
0
-16
0
0
16
432
736
384
16
32
-32
-112
-160
-208
-256
-288
-352
-448
-336
-32
0
0
0
0
0
400
752
432
48
64
0
-80
-144
-192
-256
-288
-352
-448
-352
-32
-16
0
0
-16
0
384
752
464
64
64
0
-80
-144
-192
-240
-288
-352
-448
-368
-48
-16
-16
0
-16
0
352
768
480
64
64
16
-80
-144
-208
-256
-288
-352
-464
-384
-48
0
-16
-16
-16
0
320
768
512
80
48
0
-96
-160
-224
-256
-288
-352
-464
-400
-64
-16
-16
-16
0
0
288
768
528
80
48
0
-96
-160
-208
-256
-288
-352
-448
-432
-80
0
0
0
0
0
272
784
560
96
48
16
-80
-144
-208
-256
-288
-352
-448
-448
-80
0
0
-16
0
0
240
768
576
112
48
16
-80
-144
-208
-256
-288
-352
-448
-480
-96
-16
0
-16
-16
0
208
752
592
112
32
32
-64
-144
-208
-240
-288
-336
-432
-464
-112
-16
0
-16
-16
0
192
736
608
160
64
48
-48
-112
-192
-224
-272
-320
-400
-448
-112
-16
-16
-16
-16
0
160
720
608
192
80
64
-16
-80
-144
-192
-240
-288
-368
-432
-128
-16
-16
0
0
-16
144
704
624
240
112
96
0
-64
-128
-176
-224
-272
-336
-416
-144
-16
0
-16
0
-16
128
688
640
272
144
112
32
-32
-112
-160
-208
-256
-336
-432
-160
-16
0
-16
-16
-16
112
688
656
288
144
128
32
-32
-96
-144
-192
-240
-320
-416
-160
-16
-16
-16
0
0
96
672
672
320
160
144
48
-32
-96
-144
-192
-224
-304
-400
-176
-16
0
-16
-16
-16
80
656
688
320
144
128
48
-32
-96
-144
-192
-224
-304
-416
-208
-16
-16
0
0
0
64
624
704
320
112
112
32
-48
-112
-160
-208
-256
-336
-432
-208
-16
-16
0
0
0
48
608
704
320
96
96
16
-64
-128
-176
-240
-272
-352
-464
-240
-16
-16
0
0
0
48
576
720
320
64
80
0
-80
-128
-192
-240
-272
-352
-448
-256
-16
-16
-16
0
0
32
544
704
336
64
64
0
-80
-128
-192
-240
-272
-352
-448
-272
-16
0
0
0
-16
32
512
736
352
48
48
-16
-80
-128
-176
-224
-256
-336
-464
-304
-16
0
0
-16
-16
16
480
736
384
48
64
0
-80
-128
-176
-240
-272
-352
-464
-304
-32
0
0
-16
-16
16
464
736
400
64
80
0
-80
-128
-176
-240
-288
-352
-480
-336
-32
-16
0
-16
-16
16
432
736
416
48
64
0
-96
-144
-192
-256
-288
-368
-464
-352
-32
-16
-16
-16
0
0
400
752
448
48
48
0
-96
-160
-208
-240
-272
-352
-464
-368
-48
0
0
0
0
0
384
784
480
48
48
-16
-96
-160
-208
-240
-272
-352
-464
-400
-48
-16
0
0
0
0
352
800
512
80
64
16
-80
-144
-208
-240
-256
-320
-432
-400
-64
-16
0
-16
-16
0
320
784
528
96
64
32
-64
-128
-192
-240
-272
-336
-448
-416
-64
-16
-16
-16
-16
0
288
768
528
112
80
32
-48
-112
-176
-224
-272
-336
-432
-416
-80
-16
-16
0
-16
0
256
752
544
128
80
48
-48
-112
-176
-224
-272
-320
-416
-416
-80
0
-16
-16
-16
0
240
752
560
144
64
32
-64
-128
-192
-224
-256
-320
-400
-432
-96
0
0
0
-16
0
208
752
592
160
64
48
-48
-128
-192
-224
-256
-304
-384
-416
-112
-16
0
0
0
0
192
752
608
192
96
64
-32
-112
-176
-208
-256
-288
-384
-432
-128
-16
0
0
0
0
160
736
640
224
112
80
-16
-80
-144
-176
-224
-272
-352
-416
-128
-16
-16
-16
-16
-16
144
736
656
256
128
96
0
-80
-144
-176
-224
-272
-352
-432
-144
-16
-16
-16
0
0
128
720
672
240
80
64
-32
-112
-176
-224
-256
-304
-384
-480
-176
-16
-16
-16
-16
-16
112
704
688
208
0
16
-80
-160
-224
-272
-320
-368
-448
-544
-208
-16
0
-16
-16
0
96
672
688
192
-64
-32
-128
-192
-256
-304
-352
-400
-480
-592
-240
-16
-16
0
0
0
80
640
704
208
-80
-48
-128
-208
-272
-320
-368
-416
-496
-576
-256
-16
-16
0
0
0
64
608
720
256
-80
-48
-128
-208
-272
-320
-368
-416
-496
-608
-272
-16
0
0
0
-16
48
592
720
288
-80
-48
-112
-208
-272
-320
-368
-400
-496
-608
-320
-16
-16
-16
-16
-16
32
560
736
320
-96
-48
-112
-208
-272
-320
-368
-416
-496
-608
-336
-16
0
-16
-16
-16
32
512
720
336
-80
-48
-112
-208
-256
-320
-368
-400
-480
-592
-368
-32
-16
-16
-16
-16
16
496
720
368
-64
-48
-96
-192
-240
-288
-336
-368
-432
-544
-368
-32
-16
-16
-16
0
16
464
736
416
-16
-48
0
0
0
-16
0
384
752
512
144
112
64
-16
-80
-128
-176
-208
-288
-400
-400
-48
0
-16
0
-16
0
368
784
544
192
144
96
16
-48
-112
-160
-208
-272
-368
-384
-64
0
-16
-16
0
0
336
768
544
224
176
112
32
-32
-96
-144
-192
-256
-352
-384
-64
-16
-16
-16
0
0
320
768
560
224
176
112
32
-32
-96
-144
-192
-256
-352
-400
-80
-16
-16
-16
0
0
288
768
576
224
160
112
16
-48
-112
-144
-192
-256
-352
-400
-80
-16
-16
-16
-16
0
256
768
592
224
144
112
16
-48
-112
-160
-192
-256
-368
-432
-96
-16
0
0
-16
0
240
768
592
224
128
96
16
-64
-128
-160
-208
-256
-352
-416
-112
0
0
0
-16
0
208
752
608
240
128
112
16
-48
-112
-144
-192
-256
-336
-416
-112
-16
0
0
-16
0
192
768
640
256
128
112
32
-32
-96
-144
-176
-240
-320
-432
-144
-16
0
0
-16
-16
160
752
672
288
144
128
48
-16
-80
-128
-176
-224
-320
-416
-144
-16
-16
0
-16
-16
144
752
688
304
144
144
48
-16
-80
-128
-176
-224
-320
-448
-176
-16
-16
-16
-16
0
112
720
688
304
144
128
48
-16
-80
-128
-192
-224
-320
-432
-176
-16
-16
-16
-16
0
96
688
704
336
160
144
64
-16
-80
-112
-176
-224
-304
-400
-176
-16
0
-16
0
-16
80
656
704
352
176
160
80
0
-64
-112
-160
-192
-272
-400
-208
-16
-16
-16
0
0
64
640
704
368
176
160
80
0
-64
-112
-160
-192
-272
-384
-208
-16
0
0
0
-16
64
624
736
384
160
160
64
-16
-80
-128
-176
-208
-288
-432
-240
-16
-16
0
-16
0
48
592
752
384
128
128
48
-48
-112
-160
-208
-240
-320
-432
-256
-16
-16
0
0
0
32
576
768
384
80
96
16
-80
-144
-192
-240
-288
-368
-464
-288
-16
-16
-16
-16
-16
32
528
752
384
64
64
0
-96
-160
-208
-256
-288
-368
-480
-320
-32
0
0
-16
-16
16
496
752
400
48
48
-16
-112
-176
-224
-272
-304
-368
-480
-336
-32
0
0
0
-16
16
464
768
432
64
64
-16
-96
-160
-224
-256
-288
-368
-464
-352
-32
0
-16
0
0
16
432
768
448
64
80
16
-80
-144
-208
-256
-272
-352
-448
-352
-32
0
0
0
0
0
416
800
480
80
80
16
-80
-128
-192
-240
-272
-336
-448
-368
-48
0
-16
0
-16
0
384
784
512
96
96
48
-48
-112
-160
-208
-240
-304
-416
-368
-48
0
-16
-16
0
0
352
816
544
128
96
64
-32
-96
-160
-208
-240
-304
-400
-384
-64
0
-16
-16
-16
0
320
816
576
160
128
80
-16
-64
-128
-176
-208
-272
-384
-400
-64
-16
-16
0
0
0
304
816
592
192
144
112
16
-48
-112
-160
-208
-272
-368
-384
-80
-16
-16
0
0
0
272
832
624
224
176
128
48
-16
-80
-128
-176
-224
-320
-368
-80
-16
0
0
-16
0
240
816
640
256
192
160
64
0
-64
-112
-144
-208
-304
-368
-96
0
0
0
0
0
208
816
672
288
208
176
80
16
-48
-96
-128
-192
-272
-368
-96
-16
-16
0
0
0
176
784
656
288
208
176
80
0
-64
-112
-160
-208
-304
-400
-112
-16
-16
-16
0
0
160
752
656
272
176
144
48
-32
-96
-144
-192
-256
-336
-400
-128
-16
0
0
0
0
128
736
672
272
144
128
16
-48
-128
-160
-208
-256
-336
-416
-144
-16
0
-16
-16
-16
112
720
672
272
128
112
16
-64
-128
-176
-224
-272
-352
-448
-176
-16
0
0
0
0
96
704
704
288
128
112
16
-64
-128
-176
-224
-256
-352
-448
-176
-16
0
0
-16
-16
80
672
704
272
80
80
-16
-96
-160
-208
-272
-320
-400
-512
-224
-16
-16
0
-16
0
64
640
720
224
-32
-16
-96
-176
-240
-288
-352
-400
-496
-576
-256
-16
0
0
0
0
48
608
720
208
-128
-80
-160
-240
-304
-352
-416
-448
-528
-624
-288
-16
-16
-16
-16
0
48
560
720
224
-144
-112
-176
-256
-304
-352
-400
-432
-512
-592
-304
-16
-16
-16
0
-16
32
528
736
288
-112
-80
-144
-224
-288
-320
-368
-384
-448
-560
-320
-16
0
-16
-16
-16
16
496
720
336
-48
-16
-96
-176
-224
-272
-320
-336
-416
-528
-336
-32
0
-16
-16
-16
16
480
752
384
0
16
-48
-128
-176
-240
-272
-304
-384
-496
-336
-32
0
0
-16
0
16
448
768
432
48
64
16
-80
-144
-192
-240
-272
-352
-464
-336
-32
-16
0
-16
0
16
432
784
480
96
96
32
-48
-112
-160
-208
-240
-320
-432
-352
-32
-16
0
0
0
0
416
800
528
128
128
64
-32
-96
-160
-192
-224
-288
-384
-352
-48
-16
0
0
-16
0
400
816
544
144
128
64
-32
-96
-160
-208
-224
-288
-400
-368
-48
0
0
0
-16
0
368
832
576
160
112
64
-32
-112
-176
-224
-256
-336
-432
-384
-64
-16
-16
-16
0
0
320
800
560
144
96
48
-64
-144
-208
-256
-304
-368
-464
-432
-64
0
-16
-16
0
0
288
800
576
112
64
32
-80
-144
-224
-272
-320
-384
-496
-480
-80
0
0
-16
-16
0
256
784
576
96
16
0
-112
-176
-240
-304
-352
-416
-512
-512
-96
0
0
-16
0
0
240
784
592
96
-16
-32
-128
-192
-256
-304
-336
-400
-496
-528
-112
-16
0
0
-16
0
208
768
608
112
-16
-32
-128
-192
-272
-304
-352
-400
-496
-512
-128
-16
0
0
0
0
176
736
608
128
-32
-48
-144
-208
-288
-336
-384
-432
-512
-544
-144
-16
-16
-16
-16
0
160
736
624
128
-80
-80
-160
-240
-304
-352
-400
-432
-528
-592
-176
-16
-16
0
0
0
128
704
640
128
-128
-112
-192
-256
-320
-368
-416
-448
-544
-608
-192
-16
0
-16
-16
-16
112
688
656
160
-144
-112
-192
-272
-320
-368
-416
-464
-544
-640
-224
-16
0
0
0
-16
96
672
672
208
-112
-96
-160
-240
-304
-352
-384
-432
-512
-608
-240
-16
0
0
0
-16
80
640
672
256
-80
-64
-144
-224
-288
-336
-400
-432
-512
-608
-256
-16
-16
0
0
-16
64
624
688
288
-64
-48
-112
-192
-256
-304
-368
-400
-480
-608
-288
-16
-16
-16
0
0
64
608
704
336
-32
-16
-96
-176
-240
-272
-336
-368
-448
-576
-304
-16
-16
0
0
0
48
592
720
384
0
16
-64
-144
-192
-240
-288
-336
-400
-560
-336
-16
0
-16
-16
0
32
560
736
416
48
48
-16
-112
-160
-208
-256
-288
-368
-512
-320
-16
0
-16
-16
-16
32
544
768
448
96
80
16
-64
-128
-176
-224
-256
-320
-464
-352
-32
0
0
-16
-16
16
496
768
480
144
128
48
-32
-80
-144
-192
-224
-288
-448
-368
-32
-16
-16
-16
-16
16
480
784
512
176
144
80
-16
-80
-128
-160
-208
-272
-416
-368
-32
0
0
0
0
16
464
800
544
192
160
96
0
-64
-112
-160
-192
-272
-416
-384
-48
-16
-16
0
0
0
416
784
544
176
144
80
-16
-80
-128
-176
-224
-288
-400
-384
-48
-16
-16
-16
-16
0
384
768
544
160
112
64
-16
-80
-144
-192
-240
-304
-416
-400
-64
0
0
-16
-16
0
336
752
544
160
96
48
-32
-96
-160
-208
-256
-304
-432
-448
-64
0
-16
-16
0
0
304
768
560
160
80
32
-48
-128
-176
-224
-272
-336
-432
-448
-80
-16
0
0
0
0
288
784
592
160
64
16
-80
-144
-208
-240
-272
-336
-448
-496
-96
0
0
0
0
0
272
800
608
144
32
0
-96
-176
-240
-272
-304
-368
-464
-496
-96
-16
-16
0
0
0
240
784
624
144
-16
-32
-128
-192
-256
-304
-336
-384
-480
-528
-128
-16
0
-16
-16
0
208
784
624
144
-48
-48
-128
-208
-272
-320
-352
-384
-496
-560
-144
-16
-16
-16
-16
0
192
768
656
160
-64
-48
-144
-224
-288
-320
-352
-416
-496
-576
-160
-16
0
0
-16
-16
160
736
656
192
-64
-48
-128
-208
-272
-320
-352
-384
-480
-576
-176
-16
0
0
-16
0
144
720
656
240
-32
-16
-112
-176
-240
-288
-320
-368
-448
-544
-192
-16
0
-16
0
0
112
688
656
288
0
16
-64
-144
-208
-256
-304
-336
-400
-528
-208
-16
0
-16
0
0
96
672
672
336
64
48
-32
-96
-160
-208
-256
-288
-368
-512
-224
-16
-16
-16
-16
-16
96
672
688
368
96
96
32
-64
-128
-176
-208
-256
-336
-480
-240
-16
0
-16
0
-16
80
656
720
416
144
144
64
-16
-80
-144
-192
-224
-304
-480
-272
-16
-16
0
-16
-16
64
640
736
448
160
160
80
0
-64
-112
-160
-192
-272
-432
-272
-16
0
0
0
0
48
608
752
480
176
176
96
16
-48
-96
-160
-192
-272
-432
-288
-16
-16
-16
-16
-16
48
592
768
480
176
176
96
16
-48
-112
-160
-192
-272
-432
-320
-16
0
0
-16
-16
32
544
768
496
176
176
96
16
-64
-112
-160
-208
-288
-432
-320
-32
-16
-16
0
-16
16
512
768
496
176
160
96
16
-64
-112
-176
-224
-288
-448
-352
-32
-16
-16
-16
-16
16
480
768
496
160
144
80
0
-64
-128
-176
-224
-304
-432
-352
-32
0
-16
0
0
16
464
784
528
160
128
80
0
-80
-128
-192
-224
-304
-432
-368
-48
0
0
0
-16
0
432
800
528
144
112
64
-16
-80
-144
-208
-240
-304
-432
-400
-48
-16
0
0
-16
0
384
784
528
144
96
48
-32
-96
-144
-208
-240
-320
-432
-416
-64
-16
-16
0
-16
0
368
784
544
144
96
48
-32
-96
-160
-208
-256
-320
-432
-448
-64
-16
-16
-16
-16
0
320
784
560
144
64
32
-48
-112
-176
-208
-240
-320
-416
-448
-80
0
-16
-16
0
0
304
800
592
176
80
48
-48
-112
-160
-208
-240
-304
-400
-464
-96
0
0
-16
-16
0
272
800
592
192
80
48
-32
-96
-160
-208
-224
-288
-400
-480
-112
-16
-16
-16
0
0
240
784
608
224
96
64
-16
-80
-144
-176
-224
-288
-368
-464
-112
-16
0
0
0
0
208
784
640
256
128
96
0
-64
-112
-160
-208
-256
-368
-480
-128
0
-16
-16
-16
0
192
768
656
272
128
96
16
-64
-112
-160
-208
-256
-352
-464
-144
-16
0
-16
0
0
176
768
672
304
144
112
16
-64
-112
-160
-208
-256
-336
-464
-160
-16
-16
-16
-16
-16
144
752
672
304
128
112
16
-48
-112
-160
-208
-256
-352
-480
-192
-16
-16
0
0
-16
128
736
704
320
128
112
32
-48
-112
-144
-192
-256
-336
-480
-192
-16
-16
-16
0
-16
112
720
720
352
144
128
32
-32
-96
-144
-192
-256
-336
-480
-224
-16
0
0
-16
0
96
688
720
368
144
144
48
-32
-96
-144
-192
-240
-320
-464
-224
-16
0
0
-16
0
80
672
752
400
144
144
64
-32
-112
-160
-208
-240
-320
-464
-240
-16
0
0
-16
0
64
640
752
400
128
128
48
-32
-96
-160
-208
-240
-320
-464
-272
-16
0
0
0
-16
48
624
768
416
112
128
48
-48
-112
-160
-208
-240
-320
-464
-288
-16
-16
-16
0
0
32
592
768
432
112
112
32
-48
-112
-160
-224
-256
-336
-464
-320
-16
-16
-16
-16
-16
32
560
784
448
112
112
48
-48
-112
-160
-224
-256
-336
-464
-320
-32
0
0
0
-16
16
528
784
480
128
128
48
-32
-96
-160
-208
-240
-320
-448
-336
-32
-16
-16
-16
-16
16
496
784
480
128
128
64
-32
-96
-144
-208
-240
-320
-432
-368
-32
-16
0
-16
0
16
464
800
512
144
144
64
-16
-80
-128
-176
-208
-288
-400
-352
-48
-16
0
0
0
0
432
800
528
160
144
96
0
-64
-128
-176
-208
-288
-400
-384
-48
-16
-16
-16
-16
0
400
816
544
176
160
96
0
-64
-128
-160
-192
-272
-384
-384
-48
0
0
0
0
0
352
800
560
176
144
112
16
-64
-128
-176
-208
-288
-384
-400
-64
0
-16
0
0
0
336
816
576
176
128
96
0
-64
-128
-192
-208
-288
-384
-432
-80
0
0
-16
-16
0
304
816
576
176
112
80
0
-64
-128
0
208
768
624
240
128
96
0
-64
-128
-176
-224
-288
-368
-432
-128
-16
0
0
-16
0
192
768
640
240
112
96
0
-64
-128
-176
-224
-272
-368
-464
-144
-16
-16
0
0
0
160
752
656
240
96
80
-16
-80
-144
-192
-240
-288
-384
-464
-160
-16
0
0
0
0
144
736
672
240
80
80
-16
-96
-160
-192
-240
-288
-384
-480
-176
-16
-16
-16
-16
-16
128
736
704
256
64
48
-32
-112
-176
-208
-256
-288
-368
-480
-192
-16
-16
-16
-16
0
96
704
704
272
64
64
-32
-112
-176
-208
-256
-288
-384
-480
-208
-16
0
-16
-16
0
80
688
720
304
64
64
-16
-96
-144
-192
-240
-272
-368
-496
-240
-16
0
0
-16
0
64
640
736
336
96
96
0
-80
-144
-176
-224
-256
-352
-464
-240
-16
0
0
0
0
64
624
736
352
112
112
16
-64
-128
-176
-224
-272
-352
-480
-272
-16
-16
-16
-16
0
48
592
752
368
80
80
0
-80
-144
-192
-256
-288
-368
-496
-288
-16
0
0
0
-16
32
560
752
384
48
64
0
-96
-176
-224
-272
-320
-400
-512
-320
-16
-16
-16
0
0
32
528
752
384
32
48
-16
-112
-176
-240
-288
-320
-400
-528
-352
-32
0
-16
-16
-16
16
496
768
416
48
64
0
-96
-160
-224
-272
-304
-384
-496
-368
-32
0
0
0
0
16
480
800
464
80
96
32
-64
-128
-192
-240
-272
-352
-480
-384
-32
-16
0
0
-16
16
464
816
496
96
96
32
-64
-128
-192
-240
-256
-336
-464
-384
-48
-16
0
0
-16
0
432
832
528
96
80
32
-80
-144
-208
-256
-288
-368
-480
-400
-48
0
0
0
-16
0
400
832
528
64
48
0
-96
-160
-224
-288
-304
-368
-496
-448
-64
-16
-16
-16
-16
0
352
800
528
64
32
0
-112
-176
-240
-288
-336
-400
-512
-464
-80
0
0
0
0
0
320
816
544
64
16
-16
-112
-176
-224
-288
-320
-384
-496
-496
-80
0
-16
0
0
0
288
800
576
96
32
0
-96
-160
-208
-256
-304
-368
-464
-480
-96
0
0
0
0
0
272
832
624
144
48
16
-80
-144
-208
-256
-288
-368
-464
-496
-112
-16
-16
-16
0
0
240
816
640
160
48
32
-64
-144
-208
-256
-288
-352
-448
-528
-128
-16
-16
-16
-16
0
208
816
656
176
48
32
-64
-144
-208
-256
-304
-352
-464
-528
-144
-16
0
-16
-16
-16
192
784
656
192
32
16
-80
-160
-224
-272
-320
-368
-464
-560
-176
-16
0
-16
0
-16
160
768
672
192
0
0
-80
-160
-224
-272
-320
-368
-464
-544
-192
-16
0
0
0
-16
128
768
704
240
0
16
-80
-160
-224
-256
-304
-352
-448
-544
-208
-16
-16
0
-16
0
112
720
704
256
16
32
-48
-128
-192
-240
-288
-336
-416
-544
-224
-16
-16
0
-16
0
96
704
736
304
48
48
-32
-112
-176
-224
-272
-304
-384
-512
-240
-16
0
0
-16
-16
80
672
736
352
64
64
-16
-96
-144
-192
-256
-272
-352
-512
-272
-16
0
-16
0
0
64
656
768
384
80
80
0
-80
-144
-192
-240
-272
-352
-480
-272
-16
0
-16
0
0
48
640
784
416
80
80
16
-80
-144
-192
-240
-272
-352
-480
-288
-16
-16
0
0
0
48
608
784
432
64
80
0
-80
-144
-208
-240
-272
-352
-496
-320
-16
0
0
-16
-16
32
576
800
448
48
64
-16
-96
-176
-224
-288
-320
-400
-528
-352
-32
0
0
0
-16
16
528
800
448
32
32
-32
-128
-192
-256
-304
-352
-416
-544
-384
-32
-16
0
0
-16
16
496
816
480
16
16
-48
-160
-224
-288
-336
-352
-416
-528
-400
-32
-16
-16
-16
0
16
464
800
496
32
16
-48
-144
-208
-256
-304
-336
-400
-512
-416
-48
-16
-16
-16
-16
0
432
816
528
64
48
0
-112
-176
-240
-272
-304
-368
-496
-448
-48
0
-16
-16
0
0
400
816
560
112
64
16
-80
-144
-208
-240
-272
-336
-448
-432
-64
-16
0
0
-16
0
352
800
576
160
96
48
-48
-112
-176
-224
-256
-320
-432
-448
-80
-16
0
0
0
0
336
816
608
176
96
64
-48
-112
-176
-224
-272
-320
-416
-448
-80
-16
-16
0
0
0
304
816
624
192
112
64
-32
-112
-176
-224
-256
-304
-416
-464
-96
0
0
0
0
0
272
800
624
192
96
64
-32
-112
-176
-240
-272
-336
-432
-496
-112
-16
-16
-16
-16
0
240
784
624
208
80
64
-32
-112
-176
-224
-272
-336
-432
-512
-128
0
0
-16
0
0
208
768
624
208
80
64
-32
-96
-176
-224
-272
-352
-432
-528
-144
-16
-16
-16
-16
-16
192
752
640
240
80
80
-16
-96
-160
-208
-256
-320
-416
-512
-160
-16
-16
0
0
0
160
752
672
288
96
96
0
-80
-144
-192
-240
-288
-384
-496
-176
-16
-16
0
0
-16
144
752
688
304
96
96
0
-64
-144
-192
-224
-288
-368
-512
-208
-16
-16
0
-16
0
128
752
720
320
80
80
0
-80
-144
-192
-240
-288
-384
-512
-224
-16
0
0
-16
0
112
720
720
320
64
64
-16
-96
-160
-208
-256
-304
-384
-528
-256
-16
-16
-16
-16
-16
96
688
720
336
64
64
0
-80
-144
-192
-256
-288
-384
-512
-256
-16
0
0
0
-16
64
656
720
368
64
80
16
-80
-128
-192
-240
-288
-368
-496
-272
-16
-16
-16
-16
0
64
640
736
384
64
64
0
-80
-128
-192
-240
-272
-352
-496
-288
-16
0
0
-16
0
48
608
752
416
64
64
0
-96
-144
-208
-256
-288
-368
-496
-304
-16
0
0
0
-16
32
592
768
416
64
64
-16
-96
-160
-208
-272
-304
-384
-528
-352
-32
0
-16
-16
-16
32
544
800
448
48
48
-16
-96
-160
-208
-272
-304
-384
-528
-368
-32
-16
-16
0
-16
16
512
800
480
48
48
-16
-112
-160
-208
-272
-320
-384
-528
-400
-32
-16
-16
-16
-16
16
496
816
496
48
32
-16
-96
-160
-208
-256
-288
-352
-512
-432
-48
-16
-16
-16
-16
0
464
832
528
80
48
0
-96
-160
-208
-256
-288
-352
-480
-432
-48
-16
0
0
-16
0
416
816
544
112
80
16
-80
-144
-192
-240
-272
-336
-464
-448
-64
-16
0
-16
-16
0
384
816
560
144
96
32
-64
-128
-176
-224
-256
-320
-432
-432
-64
0
0
0
0
0
352
816
592
160
96
48
-48
-128
-176
-224
-256
-320
-432
-448
-80
0
0
-16
0
0
320
816
608
176
96
48
-32
-112
-176
-208
-240
-288
-416
-480
-96
0
-16
-16
-16
0
288
832
640
208
112
64
-32
-96
-160
-208
-224
-288
-384
-464
-96
-16
-16
0
-16
0
256
816
656
240
128
80
-16
-96
-160
-192
-224
-272
-384
-480
-112
0
-16
0
0
0
224
800
656
256
112
80
-16
-80
-160
-192
-224
-288
-384
-480
-128
-16
0
0
-16
0
208
800
672
272
112
80
-16
-96
-160
-208
-256
-304
-384
-496
-160
-16
0
-16
0
-16
176
768
672
272
96
96
0
-80
-160
-208
-256
-320
-400
-528
-176
-16
-16
-16
-16
0
144
752
688
288
112
96
0
-80
-144
-192
-240
-304
-384
-512
-192
-16
-16
-16
-16
-16
128
720
688
320
112
112
16
-64
-128
-176
-224
-272
-352
-496
-208
-16
-16
-16
0
0
112
720
720
336
112
112
32
-48
-112
-176
-224
-272
-352
-480
-224
-16
0
0
-16
0
96
704
736
368
112
112
32
-48
-112
-160
-208
-240
-320
-464
-240
-16
0
-16
0
0
80
672
752
384
112
112
32
-48
-128
-176
-224
-272
-352
-496
-272
-16
0
-16
-16
-16
64
640
752
400
96
112
32
-64
-128
-176
-240
-288
-368
-512
-288
-16
0
0
-16
0
48
608
736
400
96
96
16
-64
-144
-192
-256
-304
-384
-528
-320
-16
0
-16
0
-16
48
592
768
400
64
80
0
-80
-144
-208
-256
-304
-384
-512
-336
-32
-16
0
0
0
32
576
800
448
64
64
0
-80
-160
-208
-256
-288
-368
-512
-352
-32
-16
0
0
-16
16
544
800
464
64
64
16
-80
-144
-208
-240
-272
-352
-480
-384
-32
-16
0
0
0
16
512
816
496
80
80
32
-64
-128
-176
-240
-272
-352
-464
-384
-48
-16
0
0
-16
16
464
800
512
96
96
48
-48
-112
-160
-224
-256
-336
-448
-400
-48
0
0
0
0
0
432
816
528
128
96
48
-48
-96
-160
-208
-240
-320
-432
-400
-48
0
-16
-16
0
0
400
832
560
144
112
64
-32
-96
-144
-208
-240
-320
-432
-416
-64
0
-16
-16
0
0
368
848
592
160
112
64
-16
-80
-144
-192
-224
-304
-432
-448
-80
-16
-16
0
0
0
336
848
608
176
112
64
-16
-80
-144
-192
-240
-320
-432
-448
-80
0
0
-16
-16
0
304
832
624
192
112
64
-16
-96
-144
-208
-256
-320
-432
-480
-96
-16
0
-16
-16
0
272
832
640
208
96
64
-16
-96
-144
-192
-240
-288
-400
-464
-112
-16
-16
-16
-16
0
240
816
672
240
128
96
0
-80
-144
-176
-224
-288
-384
-464
-128
-16
-16
-16
-16
0
208
832
688
272
128
112
16
-64
-128
-160
-192
-240
-336
-464
-144
-16
-16
-16
-16
0
176
800
704
304
160
128
48
-32
-96
-128
-176
-224
-320
-432
-144
-16
-16
0
0
0
160
784
704
336
176
144
48
-16
-80
-128
-176
-224
-304
-448
-160
-16
0
0
0
0
128
752
720
352
176
160
64
-16
-80
-128
-160
-208
-304
-432
-176
-16
-16
0
0
-16
112
736
736
368
176
160
64
-16
-96
-128
-176
-224
-320
-432
-192
-16
0
0
0
-16
96
720
752
368
160
144
64
-32
-96
-144
-192
-240
-320
-464
-224
-16
-16
0
0
0
80
688
768
384
144
144
48
-32
-112
-160
-208
-240
-336
-448
-240
-16
-16
-16
0
0
64
672
768
384
128
128
48
-48
-112
-176
-224
-256
-336
-480
-272
-16
-16
-16
0
0
48
640
768
400
128
128
32
-48
-112
-176
-224
-272
-352
-464
-288
-16
0
-16
-16
0
48
592
768
416
112
112
32
-64
-128
-176
-240
-272
-352
-464
-304
-16
0
0
0
-16
32
560
784
432
96
112
32
-64
-112
-176
-240
-256
-352
-464
-336
-32
0
0
0
-16
16
528
800
448
96
112
32
-48
-112
-160
-208
-240
-320
-448
-336
-32
0
0
0
0
16
496
816
480
128
128
64
-48
-96
-160
-208
-240
-320
-448
-368
-32
-16
-16
0
-16
16
464
816
496
128
128
64
-32
-96
-144
-192
-224
-304
-416
-352
-48
-16
-16
-16
-16
0
432
816
528
160
144
80
-16
-80
-128
-192
-224
-304
-416
-368
-48
0
-16
-16
0
0
400
832
544
160
144
96
16
-48
-112
-160
-192
-272
-400
-400
-64
-16
-16
-16
-16
0
368
848
576
192
176
128
32
-32
-96
-128
-160
-256
-352
-384
-64
-16
-16
-16
0
0
352
848
608
240
208
160
64
0
-64
-112
-160
-224
-336
-384
-80
-16
-16
0
-16
0
304
848
624
256
224
176
80
0
-64
-112
-144
-224
-320
-368
-80
-16
-16
-16
-16
0
272
864
640
272
224
160
80
0
-64
-112
-160
-224
-320
-368
-96
-16
0
0
0
0
240
848
672
272
208
160
64
0
-64
-112
-144
-224
-320
-384
-112
0
0
0
-16
0
224
864
688
272
192
160
64
-16
-80
-128
-160
-208
-320
-384
-112
-16
0
0
0
0
192
832
704
288
192
160
64
0
-80
-112
-144
-208
-304
-400
-128
-16
-16
-16
0
-16
160
800
720
304
208
176
80
16
-48
-96
-144
-192
-288
-368
-128
-16
0
0
-16
0
128
784
736
352
224
208
112
32
-32
-80
-144
-176
-272
-368
-144
-16
-16
-16
-16
-16
112
752
752
352
208
192
96
16
-48
-112
-160
-208
-288
-400
-176
-16
-16
0
0
-16
96
720
752
336
176
160
64
-32
-96
-160
-208
-240
-336
-416
-176
-16
0
-16
-16
-16
80
688
752
304
112
112
16
-80
-144
-208
-272
-304
-384
-480
-224
-16
-16
-16
0
-16
64
656
768
288
48
64
-32
-112
-192
-240
-288
-336
-416
-512
48
64
0
-96
-160
-224
-272
-304
-384
-496
-304
-16
0
0
-16
0
16
512
800
400
80
96
16
-80
-144
-208
-256
-288
-368
-464
-320
-32
0
-16
-16
0
16
480
816
432
96
96
32
-64
-128
-192
-224
-256
-336
-432
-320
-32
0
0
-16
-16
16
464
848
496
112
128
48
-48
-112
-176
-208
-240
-304
-416
-336
-32
0
0
-16
-16
0
432
848
512
128
144
64
-32
-96
-160
-208
-224
-304
-432
-368
-48
-16
0
-16
0
0
384
848
544
144
144
80
-16
-80
-144
-208
-240
-320
-432
-368
-48
-16
0
-16
0
0
352
848
560
144
128
80
-32
-96
-144
-208
-256
-336
-432
-400
-64
-16
-16
0
0
0
320
848
576
144
112
64
-32
-96
-160
-208
-256
-320
-432
-400
-80
-16
-16
0
0
0
288
848
592
160
128
64
-32
-112
-160
-208
-256
-320
-416
-416
-80
-16
-16
0
-16
0
256
832
608
176
128
96
-16
-96
-160
-208
-240
-304
-400
-432
-96
-16
-16
-16
-16
0
224
816
624
192
144
96
-16
-80
-144
-192
-224
-288
-384
-432
-112
0
0
-16
-16
0
208
832
672
208
128
96
0
-80
-160
-208
-240
-304
-400
-464
-128
-16
0
0
-16
0
176
816
672
192
96
80
-32
-96
-176
-224
-240
-304
-400
-464
-144
-16
0
0
0
0
160
800
704
192
64
48
-48
-112
-192
-240
-272
-320
-416
-480
-160
-16
-16
0
0
-16
128
768
720
208
64
64
-32
-96
-176
-224
-272
-304
-416
-464
-176
-16
-16
-16
0
0
96
752
736
256
112
96
16
-48
-112
-160
-208
-256
-336
-416
-160
-16
-16
-16
0
-16
96
736
768
336
176
176
80
16
-48
-96
-144
-176
-272
-352
-160
-16
-16
-16
-16
-16
64
704
800
400
240
240
144
64
0
-48
-96
-128
-224
-320
-160
-16
0
0
0
0
64
688
848
448
256
240
144
64
0
-48
-96
-144
-240
-320
-176
-16
-16
-16
0
-16
48
640
832
432
224
224
128
32
-32
-96
-144
-176
-272
-384
-224
-16
0
-16
-16
0
32
592
816
400
160
176
80
-16
-80
-144
-208
-240
-336
-432
-240
-16
-16
0
-16
-16
16
544
816
384
112
128
48
-48
-112
-176
-240
-256
-352
-464
-272
-16
-16
0
-16
-16
16
496
816
400
96
112
32
-64
-128
-176
-240
-256
-352
-432
-272
-32
0
-16
-16
-16
16
464
832
432
112
128
48
-48
-112
-176
-224
-240
-336
-432
-288
-32
0
0
0
-16
0
448
848
464
128
144
64
-16
-80
-144
-192
-224
-304
-416
-304
-32
-16
0
0
-16
0
416
864
512
144
160
80
0
-64
-128
-192
-224
-320
-416
-320
-32
0
0
0
0
0
368
848
528
160
160
96
0
-64
-128
-176
-224
-288
-400
-336
-48
-16
-16
-16
0
0
336
848
544
160
160
96
0
-64
-128
-176
-224
-288
-400
-336
-48
-16
-16
-16
-16
0
304
848
576
176
160
96
0
-80
-144
-192
-224
-288
-384
-336
-64
-16
-16
0
0
0
272
832
576
176
160
96
0
-80
-144
-192
-224
-288
-384
-368
-64
0
0
-16
0
0
240
848
624
176
144
96
0
-64
-144
-192
-224
-272
-384
-368
-80
0
0
0
-16
0
208
816
624
192
144
112
0
-64
-144
-192
-224
-288
-400
-416
-96
0
-16
0
0
0
176
832
672
192
128
96
0
-80
-144
-192
-240
-288
-400
-416
-112
-16
0
-16
-16
-16
160
800
688
208
128
96
-16
-80
-160
-208
-256
-304
-400
-432
-112
-16
-16
-16
-16
0
128
784
688
192
112
96
-16
-96
-160
-208
-256
-304
-416
-448
-144
-16
-16
-16
-16
-16
112
752
720
208
96
80
-32
-112
-176
-224
-272
-304
-400
-448
-160
-16
0
0
0
0
96
720
720
224
96
80
-16
-96
-160
-208
-272
-304
-400
-464
-176
-16
0
-16
-16
-16
80
688
736
240
96
80
-16
-96
-160
-208
-256
-304
-400
-464
-176
-16
0
0
0
0
64
656
768
272
96
80
0
-96
-160
-208
-256
-288
-384
-464
-192
-16
-16
-16
0
0
48
624
768
288
96
80
0
-96
-160
-208
-272
-304
-384
-464
-224
-16
0
-16
0
-16
32
592
784
304
80
96
0
-96
-160
-208
-256
-288
-384
-464
-240
-16
0
0
0
-16
32
560
800
336
80
80
0
-96
-160
-208
-272
-304
-384
-480
-256
-16
0
-16
-16
-16
16
528
816
352
64
96
0
-80
-160
-208
-272
-288
-384
-464
-272
-16
0
0
0
0
16
480
816
384
80
96
0
-80
-144
-208
-256
-288
-368
-464
-288
-32
-16
0
0
0
0
448
832
416
64
80
16
-80
-144
-208
-256
-288
-368
-464
-320
-32
-16
0
0
0
0
416
848
448
80
112
32
-64
-144
-192
-256
-272
-368
-464
-320
-32
-16
0
0
-16
0
384
848
480
96
112
32
-64
-128
-192
-240
-272
-352
-448
-352
-48
-16
-16
0
-16
0
352
832
496
96
112
48
-48
-112
-176
-240
-272
-352
-448
-352
-48
-16
-16
0
0
0
304
832
512
112
112
48
-48
-112
-176
-240
-288
-352
-448
-368
-48
-16
-16
0
0
0
272
816
544
112
96
48
-48
-112
-192
-240
-288
-352
-448
-400
-64
0
-16
-16
0
0
240
816
576
128
112
64
-48
-112
-192
-240
-272
-352
-448
-400
-80
0
0
-16
-16
0
224
816
592
128
96
48
-48
-112
-192
-240
-272
-336
-432
-432
-96
0
0
-16
0
0
192
816
624
144
96
64
-48
-112
-192
-240
-272
-336
-432
-432
-96
-16
-16
-16
-16
-16
160
800
656
144
80
48
-48
-128
-192
-240
-288
-352
-448
-464
-112
-16
-16
0
-16
-16
144
768
656
160
80
48
-48
-128
-192
-240
-288
-336
-448
-480
-128
-16
-16
0
0
-16
112
752
688
160
80
64
-48
-128
-192
-240
-288
-352
-448
-464
-144
-16
-16
0
-16
-16
96
720
704
192
80
64
-48
-112
-176
-240
-288
-320
-416
-480
-176
-16
-16
-16
0
0
80
704
720
224
80
64
-32
-112
-176
-224
-272
-304
-400
-464
-176
-16
0
-16
-16
0
64
688
768
256
80
80
-32
-112
-176
-224
-272
-304
-400
-480
-192
-16
0
0
0
0
48
640
752
272
80
80
-16
-96
-160
-208
-256
-288
-384
-480
-224
-16
0
0
0
0
48
624
800
304
80
96
0
-96
-160
-208
-240
-288
-368
-464
-240
-16
0
0
0
-16
32
592
800
336
80
96
0
-96
-160
-208
-256
-272
-368
-464
-256
-16
-16
-16
-16
-16
32
560
832
368
80
96
0
-96
-160
-208
-256
-272
-368
-464
-272
-16
-16
-16
-16
-16
16
528
848
400
80
96
16
-96
-160
-224
-256
-288
-384
-464
-288
-32
-16
-16
-16
-16
16
480
832
416
80
96
16
-80
-160
-224
-272
-304
-384
-496
-320
-32
0
0
-16
0
0
448
848
432
64
80
16
-80
-160
-224
-272
-288
-368
-480
-336
-32
0
0
0
-16
0
416
848
464
64
80
16
-80
-160
-224
-272
-304
-384
-480
-368
-48
-16
0
0
0
0
384
848
480
64
80
16
-80
-144
-224
-272
-288
-368
-464
-368
-48
-16
-16
0
0
0
336
864
528
80
80
16
-80
-160
-224
-272
-288
-368
-464
-384
-64
-16
-16
0
0
0
304
848
544
80
80
32
-80
-144
-224
-272
-304
-368
-464
-416
-64
-16
0
0
-16
0
256
832
560
96
80
32
-64
-128
-208
-256
-288
-352
-448
-416
-80
0
-16
-16
-16
0
240
832
592
112
80
32
-64
-128
-192
-240
-288
-352
-448
-432
-96
-16
0
-16
-16
0
208
816
608
128
80
48
-48
-112
-192
-240
-272
-336
-432
-432
-96
-16
0
-16
-16
-16
176
816
656
160
96
48
-48
-112
-192
-224
-272
-320
-432
-448
-112
-16
-16
-16
0
0
160
800
672
176
96
64
-32
-112
-176
-240
-272
-320
-416
-464
-128
-16
-16
-16
-16
-16
128
784
704
192
80
64
-32
-112
-176
-224
-272
-320
-416
-464
-144
-16
-16
-16
0
0
112
752
720
208
80
48
-32
-112
-176
-240
-288
-336
-416
-480
-176
-16
-16
-16
0
0
96
720
736
224
64
48
-48
-128
-192
-240
-304
-336
-432
-496
-192
-16
-16
-16
0
-16
80
688
752
240
48
32
-64
-144
-208
-256
-320
-352
-448
-512
-208
-16
0
0
0
0
64
672
768
240
16
32
-64
-160
-224
-272
-336
-368
-464
-544
-240
-16
-16
0
-16
-16
48
640
800
256
0
16
-80
-160
-240
-288
-352
-384
-480
-560
-256
-16
0
-16
-16
-16
32
608
800
288
0
16
-80
-176
-240
-288
-352
-384
-464
-560
-288
-16
0
0
0
0
32
560
816
320
0
16
-64
-160
-224
-288
-336
-368
-448
-544
-304
-16
0
0
-16
-16
16
528
832
368
0
32
-48
-144
-208
-256
-320
-352
-432
-544
-336
-32
-16
-16
0
-16
16
496
848
416
16
48
-32
-128
-192
-240
-288
-320
-400
-528
-352
-32
-16
-16
-16
0
0
464
848
464
48
64
0
-112
-176
-224
-272
-304
-384
-496
-368
-32
-16
-16
-16
0
0
432
864
512
80
80
16
-96
-160
-224
-272
-304
-384
-480
-384
-48
0
0
0
0
0
400
864
544
96
96
16
-80
-144
-208
-256
-288
-352
-464
-384
-48
0
0
0
-16
0
352
864
560
112
96
32
-80
-144
-208
-256
-304
-368
-464
-416
-64
-16
-16
-16
-16
0
320
864
592
112
80
16
-80
-160
-224
-272
-304
-384
-480
-448
-80
-16
-16
-16
-16
0
288
848
608
112
80
32
-80
-160
-224
-272
-304
-384
-480
-464
-80
0
-16
0
0
0
256
848
624
128
80
48
-64
-144
-224
-272
-304
-368
-480
-480
-96
0
0
0
0
0
224
832
640
160
80
48
-48
-128
-192
-256
-288
-352
-448
-464
-112
0
0
0
0
0
192
816
656
176
80
48
-48
-128
-192
-240
-272
-336
-432
-448
-112
-16
0
-16
-16
-16
160
800
656
192
80
64
-32
-112
-176
-224
-256
-320
-416
-464
-128
-16
0
-16
0
0
144
768
672
208
80
64
-32
-112
-176
-224
-272
-320
-400
-448
-144
-16
-16
0
-16
0
112
736
688
224
80
64
-16
-96
-176
-224
-272
-320
-400
-480
-176
-16
-16
0
0
-16
96
720
720
240
80
80
-16
-96
-176
-224
-272
-320
-416
-480
-192
-16
0
0
-16
-16
80
704
752
272
64
64
-16
-96
-176
-224
-288
-320
-416
-512
-208
-16
-16
-16
0
0
64
672
768
304
64
64
-32
-112
-176
-240
-272
-320
-416
-528
-240
-16
-16
-16
0
0
48
656
800
320
48
64
-16
-112
-176
-240
-288
-320
-416
-512
-256
-16
-16
-16
0
0
48
624
784
336
64
64
-16
-96
-160
-224
-288
-304
-400
-512
-288
-16
-16
0
0
0
32
592
816
368
64
80
16
-80
-144
-208
-256
-288
-400
-496
-288
-16
-16
-16
-16
-16
16
544
832
400
64
80
16
-80
-144
-192
-256
-288
-368
-496
-320
-32
0
0
0
0
16
512
848
448
64
96
32
-80
-144
-208
-256
-272
-368
-496
-352
-32
0
0
0
0
16
480
864
480
64
80
16
-80
-144
-208
-256
-288
-368
-480
-352
-32
0
-16
0
-16
0
432
864
496
80
80
0
-80
-144
-208
-272
-304
-368
-496
-384
-48
0
0
-16
0
0
400
880
544
80
64
0
-96
-160
-208
-256
-288
-352
-464
-384
-48
-16
-16
-16
-16
0
368
864
560
96
80
16
-80
-160
-208
-256
-288
-352
-464
-400
-64
-16
-16
0
0
0
336
864
592
112
96
48
-80
-144
-208
-256
-288
-352
-448
-432
-64
0
0
-16
-16
0
304
864
624
128
96
32
-64
-144
-208
-256
-304
-368
-464
-448
-80
-16
-16
-16
0
0
256
848
624
144
80
48
-64
-128
-192
-256
-304
-368
-464
-480
-96
0
-16
-16
-16
0
224
832
656
160
80
48
-64
-128
-192
-240
-288
-336
-448
-464
-112
-16
0
-16
0
0
192
816
672
192
80
64
-48
-128
-192
-240
-288
-336
-432
-480
-128
-16
0
0
0
-16
176
816
688
208
96
80
-32
-112
-192
-224
-272
-320
-416
-480
-144
-16
-16
0
-176
-224
-256
-304
-400
-480
-192
-16
-16
0
0
0
96
720
768
304
96
80
-16
-96
-176
-224
-272
-320
-416
-496
-208
-16
-16
0
0
0
80
704
784
320
80
80
0
-96
-176
-240
-288
-320
-416
-512
-240
-16
0
0
0
0
64
672
784
336
64
80
-16
-96
-176
-224
-288
-320
-416
-512
-256
-16
-16
0
-16
-16
48
624
800
352
64
80
0
-96
-176
-224
-288
-320
-416
-528
-288
-16
0
0
-16
-16
32
608
816
384
64
80
-16
-96
-176
-240
-288
-320
-416
-528
-304
-16
-16
-16
-16
-16
32
576
848
416
48
64
0
-96
-176
-240
-304
-336
-432
-528
-336
-32
-16
0
0
0
16
528
848
448
48
64
0
-96
-160
-240
-288
-320
-416
-544
-368
-32
-16
-16
0
0
16
496
864
480
48
64
0
-96
-160
-224
-272
-304
-400
-512
-368
-32
-16
0
0
0
0
448
864
512
64
64
0
-96
-160
-208
-272
-304
-384
-496
-400
-48
0
0
-16
0
0
416
864
528
80
80
16
-80
-144
-208
-256
-272
-352
-464
-400
-48
-16
0
-16
-16
0
384
880
560
112
80
32
-80
-144
-192
-256
-288
-352
-464
-416
-64
0
0
0
0
0
336
848
576
128
80
32
-64
-128
-192
-240
-272
-336
-448
-432
-64
-16
-16
0
0
0
304
848
592
144
80
32
-64
-128
-192
-240
-288
-336
-448
-448
-80
0
-16
0
0
0
272
832
624
160
96
48
-48
-128
-192
-240
-288
-352
-448
-464
-96
0
0
-16
0
0
240
832
640
176
96
48
-48
-112
-176
-224
-272
-336
-432
-448
-112
0
0
-16
-16
0
208
832
672
192
96
64
-48
-112
-176
-224
-272
-320
-432
-480
-128
-16
0
-16
-16
0
176
816
688
208
80
64
-32
-112
-176
-224
-272
-320
-416
-496
-144
-16
0
-16
-16
-16
160
816
720
224
80
64
-32
-112
-176
-224
-272
-320
-416
-480
-160
-16
-16
-16
-16
0
128
784
736
256
80
80
-16
-112
-176
-224
-272
-320
-416
-496
-176
-16
-16
-16
-16
-16
112
752
736
272
96
80
-16
-96
-176
-224
-272
-320
-400
-496
-192
-16
0
0
0
0
96
720
768
304
80
80
-16
-96
-176
-224
-272
-320
-416
-512
-208
-16
-16
0
0
0
80
704
784
320
64
80
-16
-96
-176
-224
-272
-320
-416
-528
-240
-16
0
0
0
-16
64
688
816
352
64
64
-16
-112
-176
-224
-288
-320
-416
-528
-256
-16
-16
-16
0
0
48
640
816
384
64
80
-16
-112
-176
-240
-288
-320
-400
-528
-288
-16
0
0
-16
-16
32
608
832
400
64
80
-16
-96
-160
-224
-272
-320
-400
-512
-304
-16
-16
0
0
-16
32
560
832
432
80
96
16
-96
-160
-224
-272
-304
-384
-512
-320
-32
-16
-16
-16
-16
16
528
832
464
80
96
32
-80
-144
-208
-256
-288
-368
-496
-352
-32
0
0
-16
-16
16
512
864
496
96
96
32
-80
-144
-208
-256
-288
-368
-480
-368
-32
-16
-16
-16
-16
0
464
880
528
96
96
32
-80
-144
-208
-256
-272
-352
-480
-384
-48
0
0
0
0
0
432
880
560
96
96
48
-64
-144
-208
-256
-288
-384
-480
-400
-48
0
-16
-16
-16
0
400
896
576
112
96
48
-64
-144
-208
-256
-288
-368
-480
-416
-64
-16
-16
0
-16
0
352
864
592
128
96
48
-48
-128
-192
-256
-288
-368
-480
-448
-64
-16
-16
0
0
0
320
864
608
144
96
64
-48
-128
-192
-240
-272
-336
-448
-448
-80
0
0
0
0
0
272
864
640
160
96
64
-48
-112
-192
-240
-288
-352
-448
-480
-96
0
0
0
-16
0
240
864
672
176
96
64
-48
-112
-192
-240
-272
-352
-448
-480
-112
0
0
0
0
0
208
848
688
192
80
48
-48
-128
-192
-240
-288
-336
-448
-496
-128
0
0
-16
-16
0
192
848
704
208
64
48
-64
-128
-208
-256
-304
-352
-448
-528
-144
-16
-16
0
-16
-16
160
816
720
224
64
48
-48
-128
-208
-256
-304
-352
-448
-528
-160
-16
0
0
-16
-16
128
800
752
240
48
48
-48
-128
-192
-256
-304
-352
-448
-544
-176
-16
-16
-16
0
-16
112
768
752
272
64
64
-32
-112
-176
-240
-288
-336
-416
-512
-192
-16
0
-16
0
0
96
736
768
320
64
64
-16
-112
-176
-224
-288
-320
-416
-512
-208
-16
-16
-16
0
0
80
704
784
336
64
80
-16
-112
-176
-224
-272
-304
-400
-528
-256
-16
0
0
-16
-16
64
672
800
368
80
80
0
-96
-160
-208
-272
-304
-400
-512
-272
-16
0
0
-16
0
48
624
816
384
80
80
0
-96
-160
-208
-272
-320
-400
-512
-288
-16
-16
-16
-16
0
32
592
816
416
80
80
0
-96
-160
-208
-256
-304
-384
-512
-304
-16
-16
-16
-16
-16
32
544
816
432
80
80
0
-96
-160
-208
-288
-320
-416
-528
-336
-16
-16
-16
0
0
16
528
832
464
80
96
16
-96
-160
-208
-272
-304
-384
-528
-368
-32
0
0
0
-16
16
496
864
512
96
96
32
-80
-144
-208
-256
-288
-384
-496
-368
-32
-16
0
0
-16
0
464
880
544
112
96
32
-80
-144
-192
-256
-272
-352
-480
-400
-48
-16
-16
0
0
0
432
880
576
128
112
48
-64
-128
-192
-240
-256
-352
-464
-400
-48
0
0
-16
-16
0
384
880
592
144
112
64
-64
-128
-192
-240
-288
-352
-464
-432
-64
-16
0
-16
0
0
352
864
608
160
112
64
-48
-128
-192
-240
-272
-336
-448
-448
-80
0
0
-16
-16
0
320
864
624
160
112
64
-48
-112
-192
-240
-288
-352
-448
-448
-80
-16
0
-16
-16
0
272
848
640
176
96
64
-32
-112
-192
-240
-272
-336
-448
-480
-96
0
-16
0
0
0
240
848
656
192
96
80
-32
-112
-192
-240
-288
-352
-448
-480
-112
0
-16
0
0
0
208
832
672
192
96
64
-32
-112
-192
-240
-272
-336
-448
-496
-128
-16
-16
-16
0
0
176
800
672
208
96
80
-32
-112
-176
-240
-272
-336
-432
-512
-144
-16
-16
-16
0
-16
160
800
720
240
80
80
-16
-96
-160
-224
-256
-320
-416
-496
-160
-16
-16
0
-16
0
128
784
736
272
80
80
-16
-96
-160
-224
-272
-320
-416
-528
-176
-16
0
0
0
0
112
768
752
288
80
96
0
-96
-160
-224
-272
-336
-432
-528
-208
-16
0
0
-16
-16
96
752
784
320
80
96
0
-96
-160
-224
-272
-320
-416
-528
-224
-16
0
0
0
-16
80
720
784
336
80
80
0
-96
-160
-224
-288
-320
-416
-544
-256
-16
0
-16
-16
-16
64
688
800
352
64
80
0
-96
-160
-208
-272
-304
-400
-512
-272
-16
0
-16
-16
-16
48
640
816
384
64
80
0
-96
-160
-208
-288
-320
-400
-528
-304
-16
0
-16
-16
0
32
624
848
416
64
96
16
-96
-160
-208
-272
-304
-400
-512
-320
-16
0
0
0
0
32
592
848
448
80
96
16
-96
-144
-208
-256
-288
-384
-496
-336
-32
-16
0
-16
0
16
544
864
480
80
96
32
-80
-144
-192
-256
-288
-368
-496
-368
-32
-16
0
0
0
16
496
880
512
96
96
32
-80
-144
-192
-256
-272
-368
-496
-384
-32
-16
-16
0
0
0
464
896
560
112
96
32
-80
-144
-192
-256
-288
-368
-496
-416
-48
-16
0
-16
-16
0
432
912
576
112
96
48
-64
-144
-192
-240
-272
-352
-464
-416
-48
-16
-16
-16
-16
0
400
912
608
144
96
48
-64
-128
-192
-240
-272
-352
-464
-416
-64
-16
-16
-16
-16
0
352
896
624
144
96
64
-64
-144
-192
-240
-272
-336
-448
-448
-80
0
0
0
0
0
304
864
624
160
96
64
-64
-144
-192
-256
-288
-352
-448
-448
-80
0
0
0
0
0
272
848
640
176
96
64
-64
-144
-192
-256
-288
-352
-448
-480
-96
0
0
0
0
0
240
848
672
192
80
64
-48
-128
-192
-256
-288
-336
-448
-480
-112
-16
-16
-16
0
0
208
832
704
208
80
64
-48
-128
-192
-240
-288
-352
-448
-512
-128
-16
-16
-16
-16
-16
176
816
720
224
80
80
-32
-128
-192
-240
-288
-336
-448
-528
-160
-16
-16
-16
-16
-16
160
816
736
256
80
80
-32
-112
-192
-224
-272
-336
-432
-528
-176
-16
-16
-16
-16
0
128
800
768
288
96
96
-16
-112
-176
-224
-272
-336
-416
-528
-192
-16
0
0
-16
-16
112
768
768
320
96
96
0
-96
-160
-224
-256
-304
-400
-512
-208
-16
-16
-16
0
0
96
736
784
336
96
96
0
-80
-160
-208
-256
-304
-400
-512
-224
-16
-16
0
0
-16
80
720
800
368
96
112
16
-80
-144
-208
-256
-304
-384
-512
-256
-16
0
0
0
0
64
672
816
384
96
112
16
-80
-144
-208
-272
-304
-400
-512
-272
-16
-16
-16
0
0
48
640
832
416
96
112
16
-80
-144
-208
-272
-320
-400
-512
-304
-16
-16
0
0
-16
32
608
832
432
96
96
32
-80
-144
-208
-272
-320
-400
-512
-320
-16
0
-16
-16
-16
32
576
864
464
96
96
16
-80
-160
-208
-272
-304
-400
-512
-336
-32
-16
-16
0
-16
16
544
864
496
80
96
48
-80
-144
-208
-272
-288
-400
-512
-384
-32
-16
-16
-16
-16
16
512
880
528
96
96
32
-80
-144
-208
-272
-304
-384
-512
-384
-32
0
0
-16
0
0
464
896
544
96
96
48
-80
-144
-208
-272
-304
-384
-512
-416
-48
0
0
-16
0
0
416
896
576
96
80
48
-80
-144
-208
-272
-304
-384
-496
-432
-48
0
0
0
0
0
368
896
608
112
80
32
-80
-144
-208
-272
-304
-368
-496
-448
-64
0
-16
0
0
0
336
896
624
128
80
48
-64
-144
-208
-256
-288
-352
-480
-480
-80
-16
-16
-16
0
0
304
896
656
144
80
48
-64
-128
-192
-240
-288
-352
-464
-480
-96
-16
-16
-16
0
0
272
896
688
176
80
64
-48
-128
-176
-240
-288
-336
-448
-496
-112
-16
0
-16
-16
0
240
880
704
208
80
64
-48
-112
-176
-224
-272
-336
-448
-496
-128
0
0
0
-16
-16
208
864
736
240
80
80
-48
-128
-176
-224
-288
-336
-432
-512
-144
-16
0
0
-16
0
176
832
736
256
96
96
-32
-112
-176
-224
-288
-336
-432
-528
-160
-16
0
0
0
0
144
816
752
272
96
80
-32
-112
-176
-224
-272
-320
-416
-512
-176
-16
-16
0
0
0
128
784
768
304
80
96
-16
-112
-176
-224
-272
-320
-416
-512
-208
-16
0
0
0
0
96
768
800
336
80
96
-16
-112
-176
-224
-272
-320
-416
-512
-224
-16
-16
0
0
-16
80
736
816
352
80
96
0
-96
-176
-224
-272
-320
-400
-528
-240
-16
-16
-16
-16
-16
64
704
832
384
80
96
16
-96
-176
-224
-288
-320
-416
-544
-288
-16
0
-16
-16
-16
48
656
832
400
80
96
0
-96
-176
-224
-288
-320
-416
-528
-288
-16
-16
-16
-16
-16
32
624
848
432
80
96
16
-96
-176
-224
-288
-320
-400
-544
-320
-16
-16
0
-16
0
32
608
864
464
80
96
16
-96
-160
-208
-272
-304
-416
-528
-336
-16
-16
-16
0
0
16
560
864
496
96
96
32
-80
-160
-208
-272
-320
-400
-512
-368
-32
-16
-16
0
-16
16
512
864
496
96
112
48
-80
-144
-208
-272
-304
-400
-512
-400
-32
-16
-16
0
-16
0
480
864
528
96
96
48
-64
-144
-192
-256
-288
-384
-496
-400
-48
0
-16
0
-16
0
432
864
560
112
96
48
-64
-144
-192
-256
-288
-368
-496
-432
-48
0
0
0
0
0
400
880
576
128
96
48
-64
-128
-192
-256
-288
-368
-480
-432
-64
0
0
-16
-16
0
352
880
608
144
96
64
-64
-128
-192
-256
-288
-368
-480
-464
-80
0
0
0
0
0
320
880
624
144
96
64
-48
-128
-192
-256
-288
-368
-480
-480
-80
-16
0
-16
-16
0
288
880
640
176
96
64
-48
-112
-176
-240
-288
-352
-464
-480
-96
0
-16
-16
0
0
256
880
672
192
96
80
-32
-112
-176
-240
-288
-352
-448
-496
-112
-16
0
-16
-16
0
224
880
-416
-528
-176
-16
-16
-16
-16
-16
128
800
752
288
80
80
-16
-96
-160
-224
-272
-320
-416
-512
-192
-16
-16
0
-16
-16
112
784
784
320
96
96
0
-96
-160
-208
-272
-320
-416
-512
-208
-16
-16
0
-16
0
96
768
816
352
96
96
0
-96
-160
-208
-256
-304
-400
-512
-224
-16
-16
0
-16
-16
80
736
832
368
80
96
0
-96
-160
-208
-272
-320
-416
-528
-256
-16
0
0
-16
0
64
704
848
384
64
80
0
-112
-176
-224
-288
-320
-416
-544
-272
-16
0
0
-16
0
48
656
848
416
64
80
0
-112
-192
-224
-288
-320
-416
-544
-304
-16
0
0
0
-16
32
624
880
448
64
80
0
-112
-192
-240
-288
-320
-416
-544
-336
-16
0
-16
0
0
32
576
880
480
64
80
0
-112
-192
-240
-288
-320
-416
-544
-352
-32
-16
0
0
0
16
544
896
512
64
80
0
-112
-176
-224
-304
-336
-416
-544
-384
-32
-16
-16
0
0
16
496
880
528
80
80
16
-96
-160
-224
-272
-304
-400
-512
-400
-32
-16
0
0
-16
0
464
896
576
112
112
64
-64
-144
-208
-256
-288
-368
-496
-416
-48
0
-16
0
-16
0
416
896
608
144
112
64
-48
-144
-192
-256
-288
-352
-464
-432
-64
0
-16
-16
-16
0
384
896
624
160
112
64
-48
-128
-192
-240
-272
-352
-448
-432
-64
-16
-16
-16
-16
0
336
912
656
176
112
80
-48
-128
-192
-240
-272
-336
-448
-448
-80
0
0
0
0
0
304
880
672
192
112
80
-32
-112
-192
-240
-288
-352
-464
-496
-96
-16
0
0
0
0
272
880
688
208
112
80
-32
-128
-192
-256
-304
-368
-480
-512
-112
0
0
-16
-16
0
240
848
672
208
96
80
-32
-128
-192
-256
-304
-384
-480
-528
-128
-16
-16
-16
-16
0
208
848
704
224
80
64
-48
-112
-192
-256
-288
-352
-464
-528
-144
-16
0
-16
-16
-16
176
832
736
256
80
64
-32
-128
-192
-240
-288
-336
-432
-528
-160
-16
-16
0
0
0
144
816
752
272
80
80
-32
-128
-192
-256
-288
-336
-432
-544
-192
-16
-16
0
0
0
128
816
800
304
64
80
-32
-128
-192
-256
-304
-352
-448
-560
-208
-16
-16
0
0
-16
96
768
784
304
64
64
-32
-112
-192
-256
-320
-368
-464
-576
-240
-16
-16
-16
-16
-16
80
752
816
336
64
64
-16
-112
-176
-240
-304
-336
-448
-560
-272
-16
0
-16
-16
-16
64
720
832
368
64
80
-16
-112
-176
-224
-288
-336
-432
-544
-288
-16
-16
-16
-16
0
48
672
848
400
64
96
16
-96
-176
-224
-288
-320
-416
-544
-320
-16
-16
-16
0
0
48
656
864
432
80
96
16
-96
-160
-208
-272
-288
-384
-512
-320
-16
-16
-16
0
0
32
592
864
464
80
96
16
-80
-160
-208
-288
-320
-400
-528
-352
-32
0
0
0
-16
16
560
880
496
80
80
16
-80
-144
-208
-272
-304
-384
-512
-384
-32
0
0
-16
-16
16
512
896
528
96
80
16
-80
-144
-208
-272
-320
-400
-528
-400
-32
0
-16
-16
-16
0
480
896
544
96
96
48
-64
-144
-208
-272
-304
-384
-512
-432
-48
0
-16
-16
-16
0
432
912
592
128
112
48
-64
-128
-192
-240
-288
-368
-496
-432
-48
-16
-16
0
0
0
400
912
608
144
112
64
-48
-128
-176
-240
-288
-368
-480
-448
-64
-16
-16
0
0
0
352
928
640
160
112
64
-48
-128
-176
-240
-272
-352
-464
-464
-80
-16
-16
-16
-16
0
320
912
672
176
96
64
-48
-128
-192
-240
-288
-352
-464
-480
-96
-16
0
-16
-16
0
272
912
704
192
112
80
-48
-128
-192
-240
-272
-336
-464
-512
-112
-16
-16
-16
-16
0
240
896
720
208
96
80
-32
-128
-176
-224
-272
-336
-448
-512
-112
-16
0
-16
-16
0
208
880
736
240
96
80
-32
-128
-192
-224
-272
-336
-432
-512
-144
-16
0
0
0
0
176
864
768
272
96
80
-32
-112
-192
-240
-272
-320
-432
-528
-160
-16
0
0
-16
-16
160
832
768
288
96
80
-16
-112
-192
-240
-288
-336
-432
-528
-176
-16
0
0
0
0
128
816
800
320
96
96
0
-96
-176
-240
-288
-336
-432
-544
-208
-16
0
0
0
0
112
784
816
336
96
96
-16
-96
-176
-224
-272
-336
-432
-544
-224
-16
0
0
0
0
80
752
832
368
96
112
0
-96
-176
-224
-288
-320
-416
-544
-256
-16
-16
-16
0
-16
64
720
832
400
96
112
16
-80
-160
-224
-272
-304
-400
-528
-272
-16
-16
-16
-16
-16
48
672
848
432
96
112
16
-80
-160
-224
-272
-304
-400
-528
-288
-16
-16
0
-16
-16
48
640
848
448
96
112
32
-80
-160
-224
-272
-304
-400
-528
-336
-16
0
-16
-16
-16
32
608
864
464
80
96
0
-96
-160
-224
-288
-320
-416
-528
-352
-32
0
0
-16
-16
16
560
880
496
80
96
32
-80
-160
-224
-288
-320
-400
-528
-384
-32
0
-16
0
0
16
528
880
528
96
96
32
-80
-160
-224
-288
-320
-416
-528
-400
-32
-16
-16
-16
0
0
480
896
544
112
96
32
-80
-144
-208
-288
-320
-416
-528
-432
-48
-16
0
0
0
0
432
896
576
112
112
48
-64
-128
-208
-272
-304
-400
-528
-464
-64
-16
0
-16
0
0
400
896
592
128
96
48
-64
-128
-192
-256
-304
-384
-512
-464
-64
0
0
0
-16
0
352
896
624
144
96
80
-48
-128
-192
-256
-304
-368
-496
-496
-80
0
0
0
-16
0
320
896
640
160
96
64
-48
-128
-192
-256
-288
-368
-480
-512
-96
0
-16
-16
-16
0
288
912
672
176
96
64
-48
-128
-192
-256
-288
-352
-464
-512
-112
-16
-16
-16
-16
0
256
896
704
192
96
80
-32
-112
-176
-240
-272
-336
-448
-528
-128
-16
-16
-16
-16
0
224
896
736
240
96
80
-32
-96
-176
-224
-272
-336
-432
-512
-144
-16
0
0
0
-16
192
880
768
272
112
96
-16
-96
-176
-224
-272
-336
-432
-528
-160
-16
0
0
0
0
160
848
768
288
112
112
0
-80
-160
-208
-272
-320
-416
-512
-176
-16
0
0
0
0
128
832
784
304
112
96
0
-96
-160
-208
-272
-320
-416
-528
-208
-16
-16
-16
0
0
112
784
800
320
96
96
0
-96
-160
-224
-272
-336
-432
-544
-224
-16
0
0
-16
-16
80
752
816
352
80
96
0
-96
-160
-208
-272
-320
-416
-544
-256
-16
0
0
-16
-16
64
704
832
368
96
112
16
-96
-176
-208
-272
-320
-416
-544
-272
-16
0
0
0
0
64
688
864
416
96
112
16
-80
-160
-208
-256
-288
-400
-528
-288
-16
0
-16
-16
0
48
656
880
448
96
112
32
-80
-160
-208
-256
-288
-368
-512
-320
-16
-16
-16
-16
-16
32
624
896
480
96
112
32
-80
-144
-208
-256
-288
-384
-512
-352
-32
-16
-16
0
0
16
576
912
512
96
112
32
-64
-144
-208
-256
-288
-368
-512
-352
-32
-16
-16
-16
-16
16
544
912
544
112
112
48
-64
-144
-208
-272
-304
-400
-512
-384
-32
-16
0
0
-16
16
496
912
560
112
112
32
-64
-128
-208
-272
-304
-384
-496
-416
-48
0
0
0
-16
0
448
912
576
128
112
48
-64
-128
-192
-256
-288
-368
-496
-416
-48
0
0
0
0
0
400
912
608
144
112
64
-64
-128
-208
-256
-288
-368
-480
-464
-64
0
0
0
0
0
368
928
640
160
112
64
-64
-128
-192
-256
-304
-384
-496
-464
-80
-16
-16
0
0
0
336
928
656
160
112
64
-48
-128
-208
-256
-304
-384
-496
-480
-80
-16
-16
0
0
0
288
912
672
176
96
48
-48
-128
-192
-256
-304
-368
-480
-496
-112
0
0
0
-16
0
256
896
704
192
80
64
-48
-128
-208
-256
-288
-368
-464
-512
-112
0
0
0
0
0
224
880
720
208
80
64
-48
-128
-192
-256
-288
-352
-464
-544
-144
-16
0
-16
0
0
192
864
752
240
80
64
-48
-128
-208
-256
-304
-352
-464
-544
-160
-16
-16
-16
-16
0
160
848
768
256
96
80
-48
-128
-192
-256
-304
-352
-448
-544
-176
-16
-16
-16
-16
-16
128
816
768
288
80
80
-32
-112
-176
-240
-288
-336
-432
-560
-208
-16
-16
-16
-16
-16
112
784
784
304
80
96
-16
-112
-192
-240
-288
-336
-432
-544
-224
-16
0
0
0
-16
96
768
816
336
80
96
0
-96
-176
-224
-288
-320
-416
-560
-272
-16
-16
0
0
0
64
720
832
368
80
96
0
-96
-160
-224
-288
-336
-416
-544
-272
-16
-16
0
0
0
64
688
848
400
80
96
16
-80
-160
-208
-288
-320
-400
-528
-304
-16
0
0
-16
-16
48
656
864
432
96
96
16
-80
-144
-208
-272
-304
-400
-512
-320
-16
-16
-16
0
0
32
624
896
464
96
112
32
-80
-144
-192
-256
-304
-384
-512
-336
-32
-16
0
-16
-16
16
576
896
496
96
112
48
-64
-128
-192
-256
-288
-384
-512
-368
-32
0
-16
-16
-16
16
544
928
528
112
128
48
-64
-128
-192
-256
-288
-384
-496
-384
-32
0
-16
0
0
0
496
928
560
112
112
48
-64
-128
-192
-256
-288
-368
-496
-400
-48
-16
-16
-16
-16
0
448
928
592
128
112
48
-64
-128
-192
-240
-272
-368
-480
-432
-64
0
0
0
0
0
416
944
624
128
112
48
-64
-144
-192
-256
-272
-352
-480
-448
-64
0
0
-16
-16
0
368
912
640
144
96
48
-64
-144
-208
-256
-288
-368
-496
-480
-80
0
-16
-16
-16
0
336
928
672
144
80
48
-64
-144
-208
-256
-288
-368
-480
-480
-96
0
-16
-16
-16
0
288
896
688
160
80
64
-64
-144
-208
-256
-304
-368
-480
-512
-112
-16
0
0
-16
0
256
896
704
192
80
64
-48
-128
-192
-256
-288
-368
-464
-512
-128
-16
0
0
0
0
224
896
752
224
96
80
-32
-128
-192
-240
-288
-352
-448
-512
-144
-16
0
-16
0
-16
192
864
752
256
112
96
-16
-112
-176
-240
-272
-336
-432
-528
-160
-16
-16
0
0
0
160
864
784
288
96
96
-16
-96
-176
-224
-272
-336
-432
-528
-176
-16
0
0
0
0
128
800
784
304
112
96
0
-96
-176
-224
-272
-320
-416
-528
-192
-16
0
0
0
0
112
800
816
336
96
112
0
-96
-176
-240
-288
-336
-432
-544
-224
-16
0
0
0
0
96
752
832
352
96
96
0
-96
-176
-240
-288
-336
-432
-544
-256
-16
0
0
0
0
80
736
848
384
96
112
16
-96
-176
-240
-288
-336
-432
-560
-272
-16
-16
0
0
0
64
704
864
416
80
96
16
-96
-160
-224
-288
-320
-416
-544
-304
-16
-16
-16
-16
-16
48
656
864
448
96
112
16
-96
-176
-224
-288
-320
-432
-544
-320
-16
-16
-16
-16
-16
32
624
896
464
80
96
16
-96
-160
-224
-288
-320
-416
-544
-352
-32
-16
-16
-16
-16
16
560
880
480
96
96
16
-80
-160
-224
-288
-320
-416
-544
-384
-32
-16
-16
0
-16
16
528
896
512
96
96
32
-80
-144
-224
-288
-320
-416
-544
-416
-32
0
0
0
-16
0
496
912
544
96
96
32
-80
-160
-224
-288
-320
-400
-528
-432
-48
0
0
0
0
0
448
912
560
112
96
48
-80
-144
-208
-288
-320
-400
-528
-448
-64
0
0
0
0
0
400
912
592
128
96
48
-64
-144
-208
-272
-304
-384
-512
-480
-64
0
0
-16
-16
0
368
912
608
144
96
48
-48
-128
-192
-256
-304
-384
-496
-480
-80
-16
-16
-16
0
0
320
912
656
160
96
64
-48
-112
-176
-240
-288
-352
-464
-496
-96
-16
-16
0
0
0
288
912
672
176
96
64
-48
-112
-176
-240
-272
-336
-464
-496
-112
-16
0
-16
-16
0
256
896
704
208
96
80
-32
-112
-176
-240
-288
-336
-448
-496
-128
-16
-16
-16
-16
0
224
880
720
224
96
80
-32
-112
-176
-224
-288
-336
-448
-528
-144
-16
0
-16
-16
0
192
864
736
240
96
80
-32
-112
-176
-224
-272
-336
-448
-528
-160
-16
-16
0
0
0
160
848
768
256
96
96
-16
-112
-176
-224
-288
-336
-448
-544
-192
-16
-16
-16
-16
-16
128
816
784
288
96
96
-16
-96
-176
-208
-256
-320
-416
-528
-208
-16
0
0
0
-16
112
800
816
320
96
96
0
-96
-176
-208
-272
-320
-416
-528
-224
-16
0
0
-16
-16
96
752
816
352
96
96
0
-96
-160
-208
-256
-288
-384
-528
-256
-16
0
0
-16
-16
64
736
848
384
96
96
0
-96
-176
-224
-272
-304
-400
-528
-272
-16
0
-16
-16
-16
48
688
864
416
80
96
0
-96
-176
-224
-272
-304
-384
-528
-304
-16
0
-16
-16
0
48
656
880
448
80
96
0
-96
-160
-224
-272
-304
-400
-512
-320
-16
-16
-16
-16
0
32
624
912
480
96
112
16
-96
-160
-224
-272
-304
-384
-512
-336
-32
-16
0
-16
-16
16
576
912
512
96
96
16
-80
-144
-208
-272
-304
-400
-512
-368
-32
-16
-16
0
0
16
528
912
528
112
112
32
-64
-144
-208
-272
-304
-384
-496
-384
-32
-16
0
-16
0
0
480
912
560
128
128
48
-64
-144
-208
-256
-288
-368
-496
-400
-48
-16
0
0
0
0
448
928
592
128
112
48
-64
-144
-208
-256
-288
-368
-480
-416
-48
0
0
-16
-16
0
416
928
624
144
128
80
-48
-128
-192
-256
-272
-352
-464
-416
-64
0
0
0
-16
0
368
912
640
160
112
80
-32
-112
-176
-240
-272
-352
-464
-448
-80
-16
-16
-16
0
0
320
912
672
192
128
96
-32
-112
-176
-240
-272
-352
-464
-464
-80
0
-16
0
-16
0
288
896
672
208
128
96
-16
-96
-176
-224
-272
-352
-464
-496
-112
-16
-16
0
0
0
256
912
720
208
128
96
-16
-96
-176
-240
-288
-368
-464
-496
-112
-16
0
0
0
0
208
880
704
208
96
80
-32
-112
-192
-256
-304
-368
-464
-528
-144
-16
0
0
-16
0
176
864
736
224
80
64
-48
-128
-192
-256
-304
-384
-480
-544
-160
-16
0
0
-16
-16
160
848
768
240
64
64
-32
-128
-192
-256
-320
-368
-464
-560
-192
-16
-16
0
0
-16
128
816
784
272
64
64
-32
-112
-192
-256
-304
-352
-464
-576
-208
-16
-16
-16
0
0
112
816
816
288
64
64
-16
-112
-192
-240
-304
-352
-448
-560
-240
-16
-16
0
0
0
96
768
816
320
64
80
-16
-112
-176
-240
-304
-352
-448
-560
-256
-16
-16
-16
0
0
64
720
832
352
80
64
-16
-96
-160
-224
-288
-320
-416
-544
-288
-16
0
-16
-16
-16
48
688
848
400
96
96
0
-96
-160
-208
-256
-288
-384
-528
-304
-16
-16
-16
0
-16
48
656
880
448
96
112
16
-80
-144
-208
-256
-304
-400
-528
-320
-16
0
0
0
-16
32
624
912
480
96
96
16
-80
-160
-208
-256
-288
-384
-528
-336
-32
-16
0
0
0
16
576
896
496
96
96
16
-80
-160
-208
-272
-320
-400
-528
-368
-32
0
0
0
0
16
544
912
528
96
96
16
-80
-160
-224
-272
-304
-400
-528
-400
-48
0
-16
-16
-16
0
496
912
560
96
96
32
-80
-160
-208
-272
-304
-384
-512
-416
-48
0
-16
0
-16
0
448
928
576
112
96
32
-64
-144
-208
-272
-304
-384
-512
-448
-64
0
-16
-16
-16
0
416
928
608
128
96
48
-64
-144
-208
-256
-304
-384
-496
-464
-64
-16
-16
-16
-16
0
368
928
640
144
96
48
-64
-144
-208
-256
-304
-384
-496
-464
-80
0
0
0
0
0
336
944
672
160
96
64
-48
-128
-208
-256
-288
-368
-480
-496
-96
-16
-16
-16
-16
0
288
928
704
176
96
64
-48
-128
-208
-256
-288
-368
-464
-512
-112
-16
0
-16
0
0
256
912
720
208
96
80
-48
-128
-192
-240
-272
-336
-448
-528
-128
-16
-16
-16
-16
-16
208
912
752
224
96
64
-32
-112
-192
-240
-288
-336
-432
-512
-144
-16
0
-16
-16
0
176
880
768
256
96
80
-32
-112
-192
-240
-288
-336
-432
-512
-160
-16
0
0
0
0
160
848
784
288
96
80
-16
-96
-176
-240
-288
-336
-432
-528
-192
-16
0
0
0
0
128
816
800
304
112
96
-16
-96
-176
-224
-288
-336
-432
-528
-208
-16
0
0
0
0
112
800
816
336
112
112
16
-96
-160
-224
-288
-336
-432
-560
-240
-16
0
0
-16
-16
80
768
848
368
96
112
0
-96
-176
-224
-288
-320
-416
-544
-256
-16
-16
-16
0
-16
64
736
880
400
96
112
16
-96
-176
-240
-288
-320
-416
-544
-288
-16
-16
-16
0
0
48
688
880
432
112
128
32
-80
-144
-208
-272
-304
-384
-528
-304
-16
-16
-16
0
0
32
656
896
464
112
128
48
-64
-128
-192
-256
-304
-384
-512
-320
-16
0
-16
0
-16
32
608
896
496
128
144
48
-48
-128
-192
-240
-288
-368
-512
-352
-32
-16
-16
-16
-16
16
576
912
528
128
128
48
-64
-128
-192
-272
-304
-400
-512
-368
-32
0
0
0
-16
16
528
944
560
112
128
48
-64
-144
-208
-272
-320
-400
-528
-400
-32
-16
-16
0
0
0
496
944
560
112
112
32
-64
-144
-208
-272
-320
-416
-528
-432
-48
0
0
-16
-16
0
432
928
576
112
96
32
-64
-144
-208
-288
-336
-416
-528
-448
-64
0
-16
-16
0
0
384
912
592
112
96
48
-64
-144
-208
-272
-320
-416
-528
-480
-80
0
-16
0
0
0
352
928
640
128
80
32
-80
-144
-208
-256
-304
-400
-512
-496
-80
0
-16
0
0
0
304
912
656
160
96
48
-64
-144
-208
-272
-304
-384
-496
-512
-96
0
0
0
0
0
272
912
688
176
96
48
-48
-128
-192
-256
-288
-368
-480
-528
-112
-16
0
0
0
0
240
912
720
208
96
64
-48
-128
-192
-240
-288
-352
-464
-528
-144
-16
0
0
-16
0
208
896
752
240
112
80
-32
-112
-192
-240
-288
-352
-464
-544
-160
-16
-16
0
0
0
176
896
784
272
112
80
-16
-112
-176
-224
-272
-336
-448
-528
-176
-16
0
0
0
0
144
848
800
304
112
96
-16
-112
-176
-240
-288
-336
-432
-528
-192
-16
0
-16
-16
-16
128
816
816
320
96
80
-16
-96
-160
-224
-288
-336
-432
-544
-224
-16
0
-16
-16
0
96
784
832
336
96
96
0
-96
-176
-224
-288
-320
-416
-544
-240
-16
-16
0
-16
-16
80
752
848
368
96
112
0
-96
-160
-224
-272
-320
-416
-544
-272
-16
-16
-16
-16
-16
64
720
880
400
96
112
16
-96
-160
-208
-272
-304
-400
-528
-288
-16
0
0
0
-16
48
688
896
448
112
112
16
-80
-160
-208
-272
-304
-400
-528
-304
-16
-16
0
0
0
32
656
928
480
96
112
16
-80
-144
-208
-256
-304
-400
-528
-352
-32
-16
0
0
0
32
608
928
512
96
112
32
-80
-160
-208
-272
-304
-400
-528
-368
-32
-16
-16
0
0
16
560
928
544
112
128
32
-80
-160
-224
-272
-304
-400
-528
-400
-32
-16
0
0
-16
16
512
928
560
112
128
48
-64
-144
-208
-272
-304
-400
-528
-400
-48
-16
-16
0
-16
0
464
928
592
128
128
48
-64
-144
-208
-272
-320
-400
-512
-432
-48
0
0
0
-16
0
432
944
608
128
112
48
-64
-144
-208
-272
-304
-384
-512
-464
-64
0
0
0
0
0
384
944
640
144
96
48
-64
-144
-224
-272
-320
-400
-512
-480
-80
0
0
-16
0
0
336
944
656
144
96
64
-64
-144
-224
-272
-320
-384
-512
-512
-96
-16
0
-16
0
0
304
944
688
160
80
48
-64
-144
-224
-272
-320
-400
-496
-512
-112
-16
-16
0
-16
0
272
928
720
192
80
48
-48
-128
-208
-272
-304
-384
-480
-528
-128
-16
-16
-16
-16
0
224
912
736
208
80
64
-48
-128
-192
-256
-304
-368
-480
-544
-144
-16
-16
0
0
-16
192
896
768
240
96
80
-32
-112
-192
-240
-288
-352
-464
-544
-160
-16
-16
0
0
-16
160
864
784
256
96
80
-16
-112
-176
-240
-288
-336
-448
-544
-192
-16
0
-16
0
-16
128
832
784
288
80
80
-16
-96
-176
-224
-288
-336
-432
-528
-208
-16
-16
-16
0
0
112
800
816
320
80
80
-16
-96
-176
-224
-288
-336
-432
-528
-224
-16
0
-16
-16
0
80
768
832
336
80
80
-16
-96
-160
-224
-272
-320
-416
-528
-240
-16
-16
-16
0
0
64
720
848
368
80
80
0
-96
-176
-224
-272
-320
-416
-528
-272
-16
0
0
-16
0
48
688
864
400
96
96
0
-96
-160
-208
-272
-304
-400
-528
-288
-16
-16
0
-16
0
48
640
864
432
96
96
0
-96
-160
-208
-272
-304
-400
-512
-304
-16
0
-16
-16
-16
32
608
864
448
96
96
16
-96
-160
-208
-272
-304
-384
-512
-336
-32
0
0
-16
-16
16
560
880
480
96
96
16
-80
-144
-208
-256
-288
-368
-512
-368
-32
-16
-16
0
-16
16
528
912
528
96
96
32
-80
-160
-208
-256
-288
-384
-496
-384
-32
0
-16
0
-16
0
480
912
560
112
112
32
-80
-144
-208
-256
-288
-352
-496
-400
-48
-16
0
0
0
0
448
912
576
112
96
32
-64
-144
-208
-256
-304
-384
-480
-416
-48
0
-16
-16
-16
0
400
896
608
128
112
48
-64
-144
-208
-272
-304
-368
-480
-432
-64
0
0
-16
-16
0
352
896
624
144
96
48
-64
-128
-208
-256
-288
-368
-480
-464
-80
0
-16
-16
-16
0
320
896
640
160
112
64
-48
-128
-192
-240
-288
-352
-464
-464
-80
0
-16
-16
-16
0
288
880
656
176
112
64
-32
-112
-192
-240
-288
-352
-464
-496
-96
-16
-16
-16
0
0
256
896
688
192
96
64
-32
-112
-192
-240
-288
-368
-464
-496
-112
-16
0
0
0
0
224
880
720
224
96
80
-32
-112
-192
-240
-288
-352
-448
-512
-128
-16
0
0
-16
0
192
864
752
240
96
80
-32
-112
-176
-224
-272
-336
-448
-528
-160
-16
0
0
-16
0
160
848
768
272
96
96
-16
-96
-176
-224
-272
-336
-432
-512
-176
-16
0
0
0
0
128
816
784
304
96
96
-16
-96
-176
-224
-272
-320
-416
-528
-192
-16
-16
-16
0
0
112
800
800
320
96
96
0
-96
-176
-224
-288
-336
-432
-528
-208
-16
-16
-16
0
-16
96
752
816
352
96
96
0
-96
-176
-224
-288
-320
-416
-528
-240
-16
-16
-16
-16
0
80
720
832
368
80
96
0
-96
-160
-224
-288
-336
-432
-544
-272
-16
-16
-16
-16
-16
48
688
848
400
80
96
0
-96
-160
-224
-288
-320
-416
-544
-288
-16
-16
0
0
-16
48
640
864
416
80
96
0
-96
-160
-224
-288
-336
-432
-544
-320
-16
0
0
0
0
32
624
880
448
80
96
16
-96
-160
-224
-288
-320
-416
-528
-336
-16
0
0
-16
-16
16
576
896
496
80
96
16
-96
-160
-224
-272
-304
-384
-512
-352
-32
0
0
0
0
16
544
912
512
96
96
32
-80
-144
-208
-272
-304
-384
-512
-384
-32
0
0
-16
-16
16
496
912
560
112
96
32
-64
-128
-192
-256
-288
-368
-512
-400
-48
-16
-16
-16
-16
0
464
928
592
112
112
48
-64
-128
-192
-256
-288
-368
-512
-432
-48
-16
-16
-16
-16
0
400
912
608
128
112
48
-64
-144
-192
-256
-304
-384
-496
-448
-64
-16
-16
0
-16
0
352
896
624
144
112
48
-64
-144
-208
-256
-288
-368
-480
-448
-64
0
0
0
0
0
320
912
640
160
96
48
-64
-128
-192
-240
-288
-368
-480
-480
-80
-16
-16
-16
0
0
288
896
672
176
96
64
-48
-128
-192
-240
-288
-352
-464
-480
-96
0
-16
-16
0
0
256
912
704
208
112
80
-32
-112
-192
-240
-272
-352
-464
-512
-112
-16
-16
-16
-16
0
224
896
720
240
112
80
-32
-112
-192
-240
-272
-336
-448
-512
-128
-16
-16
0
0
0
192
880
752
256
112
80
-32
-112
-192
-240
-288
-352
-448
-512
-160
-16
0
0
-16
-16
160
864
768
272
96
80
-32
-112
-192
-240
-288
-336
-432
-544
-176
-16
-16
0
0
-16
128
832
800
288
80
64
-32
-112
-192
-240
-288
-336
-448
-560
-208
-16
0
-16
-16
-16
112
800
800
320
80
96
-16
-112
-192
-240
-304
-352
-448
-576
-224
-16
-16
-16
0
-16
96
768
816
336
80
96
-16
-96
-176
-224
-288
-336
-432
-544
-240
-16
0
0
0
0
64
720
832
368
96
96
0
-96
-176
-224
-288
-320
-416
-528
-256
-16
0
-16
-16
-16
48
688
848
400
96
96
16
-80
-160
-208
-272
-304
-400
-528
-288
-16
-16
-16
-16
0
48
656
864
432
96
96
16
-80
-144
-208
-256
-304
-400
-512
-304
-16
-16
-16
-16
0
32
608
880
464
112
128
32
-64
-144
-208
-272
-304
-400
-544
-352
-32
0
0
0
-16
16
560
880
480
112
112
48
-64
-144
-208
-256
-304
-400
-512
-352
-32
0
0
0
-16
16
528
912
528
112
112
32
-64
-128
-208
-256
-288
-368
-496
-368
-32
0
-16
0
-16
0
496
912
560
112
112
48
-64
-128
-192
-256
-272
-368
-496
-416
-48
-16
-16
-16
0
0
464
944
592
128
112
48
-64
-128
-208
-256
-288
-368
-496
-416
-48
-16
-16
0
-16
0
416
928
608
128
112
48
-64
-128
-208
-272
-304
-384
-512
-464
-64
0
0
-16
0
0
368
912
624
128
96
48
-64
-128
-208
-256
-320
-400
-496
-464
-80
0
-16
-16
0
0
320
912
656
144
96
32
-64
-128
-208
-256
-304
-384
-496
-480
-80
0
0
0
0
0
288
912
688
160
80
48
-64
-128
-192
-256
-288
-368
-480
-512
-112
-16
0
-16
0
0
256
912
720
192
80
64
-48
-128
-208
-256
-304
-368
-480
-512
-112
-16
-16
-16
-16
-16
224
896
736
208
80
64
-48
-128
-192
-256
-304
-368
-480
-544
-144
-16
0
-16
-16
-16
192
880
752
224
80
64
-48
-128
-192
-240
-304
-384
-480
-544
-160
-16
-16
-16
-16
0
160
848
768
256
80
64
-48
-128
-192
-240
-304
-352
-448
-544
-176
-16
0
0
0
0
128
800
784
288
80
64
-32
-112
-192
-240
-272
-320
-432
-544
-208
-16
-16
0
0
0
112
800
816
320
80
80
-16
-112
-192
-224
-272
-320
-416
-512
-224
-16
-16
0
0
0
80
752
816
352
96
96
0
-96
-160
-208
-256
-304
-400
-512
-240
-16
-16
0
-16
-16
64
736
864
384
96
112
16
-96
-160
-208
-256
-304
-400
-512
-256
-16
0
-16
-16
-16
48
688
848
416
96
112
16
-80
-160
-208
-272
-304
-400
-512
-288
-16
0
-16
0
0
48
656
864
448
96
112
16
-80
-144
-208
-272
-304
-400
-512
-304
-16
0
-16
-16
-16
32
608
880
480
96
112
32
-80
-160
-208
-272
-304
-384
-512
-336
-16
-16
0
0
0
16
576
896
496
96
112
16
-80
-144
-208
-272
-304
-384
-512
-352
-32
-16
0
0
0
16
528
896
528
96
112
32
-80
-160
-224
-272
-304
-400
-512
-368
-32
0
0
-16
-16
0
480
896
560
96
96
16
-96
-176
-240
-288
-336
-400
-528
-400
-48
0
-16
-16
-16
0
448
912
560
96
80
32
-80
-160
-224
-288
-320
-400
-512
-432
-48
-16
-16
-16
0
0
400
896
592
96
80
32
-80
-160
-224
-272
-320
-384
-496
-448
-64
-16
0
-16
0
0
368
896
624
128
80
32
-64
-128
-208
-256
-288
-368
-496
-464
-80
-16
0
0
-16
0
320
896
640
144
80
48
-48
-128
-192
-240
-288
-352
-464
-464
-80
0
-16
0
-16
0
272
880
672
176
96
64
-48
-128
-192
-240
-288
-352
-464
-480
-96
0
0
-16
-16
0
256
880
688
192
96
64
-48
-128
-192
-240
-288
-352
-464
-512
-128
0
-16
0
-16
0
208
864
704
224
96
64
-48
-112
-192
-240
-288
-352
-448
-512
-128
-16
-16
0
0
0
192
864
736
240
96
64
-32
-112
-192
-240
-288
-352
-448
-544
-160
-16
-16
-16
0
0
160
848
752
256
96
80
-32
-112
-192
-240
-304
-352
-448
-544
-176
-16
0
0
0
0
144
848
800
288
80
80
-32
-112
-192
-240
-304
-352
-464
-560
-192
-16
0
0
0
-16
112
800
784
304
80
96
-16
-96
-176
-240
-304
-352
-448
-560
-224
-16
0
0
-16
-16
96
768
816
336
80
80
0
-96
-176
-224
-288
-336
-432
-544
-240
-16
-16
-16
-16
0
80
736
848
384
96
96
0
-96
-160
-224
-288
-336
-432
-544
-272
-16
-16
-16
-16
-16
64
688
864
416
80
96
0
-96
-160
-224
-272
-320
-416
-544
-288
-16
-16
-16
-16
0
48
672
880
448
80
96
16
-96
-160
-224
-272
-304
-400
-544
-320
-16
0
0
-16
0
32
624
896
480
80
96
16
-96
-160
-208
-256
-304
-400
-544
-352
-32
0
0
0
-16
16
576
912
512
80
96
16
-80
-160
-208
-272
-304
-384
-528
-368
-32
-16
-16
0
-16
16
544
928
544
96
96
32
-80
-160
-208
-256
-288
-368
-512
-400
-32
-16
0
0
0
0
496
912
560
112
112
32
-80
-160
-208
-272
-304
-384
-496
-400
-48
-16
-16
0
0
0
448
912
576
128
112
48
-64
-144
-208
-272
-304
-384
-496
-416
-48
0
0
0
0
0
400
896
608
128
96
48
-64
-144
-208
-272
-304
-384
-496
-448
-64
0
0
-16
-16
0
352
912
624
144
96
48
-64
-144
-208
-256
-304
-384
-496
-464
-80
0
0
-16
-16
0
320
912
656
176
112
64
-48
-128
-208
-256
-288
-368
-480
-496
-96
0
-16
0
-16
0
288
928
688
192
112
64
-48
-128
-208
-256
-288
-368
-480
-496
-96
-16
-16
-16
-16
0
256
912
720
208
112
80
-48
-128
-192
-240
-288
-352
-464
-512
-112
-16
-16
0
0
0
224
880
720
224
96
80
-32
-112
-192
-240
-288
-352
-464
-528
-144
-16
-16
-16
-16
-16
176
864
736
240
80
80
-32
-112
-192
-240
-288
-352
-448
-528
-160
-16
0
0
-16
-16
160
832
752
272
96
80
-16
-112
-192
-240
-288
-352
-448
-544
-176
-16
-16
-16
-16
0
128
816
784
288
80
80
-16
-112
-192
-240
-288
-336
-432
-528
-192
-16
0
0
0
0
112
784
800
320
80
80
-16
-112
-192
-240
-288
-336
-432
-544
-224
-16
0
0
0
0
96
752
816
336
64
64
-32
-112
-176
-240
-288
-336
-432
-560
-256
-16
0
0
0
0
64
720
816
368
64
80
-16
-112
-176
-240
-288
-336
-432
-544
-272
-16
0
-16
-16
0
48
672
832
400
80
80
0
-96
-160
-224
-272
-320
-416
-544
-304
-16
-16
-16
-16
-16
48
640
864
432
80
96
0
-80
-160
-208
-272
-304
-384
-512
-304
-16
0
-16
-16
0
32
608
880
480
96
96
32
-80
-144
-208
-272
-304
-384
-512
-336
-16
0
0
0
0
16
576
896
512
96
96
16
-80
-144
-208
-256
-288
-368
-512
-384
-32
-16
0
0
0
16
544
912
528
96
112
48
-64
-144
-208
-272
-304
-384
-512
-384
-32
-16
-16
-16
0
16
496
928
576
112
112
48
-64
-128
-192
-256
-304
-384
-512
-416
-48
-16
-16
0
-16
0
448
912
592
128
112
48
-64
-128
-192
-256
-288
-368
-496
-416
-48
-16
0
0
-16
0
416
912
624
144
112
48
-64
-128
-192
-256
-304
-384
-496
-448
-64
0
-16
0
0
0
368
928
640
144
112
64
-48
-128
-192
-240
-288
-352
-480
-480
-80
0
-16
-16
-16
0
320
912
672
176
112
64
-48
-128
-192
-240
-288
-368
-480
-480
-80
0
-16
-16
0
0
288
912
688
192
112
64
-48
-128
-192
-240
-288
-352
-464
-512
-96
-16
0
0
-16
0
256
896
704
208
96
64
-48
-128
-208
-240
-288
-352
-464
-512
-112
-16
0
0
-16
0
224
896
736
224
96
64
-48
-128
-208
-256
-304
-352
-464
-512
-128
-16
0
0
0
-16
192
864
752
240
96
80
-32
-128
-192
-256
-288
-336
-448
-544
-160
-16
0
-16
-16
-16
160
832
768
272
96
80
-16
-112
-192
-240
-288
-352
-448
-528
-176
-16
-16
-16
-16
0
128
832
800
304
96
96
-16
-96
-176
-240
-288
-336
-432
-544
-208
-16
0
0
-16
0
112
800
800
320
80
80
-16
-96
-176
-240
-288
-352
-448
-544
-224
-16
-16
0
0
0
96
752
816
352
80
80
-16
-96
-176
-240
-304
-336
-432
-544
-240
-16
-16
0
-16
-16
64
720
832
384
80
96
0
-96
-176
-240
-288
-320
-416
-560
-272
-16
-16
-16
0
-16
48
688
864
416
96
96
0
-96
-160
-224
-288
-320
-416
-544
-288
-16
-16
-16
0
0
48
656
880
448
96
96
16
-80
-160
-224
-272
-304
-400
-544
-320
-16
0
-16
0
-16
32
608
880
464
80
96
16
-80
-160
-208
-272
-320
-400
-528
-336
-16
0
0
0
0
16
576
896
496
96
96
32
-80
-144
-208
-272
-320
-400
-528
-368
-32
0
0
0
-16
16
528
880
512
96
96
32
-64
-144
-208
-272
-304
-400
-528
-400
-32
0
-16
0
0
0
496
928
560
112
96
32
-64
-144
-208
-272
-304
-384
-512
-400
-48
0
0
-16
0
0
448
912
592
112
96
32
-64
-144
-208
-256
-304
-384
-512
-448
-48
0
-16
-16
-16
0
400
928
608
128
96
32
-64
-144
-208
-256
-304
-384
-512
-448
-64
-16
0
-16
0
0
368
912
624
144
96
48
-64
-144
-208
-256
-288
-368
-496
-480
-80
-16
-16
-16
-16
0
320
912
656
160
96
48
-64
-128
-192
-256
-288
-368
-496
-512
-96
-16
-16
0
0
0
288
912
688
176
96
48
-48
-128
-192
-240
-288
-352
-464
-512
-96
-16
-16
0
0
0
256
896
720
208
96
64
-48
-128
-192
-240
-288
-336
-448
-528
-128
-16
0
0
0
0
224
896
752
240
96
64
-48
-128
-192
-240
-288
-352
-448
-512
-144
-16
0
-16
-16
0
192
880
768
272
96
80
-32
-112
-192
-240
-288
-336
-448
-528
-160
-16
-16
-16
-16
-16
160
848
768
272
96
80
-32
-112
-176
-240
-288
-352
-448
-544
-192
-16
-16
-16
0
0
128
816
800
304
96
80
-16
-112
-176
-224
-288
-336
-432
-544
-208
-16
0
-16
-16
0
112
784
816
336
96
96
0
-112
-176
-224
-288
-336
-432
-544
-224
-16
0
-16
-16
-16
96
768
848
368
96
96
-16
-112
-176
-224
-272
-320
-416
-544
-240
-16
0
0
-16
-16
64
736
864
400
96
96
0
-96
-176
-224
-288
-320
-416
-544
-272
-16
-16
0
-16
-16
48
688
864
416
96
96
0
-96
-160
-224
-288
-320
-400
-544
-304
-16
0
0
0
0
48
640
864
448
96
96
16
-80
-160
-224
-272
-320
-400
-528
-320
-16
0
0
0
0
32
608
880
480
112
112
32
-80
-160
-224
-272
-304
-400
-528
-352
-32
-16
-16
-16
-16
16
576
896
512
96
112
48
-64
-144
-208
-272
-304
-384
-512
-352
-32
0
0
-16
-16
16
512
896
544
112
112
48
-64
-144
-208
-272
-304
-400
-512
-384
-32
-16
0
-16
0
0
480
912
576
112
112
48
-64
-128
-208
-272
-304
-384
-512
-416
-48
-16
0
-16
0
0
448
912
592
128
112
48
-64
-144
-208
-256
-304
-384
-512
-432
-48
0
0
0
0
0
400
912
624
144
112
48
-64
-128
-208
-272
-320
-384
-512
-464
-64
-16
0
0
-16
0
368
912
640
160
112
64
-48
-128
-208
-256
-304
-368
-496
-464
-80
0
-16
-16
-16
0
320
896
656
176
96
64
-48
-128
-208
-272
-304
-384
-496
-496
-96
-16
0
0
-16
0
288
896
672
176
96
64
-48
-128
-192
-256
-304
-384
-496
-528
-112
0
0
0
0
0
240
896
704
192
96
64
-48
-128
-208
-256
-320
-384
-496
-528
-128
-16
-16
0
0
0
208
864
704
224
80
64
-32
-112
-192
-240
-304
-368
-464
-544
-144
-16
0
0
0
0
176
848
720
240
96
64
-32
-112
-176
-224
-288
-336
-448
-528
-144
-16
0
0
0
-16
160
832
752
272
80
64
-32
-96
-176
-224
-272
-336
-432
-528
-176
-16
-16
-16
-16
-16
128
816
784
304
80
80
-16
-96
-176
-224
-272
-320
-432
-544
-208
-16
-16
-16
0
-16
112
800
816
320
80
80
-16
-96
-176
-224
-272
-336
-432
-544
-224
-16
-16
-16
-16
0
80
768
832
352
80
80
-16
-96
-160
-224
-288
-336
-432
-560
-256
-16
0
-16
0
0
64
720
848
384
80
80
0
-96
-160
-224
-288
-320
-416
-544
-272
-16
0
0
0
-16
48
688
864
416
80
80
-16
-96
-160
-224
-272
-320
-416
-544
-304
-16
0
-16
-16
0
48
656
880
448
80
80
0
-112
-176
-224
-272
-304
-400
-544
-336
-16
-16
-16
0
0
32
624
896
480
80
80
0
-112
-176
-224
-272
-320
-400
-544
-352
-32
0
-16
0
0
16
576
912
512
96
96
16
-96
-160
-224
-272
-304
-384
-528
-384
-32
-16
-16
-16
0
16
528
912
544
96
96
16
-80
-160
-208
-256
-304
-384
-512
-384
-32
0
0
0
-16
0
480
928
576
128
112
32
-64
-144
-208
-240
-272
-352
-496
-416
-48
-16
0
-16
-16
0
448
928
608
128
112
48
-64
-144
-208
-240
-272
-352
-496
-448
-48
-16
-16
-16
-16
0
400
944
640
144
112
48
-64
-144
-208
-256
-288
-368
-480
-464
-64
0
-16
0
-16
0
368
928
672
160
112
64
-64
-144
-208
-256
-304
-368
-496
-480
-80
0
0
0
0
0
320
928
672
160
96
48
-48
-144
-208
-272
-304
-384
-496
-496
-96
0
-16
-16
-16
0
288
912
704
192
96
64
-48
-144
-208
-272
-304
-368
-480
-512
-112
0
0
0
0
0
240
896
704
208
96
64
-32
-128
-208
-256
-304
-368
-480
-528
-128
-16
0
0
0
0
208
880
736
224
96
64
-32
-112
-192
-256
-304
-352
-464
-528
-144
-16
0
0
-16
0
176
864
752
272
96
80
-16
-112
-192
-240
-288
-352
-448
-544
-160
-16
0
-16
-16
0
144
848
784
288
96
80
-32
-112
-192
-240
-288
-352
-432
-528
-176
-16
-16
-16
-16
0
128
816
800
320
96
96
-16
-112
-192
-240
-288
-336
-432
-528
-208
-16
-16
-16
0
0
96
784
816
336
96
96
0
-96
-176
-224
-288
-336
-432
-544
-224
-16
-16
-16
0
0
80
752
832
368
96
96
16
-80
-160
-224
-272
-320
-416
-528
-240
-16
0
0
-16
-16
64
720
848
400
96
96
16
-80
-160
-208
-288
-320
-416
-544
-272
-16
0
-16
-16
-16
48
688
864
416
80
96
16
-80
-144
-208
-272
-320
-400
-528
-288
-16
-16
0
0
-16
32
624
864
448
96
96
16
-80
-160
-208
-272
-320
-416
-528
-320
-16
0
0
0
0
32
608
880
480
96
96
16
-80
-144
-208
-272
-320
-400
-544
-352
-32
-16
-16
-16
-16
16
560
896
512
96
96
32
-80
-144
-208
-272
-304
-400
-528
-368
-32
0
-16
-16
-16
16
528
912
544
96
96
32
-80
-144
-208
-272
-304
-400
-528
-400
-32
-16
-16
-16
-16
0
480
928
576
112
96
48
-64
-144
-208
-256
-304
-384
-512
-416
-48
0
-16
-16
-16
0
432
912
608
128
96
48
-64
-144
-208
-256
-304
-384
-512
-448
-48
-16
-16
0
-16
0
400
928
624
128
96
48
-64
-128
-192
-256
-304
-384
-512
-480
-64
-16
0
0
0
0
352
928
656
160
96
48
-64
-128
-208
-256
-288
-368
-496
-480
-80
-16
0
-16
-16
0
320
928
688
176
96
48
-64
-128
-208
-256
-304
-384
-496
-512
-96
-16
0
0
0
0
288
928
720
208
96
64
-48
-128
-208
-256
-288
-352
-464
-512
-112
0
0
-16
0
0
240
912
736
224
96
64
-48
-128
-192
-256
-288
-352
-464
-528
-128
0
0
-16
0
0
208
880
752
240
80
64
-48
-128
-192
-256
-304
-368
-464
-560
-160
-16
-16
-16
0
0
176
848
752
272
80
64
-48
-144
-208
-240
-288
-352
-448
-560
-176
-16
0
0
0
-16
144
832
784
288
80
64
-48
-128
-208
-240
-304
-368
-448
-560
-192
-16
-16
0
-16
-16
128
800
784
320
80
80
-32
-128
-192
-240
-288
-336
-432
-544
-208
-16
-16
0
-16
0
96
784
816
352
96
80
-16
-112
-192
-240
-288
-336
-432
-544
-224
-16
-16
-16
-16
0
80
752
816
368
80
96
0
-96
-176
-240
-288
-336
-432
-560
-272
-16
-16
-16
0
0
64
720
848
400
80
96
0
-96
-176
-240
-288
-320
-416
-544
-288
-16
0
-16
0
0
48
672
864
432
96
112
16
-96
-176
-240
-288
-320
-416
-560
-320
-16
0
0
-16
0
32
640
864
464
96
96
16
-80
-160
-224
-272
-304
-400
-528
-336
-16
0
0
-16
0
32
592
880
496
96
96
16
-80
-144
-208
-272
-320
-416
-528
-352
-32
0
-16
-16
-16
16
560
896
512
96
112
32
-64
-144
-208
-272
-304
-400
-528
-384
-32
-16
0
0
-16
16
512
912
544
112
112
32
-64
-144
-208
-272
-304
-400
-528
-400
-32
-16
-16
0
-16
0
480
912
576
128
112
48
-64
-144
-208
-272
-304
-384
-528
-432
-48
0
-16
-16
-16
0
432
912
592
128
112
48
-64
-128
-208
-256
-304
-384
-512
-448
-64
0
0
0
-16
0
384
928
624
144
96
64
-48
-128
-192
-256
-304
-384
-496
-464
-64
-16
0
-16
-16
0
352
912
640
144
96
64
-48
-128
-192
-256
-304
-368
-496
-496
-80
-16
-16
-16
0
0
320
928
672
176
96
64
-48
-128
-192
-240
-288
-368
-480
-496
-96
-16
-16
0
0
0
272
912
688
192
96
64
-32
-112
-192
-240
-288
-352
-480
-528
-112
-16
-16
0
0
0
240
912
720
208
96
64
-32
-112
-176
-240
-288
-352
-464
-512
-128
-16
-16
0
-16
0
192
864
736
240
96
80
-32
-112
-176
-224
-288
-336
-448
-528
-144
-16
0
-16
0
0
176
848
752
256
96
80
-16
-112
-176
-224
-288
-352
-448
-544
-176
-16
-16
-16
-16
0
144
832
784
288
96
80
-16
-112
-176
-224
-288
-336
-432
-544
-192
-16
0
0
0
0
112
800
816
320
80
80
-16
-112
-176
-224
-288
-336
-432
-560
-224
-16
0
0
-16
0
96
800
848
352
80
64
-32
-112
-176
-224
-288
-320
-416
-544
-240
-16
0
0
-16
-16
80
752
864
400
80
80
-16
-112
-192
-224
-288
-320
-400
-528
-256
-16
0
0
-16
-16
64
720
864
416
80
80
0
-112
-176
-224
-288
-320
-416
-544
-288
-16
0
0
0
0
48
672
880
448
80
96
16
-96
-176
-224
-272
-304
-400
-528
-304
-16
-16
-16
0
0
32
608
864
480
96
96
16
-96
-160
-224
-272
-304
-384
-528
-320
-16
-16
-16
-16
0
32
576
880
496
80
96
16
-96
-160
-224
-256
-288
-384
-512
-352
-32
0
-16
0
0
16
528
880
528
96
96
32
-80
-160
-208
-256
-288
-368
-512
-368
-32
-16
-16
-16
0
16
496
896
560
112
96
32
-80
-160
-224
-272
-304
-400
-528
-416
-48
0
-16
0
-16
0
464
896
576
128
112
48
-64
-160
-224
-272
-304
-384
-512
-432
-48
0
0
-16
-16
0
416
896
592
144
112
64
-48
-144
-208
-272
-320
-400
-512
-464
-64
-16
-16
0
-16
0
384
896
608
160
128
64
-32
-128
-192
-256
-304
-368
-496
-464
-64
0
0
0
0
0
352
912
656
192
128
80
-32
-112
-192
-240
-272
-352
-464
-464
-80
-16
0
-16
-16
0
304
912
672
192
112
80
-32
-112
-192
-240
-272
-336
-464
-496
-96
0
0
0
-16
0
272
880
688
208
112
80
-16
-96
-176
-224
-272
-336
-448
-496
-112
-16
-16
-16
0
0
224
864
704
224
96
64
-32
-96
-176
-224
-272
-352
-448
-512
-128
0
-16
-16
-16
0
208
864
720
240
96
80
-16
-96
-176
-224
-288
-352
-448
-512
-144
-16
-16
-16
-16
0
176
848
752
272
96
80
-16
-96
-176
-224
-288
-352
-448
-528
-160
-16
-16
-16
-16
-16
144
832
752
272
96
80
-16
-96
-160
-224
-272
-336
-432
-544
-192
-16
0
0
0
-16
128
800
784
304
80
80
-16
-96
-160
-224
-272
-336
-432
-544
-208
-16
-16
0
0
-16
96
768
800
336
80
80
-16
-96
-160
-224
-288
-320
-432
-560
-240
-16
0
0
0
-16
80
736
832
352
64
80
-16
-112
-176
-224
-272
-320
-416
-544
-256
-16
-16
-16
0
-16
64
720
848
400
64
80
-16
-112
-176
-224
-288
-336
-432
-560
-288
-16
0
0
0
0
48
672
864
416
64
80
0
-96
-176
-224
-288
-320
-416
-560
-320
-16
-16
0
0
0
32
656
896
448
64
80
0
-96
-160
-224
-288
-320
-400
-544
-336
-16
0
0
0
0
32
592
896
480
80
80
0
-96
-160
-208
-272
-304
-400
-528
-352
-32
-16
-16
-16
-16
16
560
912
528
80
96
16
-80
-160
-208
-272
-304
-384
-512
-368
-32
-16
-16
0
-16
16
512
912
560
96
96
32
-80
-144
-208
-256
-288
-368
-496
-384
-32
-16
-16
-16
-16
0
464
912
576
112
112
48
-64
-144
-208
-256
-304
-368
-496
-416
-48
0
-16
-16
0
0
432
944
624
128
96
48
-64
-144
-208
-256
-304
-368
-496
-432
-48
0
-16
0
-16
0
384
928
640
160
112
64
-64
-144
-208
-256
-288
-368
-496
-464
-64
0
0
0
-16
0
352
928
672
176
96
48
-48
-128
-208
-256
-288
-368
-480
-480
-80
0
-16
0
-16
0
304
928
688
192
112
64
-48
-128
-192
-240
-288
-368
-464
-480
-96
-16
0
-16
-16
0
272
912
704
208
112
80
-32
-112
-192
-240
-288
-352
-464
-512
-112
-16
0
0
0
0
240
896
736
224
96
64
-48
-128
-192
-240
-288
-352
-464
-512
-128
-16
0
0
0
0
192
880
752
256
96
80
-32
-128
-192
-240
-288
-336
-448
-544
-144
-16
-16
0
0
0
176
880
784
272
96
80
-32
-128
-192
-240
-288
-336
-448
-544
-160
-16
-16
-16
-16
-16
144
832
784
304
80
80
-16
-112
-192
-240
-304
-352
-448
-560
-192
-16
0
0
-16
-16
128
816
800
320
80
80
-16
-128
-208
-256
-320
-352
-448
-576
-224
-16
0
-16
-16
-16
96
784
816
336
64
64
-16
-112
-192
-256
-304
-368
-448
-560
-240
-16
0
0
0
0
80
736
816
368
80
80
0
-112
-176
-240
-304
-352
-448
-560
-272
-16
0
-16
0
0
64
704
848
400
80
80
0
-80
-160
-224
-272
-320
-400
-528
-272
-16
-16
-16
-16
-16
48
656
848
432
96
96
16
-80
-160
-208
-272
-288
-384
-496
-288
-16
-16
-16
0
0
32
624
848
448
96
96
32
-80
-144
-208
-256
-288
-368
-496
-320
-16
0
0
-16
-16
32
576
864
480
96
112
32
-80
-144
-208
-256
-288
-368
-496
-336
-32
-16
0
0
0
16
544
880
512
112
112
32
-64
-144
-208
-272
-304
-384
-512
-368
-32
-16
0
-16
0
