-96
0
64
112
112
128
128
208
336
240
96
16
-64
-128
-144
-144
-144
-208
-320
-240
-96
0
64
112
112
128
144
208
336
256
96
16
-48
-128
-144
-144
-144
-208
-336
-256
-96
-16
64
112
112
128
128
192
320
256
96
16
-48
-128
-144
-144
-144
-192
-320
-256
-96
-16
64
112
112
128
128
192
320
256
112
16
-48
-128
-144
-144
-144
-192
-320
-272
-112
-16
64
112
112
128
128
176
320
272
112
16
-48
-128
-144
-144
-144
-192
-320
-272
-112
-16
48
96
112
128
128
176
320
272
112
32
-48
-128
-144
-144
-144
-192
-320
-272
-112
-16
48
112
112
128
128
176
304
272
112
32
-48
-128
-144
-160
-144
-192
-320
-288
-128
-32
48
112
112
128
128
176
304
288
112
32
-48
-112
-144
-144
-144
-176
-304
-288
-128
-32
48
96
112
112
128
176
304
288
128
48
-32
-112
-144
-144
-144
-176
-304
-304
-128
-32
48
96
112
128
128
160
304
288
128
32
-32
-112
-144
-144
-144
-176
-304
-304
-144
-48
48
96
112
128
128
160
288
304
128
32
-32
-112
-144
-144
-144
-176
-288
-304
-128
-32
48
112
112
112
128
160
288
304
128
48
-32
-112
-144
-144
-144
-176
-288
-320
-144
-48
32
96
112
128
128
160
288
320
144
48
-32
-112
-144
-144
-144
-176
-288
-320
-144
-48
48
96
112
128
128
160
288
320
144
48
-32
-112
-144
-144
-144
-176
-288
-320
-144
-48
32
96
112
128
128
144
272
320
144
48
-32
-96
-144
-144
-144
-176
-272
-320
-160
-48
32
96
112
112
128
144
272
320
144
48
-32
-96
-144
-144
-144
-160
-272
-336
-160
-64
32
96
112
112
128
144
256
320
160
64
-16
-96
-144
-144
-160
-160
-272
-336
-160
-64
32
80
112
112
128
144
256
320
160
64
-16
-96
-144
-144
-160
-160
-272
-336
-176
-64
32
80
112
128
128
144
256
336
160
64
-16
-96
-144
-144
-160
-160
-256
-336
-176
-64
16
80
112
112
128
144
240
336
176
64
-16
-96
-144
-144
-144
-160
-256
-352
-192
-80
16
80
112
112
128
128
240
336
176
64
-16
-80
-144
-160
-160
-160
-256
-352
-192
-80
16
80
112
112
128
144
240
336
176
64
-16
-96
-144
-144
-160
-160
-256
-352
-192
-80
16
80
112
112
128
128
224
336
192
64
-16
-80
-144
-144
-144
-160
-240
-336
-192
-80
16
80
112
112
128
128
224
336
192
80
-16
-80
-144
-144
-160
-160
-240
-352
-208
-80
16
64
112
112
128
128
224
336
192
80
-16
-80
-144
-144
-160
-160
-240
-336
-208
-80
16
80
112
112
128
128
208
336
208
80
0
-80
-144
-144
-160
-160
-240
-336
-224
-96
0
64
96
96
128
128
208
336
208
80
0
-80
-128
-144
-160
-160
-224
-336
-224
-96
0
64
112
112
128
128
208
320
208
80
0
-80
-128
-144
-160
-144
-224
-336
-240
-96
0
64
112
112
128
128
208
320
224
80
0
-64
-128
-144
-160
-144
-224
-336
-240
-96
-16
64
112
112
128
128
192
320
224
96
0
-64
-128
-144
-160
-144
-208
-336
-240
-112
-16
64
96
96
128
128
192
320
240
96
16
-64
-128
-144
-144
-144
-208
-336
-256
-112
-16
64
96
96
128
128
192
320
240
96
16
-64
-128
-144
-160
-144
-208
-336
-256
-112
-16
64
112
112
128
128
192
320
240
96
16
-48
-112
-128
-144
-144
-208
-320
-256
-112
-16
48
96
112
128
128
176
320
256
96
16
-48
-128
-144
-144
-144
-192
-320
-272
-112
-16
48
96
112
128
128
176
304
256
96
16
-48
-128
-144
-144
-144
-192
-320
-272
-112
-16
64
112
96
128
128
176
304
272
112
16
-48
-128
-144
-144
-144
-192
-320
-272
-128
-32
48
96
96
112
128
176
304
272
112
16
-48
-128
-144
-144
-144
-192
-320
-288
-128
-32
48
96
96
112
128
160
304
272
128
32
-48
-128
-144
-160
-144
-192
-304
-288
-128
-48
48
96
96
112
128
160
304
288
112
32
-32
-112
-144
-144
-144
-176
-304
-288
-128
-32
48
96
112
112
128
160
288
288
128
32
-32
-112
-144
-144
-144
-176
-288
-288
-128
-32
48
96
112
112
128
160
288
288
128
32
-32
-112
-144
-144
-144
-176
-288
-304
-128
-48
48
96
96
112
112
160
288
288
128
32
-32
-112
-144
-144
-144
-176
-288
-304
-144
-48
32
80
96
112
128
160
288
304
128
48
-32
-96
-128
-144
-144
-176
-288
-304
-144
-32
48
96
112
112
128
144
272
304
128
48
-32
-112
-144
-144
-144
-176
-288
-320
-144
-48
32
96
112
112
128
144
272
304
144
48
-32
-112
-144
-144
-144
-176
-288
-320
-144
-48
32
96
96
112
112
144
256
320
144
48
-32
-112
-144
-144
-144
-160
-272
-320
-160
-64
32
80
96
112
128
144
256
304
144
48
-32
-112
-144
-144
-144
-160
-272
-320
-160
-64
32
80
96
112
128
144
256
304
144
48
-32
-96
-144
-144
-144
-160
-256
-320
-160
-64
16
80
112
112
128
144
240
320
160
64
-16
-96
-128
-144
-144
-160
-256
-320
-176
-64
16
80
96
112
128
144
240
320
160
64
-16
-96
-144
-144
-144
-160
-256
-336
-176
-64
16
80
112
112
128
144
240
320
160
64
-16
-96
-144
-144
-144
-160
-256
-336
-176
-80
16
80
96
112
128
128
224
320
160
64
-16
-80
-128
-144
-144
-160
-240
-320
-176
-80
16
80
96
96
112
128
224
320
176
64
-16
-80
-128
-128
-144
-160
-240
-336
-192
-80
16
64
96
112
112
128
208
304
176
64
-16
-80
-128
-144
-144
-160
-240
-336
-192
-80
16
64
96
112
112
128
208
320
176
64
-16
-80
-128
-144
-144
-144
-224
-320
-192
-80
16
64
96
112
112
112
208
304
176
64
-16
-80
-128
-144
-144
-144
-224
-336
-208
-96
0
80
96
96
112
128
208
320
192
80
0
-80
-128
-144
-144
-144
-224
-320
-208
-96
0
64
96
96
112
112
192
304
192
80
0
-64
-128
-144
-144
-144
-224
-336
-224
-96
0
64
96
96
112
112
192
304
192
80
-16
-80
-128
-144
-144
-144
-208
-320
-224
-96
0
48
96
96
112
112
176
304
192
80
0
-64
-128
-144
-144
-144
-208
-320
-224
-96
-16
64
96
96
112
112
176
304
208
80
0
-64
-128
-144
-144
-144
-208
-320
-224
-96
-16
48
96
96
112
112
176
304
208
80
0
-64
-128
-144
-144
-144
-208
-320
-224
-96
-16
48
96
96
112
112
176
304
224
80
0
-64
-128
-128
-144
-144
-192
-320
-240
-96
-16
48
96
96
112
112
176
304
224
80
0
-64
-128
-144
-144
-144
-192
-320
-240
-112
-16
48
96
96
112
112
160
288
224
80
16
-64
-128
-128
-144
-144
-192
-304
-240
-112
-16
48
96
96
112
112
160
288
240
96
16
-48
-128
-144
-144
-144
-192
-304
-256
-112
-16
48
96
96
112
112
160
288
240
96
16
-48
-112
-128
-144
-144
-176
-304
-256
-112
-16
48
96
96
112
112
160
288
240
96
16
-48
-112
-128
-144
-144
-176
-304
-256
-112
-32
48
96
96
112
112
160
288
256
96
16
-48
-112
-128
-144
-144
-176
-288
-256
-112
-32
48
80
96
112
112
144
272
240
96
32
-32
-112
-128
-144
-144
-176
-288
-272
-128
-32
48
80
96
112
112
144
272
256
112
16
-48
-112
-128
-144
-128
-176
-288
-272
-128
-32
48
96
96
112
112
144
272
256
112
16
-48
-112
-128
-144
-128
-160
-288
-272
-112
-32
32
80
96
112
112
144
256
272
112
32
-32
-112
-128
-144
-144
-160
-272
-288
-128
-32
32
80
96
112
112
144
256
272
112
32
-32
-112
-128
-144
-144
-160
-272
-288
-128
-48
32
80
96
112
112
144
272
272
112
32
-32
-112
-128
-144
-144
-160
-272
-288
-128
-48
32
80
96
96
112
128
256
272
128
32
-32
-96
-128
-144
-144
-160
-272
-288
-128
-48
32
80
96
96
112
128
256
288
128
48
-32
-96
-128
-128
-128
-144
-256
-288
-128
-48
32
80
96
96
112
128
240
272
112
32
-32
-112
-144
-144
-144
-160
-272
-304
-144
-64
16
80
96
96
112
128
240
288
128
32
-32
-96
-128
-144
-144
-160
-256
-304
-160
-64
16
80
96
96
96
128
224
288
128
32
-32
-96
-128
-144
-144
-160
-256
-304
-160
-64
16
80
96
112
112
112
224
288
128
48
-32
-96
-144
-144
-144
-160
-256
-304
-160
-64
16
80
96
96
112
128
224
288
144
48
-16
-80
-128
-144
-144
-160
-240
-304
-160
-64
16
80
96
96
112
112
208
288
144
48
-32
-96
-128
-144
-144
-144
-240
-320
-160
-64
16
64
96
96
112
112
208
288
144
48
-16
-96
-128
-144
-144
-144
-240
-320
-160
-64
16
80
96
96
112
112
208
304
160
64
-16
-80
-128
-144
-144
-144
-224
-304
-176
-80
16
64
96
96
112
112
208
304
160
48
-32
-96
-128
-144
-144
-144
-240
-320
-176
-80
16
64
96
96
112
112
208
304
176
64
-16
-80
-128
-144
-144
-144
-224
-320
-176
-80
16
64
96
96
112
112
208
304
160
64
-16
-80
-128
-144
-144
-144
-224
-320
-192
-80
16
64
96
96
112
112
192
304
176
64
-16
-80
-128
-144
-144
-128
-208
-304
-192
-80
0
64
96
96
112
112
192
304
176
64
-16
-80
-128
-144
-144
-144
-208
-304
-192
-80
0
64
96
96
112
112
192
304
176
64
-16
-80
-128
-144
-144
-144
-208
-320
-208
-96
0
48
96
96
112
112
176
288
176
64
0
-64
-128
-144
-144
-144
-208
-320
-208
-80
0
64
96
96
112
112
176
288
192
64
-16
-80
-128
-144
-144
-144
-208
-320
-208
-96
0
64
96
96
112
112
176
288
192
64
0
-64
-128
-128
-144
-144
-208
-304
-224
-96
0
48
96
96
112
112
176
288
192
64
0
-64
-128
-144
-144
-144
-192
-320
-224
-96
-16
64
96
96
112
112
160
288
208
80
0
-64
-128
-144
-144
-144
-192
-304
-224
-96
0
64
96
96
112
112
160
288
208
80
0
-64
-128
-144
-144
-144
-192
-304
-224
-96
-16
48
96
96
112
112
160
288
208
80
0
-64
-128
-128
-144
-128
-192
-304
-240
-112
-16
48
96
96
112
112
160
288
224
96
16
-48
-128
-128
-144
-128
-176
-288
-240
-96
-16
48
96
96
112
96
144
272
224
80
0
-64
-128
-128
-144
-128
-176
-304
-240
-112
-32
32
80
80
96
96
144
272
224
80
0
-48
-112
-128
-144
-128
-176
-288
-240
-112
-32
32
80
80
96
96
144
256
224
80
0
-48
-112
-128
-144
-144
-176
-288
-256
-112
-32
32
80
80
80
96
128
256
240
80
16
-48
-112
-128
-144
-128
-176
-288
-272
-128
-32
32
80
80
96
112
144
256
240
96
16
-48
-112
-128
-144
-128
-176
-288
-272
-128
-32
32
80
80
96
96
128
256
240
96
16
-48
-112
-128
-144
-144
-176
-288
-272
-128
-48
32
80
80
96
96
128
256
256
96
16
-48
-112
-128
-128
-128
-176
-288
-288
-128
-48
32
80
80
96
96
128
256
256
96
16
-48
-112
-128
-144
-144
-160
-272
-288
-128
-48
32
80
96
96
96
128
240
256
96
16
-48
-112
-144
-144
-144
-160
-272
-288
-128
-48
32
80
96
96
96
128
256
272
112
32
-32
-112
-128
-144
-144
-160
-272
-304
-144
-48
32
80
96
96
96
128
240
272
112
32
-32
-96
-144
-144
-144
-160
-272
-304
-144
-64
32
80
96
96
112
128
240
288
128
48
-32
-96
-128
-144
-144
-160
-272
-304
-144
-64
32
80
96
96
96
128
240
288
128
32
-32
-96
-128
-144
-144
-160
-256
-304
-160
-64
16
80
96
96
112
128
240
288
128
48
-32
-96
-144
-144
-144
-160
-256
-320
-144
-64
16
80
96
96
112
128
240
304
144
48
-32
-96
-144
-144
-144
-160
-256
-320
-160
-64
32
80
96
96
112
128
240
304
144
48
-32
-96
-128
-144
-144
-144
-256
-320
-160
-64
16
80
96
96
112
128
240
320
144
48
-32
-96
-128
-144
-144
-160
-256
-320
-176
-80
16
64
96
96
112
112
224
304
160
48
-16
-96
-144
-144
-144
-160
-240
-336
-176
-80
16
64
96
96
112
128
224
304
160
48
-16
-96
-144
-144
-144
-144
-240
-336
-192
-80
16
80
96
96
112
128
208
304
160
48
-16
-80
-144
-144
-144
-160
-240
-336
-192
-80
16
64
96
96
112
128
208
304
176
64
-16
-80
-128
-144
-144
-144
-240
-336
-192
-80
16
64
96
96
112
112
208
320
176
64
-16
-80
-128
-144
-144
-144
-224
-336
-208
-96
0
64
96
96
112
112
208
320
176
64
-16
-80
-144
-144
-160
-144
-224
-336
-208
-96
0
64
96
96
112
112
192
304
192
64
0
-64
-128
-144
-144
-144
-224
-336
-208
-96
0
64
96
96
112
112
192
320
192
80
-16
-80
-128
-144
-144
-144
-224
-336
-224
-96
0
64
96
96
112
112
192
320
208
80
0
-64
-128
-144
-144
-144
-208
-336
-224
-80
16
64
112
112
112
112
192
320
208
80
0
-64
-128
-144
-144
-144
-208
-320
-224
-96
0
64
96
96
112
112
192
320
208
80
0
-64
-128
-144
-144
-144
-208
-320
-240
-96
0
64
96
112
128
112
192
320
240
96
0
-64
-128
-144
-144
-144
-208
-320
-240
-96
0
48
96
96
112
112
176
304
224
96
0
-64
-128
-144
-144
-144
-192
-320
-240
-96
-16
64
96
96
112
112
176
304
224
80
0
-64
-128
-144
-144
-144
-192
-304
-256
-112
-16
64
96
96
112
112
176
304
240
96
16
-48
-128
-144
-144
-144
-192
-320
-256
-112
-16
48
96
112
128
112
176
304
240
96
16
-48
-128
-144
-144
-144
-192
-320
-256
-112
-16
48
96
96
112
128
160
288
240
96
16
-64
-128
-144
-160
-144
-192
-304
-272
-112
-32
48
96
96
112
112
160
288
256
96
16
-48
-112
-144
-144
-144
-192
-304
-272
-112
-32
32
96
96
112
112
160
288
256
96
16
-48
-112
-128
-144
-144
-176
-304
-288
-128
-32
32
80
96
112
112
144
288
272
96
16
-48
-112
-144
-144
-144
-176
-304
-288
-128
-32
48
96
96
112
112
144
288
272
112
16
-48
-112
-144
-144
-144
-176
-304
-288
-128
-32
48
96
96
112
112
144
272
272
112
32
-48
-112
-144
-144
-144
-176
-288
-304
-128
-48
32
80
96
112
112
144
272
288
112
32
-48
-112
-144
-144
-144
-176
-288
-304
-144
-48
32
96
96
112
112
144
272
288
128
48
-32
-112
-144
-144
-144
-176
-288
-304
-144
-48
32
80
96
112
112
144
256
288
128
32
-32
-112
-144
-144
-144
-176
-288
-304
-144
-48
32
80
96
112
112
144
256
304
128
32
-32
-96
-144
-144
-144
-176
-272
-304
-144
-48
32
80
96
112
112
144
256
304
128
48
-32
-96
-144
-144
-144
-176
-288
-320
-160
-64
16
80
96
112
112
144
256
304
144
48
-32
-96
-144
-144
-144
-160
-272
-320
-160
-64
32
80
96
112
128
144
256
304
144
48
-32
-96
-144
-144
-144
-160
-272
-320
-160
-64
32
80
96
112
112
128
240
304
144
48
-32
-96
-128
-144
-144
-160
-256
-320
-176
-64
16
80
112
96
112
128
240
304
144
48
-32
-96
-144
-144
-128
-160
-256
-320
-176
-64
16
80
96
96
112
128
240
304
160
48
-32
-96
-144
-144
-144
-160
-256
-336
-192
-80
16
64
96
96
112
112
224
304
160
48
-32
-96
-144
-144
-160
-160
-256
-320
-176
-80
16
64
96
96
112
128
224
304
160
48
-16
-96
-144
-144
-144
-160
-240
-336
-176
-80
16
64
96
96
112
128
224
304
160
48
-16
-96
-144
-144
-144
-160
-240
-320
-192
-64
16
64
96
96
112
128
208
304
176
64
-16
-80
-144
-144
-160
-160
-240
-336
-208
-80
0
64
96
96
112
112
208
320
176
64
-16
-80
-128
-144
-144
-144
-240
-336
-208
-96
0
64
96
96
112
112
208
320
192
64
-16
-80
-128
-144
-144
-144
-224
-336
-192
-80
16
64
96
96
112
128
208
320
192
64
-16
-80
-128
-144
-144
-144
-224
-336
-208
-80
0
64
96
96
112
112
192
320
192
64
0
-64
-128
-144
-144
-144
-208
-320
-208
-80
0
64
96
96
112
112
208
320
208
80
0
-64
-128
-144
-144
-144
-208
-320
-224
-96
0
64
96
96
112
112
192
304
208
80
0
-64
-128
-144
-144
-144
-208
-336
-240
-96
-16
48
96
96
112
112
176
304
208
64
0
-64
-128
-144
-144
-144
-208
-336
-240
-112
-16
48
96
96
112
112
176
304
208
80
0
-64
-128
-144
-160
-144
-208
-320
-240
-112
-16
48
96
96
112
112
176
304
224
80
0
-64
-128
-144
-144
-144
-208
-320
-256
-112
-16
48
96
96
112
112
176
304
224
80
0
-64
-128
-144
-144
-144
-192
-320
-256
-112
-16
48
96
96
112
112
176
304
240
96
0
-48
-128
-144
-144
-144
-192
-304
-256
-112
-16
48
96
96
112
112
176
304
240
96
16
-48
-112
-128
-144
-144
-192
-304
-256
-112
-16
48
96
112
128
112
160
304
256
96
16
-48
-112
-128
-144
-144
-176
-304
-256
-112
-16
48
96
96
112
112
160
288
256
96
16
-48
-112
-144
-144
-144
-176
-304
-272
-112
-16
48
96
96
112
112
160
288
256
112
16
-48
-112
-144
-144
-144
-176
-304
-272
-112
-32
48
96
96
112
112
160
288
272
112
16
-48
-112
-144
-144
-144
-176
-304
-288
-128
-32
48
96
96
112
112
160
288
272
112
32
-48
-112
-144
-144
-144
-176
-288
-288
-128
-32
48
96
96
112
112
144
272
272
112
16
-32
-112
-144
-144
-144
-176
-288
-288
-128
-32
32
80
96
112
112
144
272
272
112
32
-32
-112
-144
-144
-144
-160
-272
-288
-128
-32
32
96
96
112
112
144
272
288
128
32
-32
-112
-128
-144
-144
-176
-288
-304
-128
-48
32
96
96
112
112
144
256
288
112
32
-32
-112
-144
-144
-144
-160
-272
-304
-144
-48
32
80
96
96
112
144
256
288
128
32
-32
-96
-144
-144
-144
-160
-272
-304
-144
-48
32
80
96
112
112
144
256
288
128
32
-32
-96
-144
-144
-144
-160
-272
-304
-144
-48
32
80
96
112
112
128
256
288
128
48
-32
-96
-128
-128
-144
-160
-272
-320
-160
-48
32
80
96
112
112
128
240
304
144
48
-32
-96
-128
-144
-144
-160
-256
-320
-160
-48
32
80
96
112
112
128
240
304
144
48
-32
-96
-128
-144
-144
-160
-256
-320
-160
-64
32
96
112
112
112
128
240
304
144
48
-16
-96
-128
-144
-144
-160
-256
-320
-160
-64
16
64
96
96
112
128
224
304
160
48
-32
-96
-144
-144
-144
-160
-256
-336
-176
-80
16
80
96
96
112
128
224
304
160
64
-16
-80
-144
-144
-144
-160
-240
-320
-176
-64
16
80
96
96
112
128
224
304
160
48
-16
-80
-128
-144
-144
-144
-240
-320
-176
-80
16
64
96
96
112
128
224
304
160
48
-16
-80
-128
-144
-144
-144
-224
-320
-176
-64
16
64
96
96
112
112
208
304
176
64
-16
-80
-128
-144
-144
-144
-224
-320
-192
-80
0
64
96
96
112
128
208
304
176
64
-16
-80
-128
-144
-144
-144
-224
-320
-192
-80
16
64
96
96
112
128
208
320
192
64
-16
-64
-128
-144
-144
-144
-224
-320
-208
-80
0
64
96
96
112
128
208
320
192
64
0
-64
-128
-128
-144
-144
-224
-320
-208
-80
0
64
96
96
112
112
192
320
192
64
0
-64
-128
-144
-144
-144
-208
-320
-224
-96
0
64
96
96
112
112
192
304
208
80
0
-64
-128
-144
-144
-144
-208
-320
-224
-96
0
64
96
96
112
112
192
304
208
80
0
-64
-128
-144
-144
-144
-208
-320
-224
-96
0
64
112
112
112
112
192
304
208
80
0
-64
-128
-144
-144
-144
-208
-320
-240
-96
0
48
96
96
112
112
176
304
224
80
0
-64
-128
-144
-144
-144
-192
-320
-240
-96
-16
48
96
96
112
112
176
304
224
80
0
-48
-128
-144
-144
-144
-192
-320
-240
-96
-16
48
96
96
112
112
176
304
224
80
0
-64
-128
-128
-144
-144
-192
-320
-256
-96
-16
48
96
96
112
112
176
304
240
96
16
-48
-112
-128
-144
-144
-192
-320
-256
-96
-16
48
96
96
112
112
160
288
240
96
0
-48
-112
-128
-144
-128
-192
-304
-256
-112
-16
48
96
96
112
112
160
288
240
96
16
-48
-112
-128
-144
-144
-176
-304
-256
-112
-16
48
96
96
112
112
160
304
256
96
16
-48
-112
-144
-144
-144
-176
-304
-272
-112
-32
48
96
96
112
112
160
288
256
96
16
-48
-112
-128
-144
-144
-176
-288
-272
-112
-32
48
96
96
112
112
160
288
256
96
16
-48
-112
-128
-144
-128
-160
-288
-272
-128
-32
48
96
96
112
112
144
272
256
112
16
-48
-112
-128
-144
-144
-176
-288
-272
-128
-32
32
96
96
112
112
144
272
272
112
32
-32
-112
-128
-144
-144
-176
-288
-288
-128
-32
32
96
96
112
128
144
272
272
112
32
-32
-112
-144
-144
-144
-176
-288
-288
-128
-48
32
96
96
112
112
144
256
272
112
16
-48
-112
-144
-144
-144
-160
-272
-288
-128
-48
32
80
96
96
112
128
256
272
112
32
-32
-96
-128
-144
-144
-160
-272
-304
-144
-48
32
80
96
112
112
144
256
288
128
32
-32
-96
-144
-144
-144
-160
-272
-304
-144
-48
32
80
96
96
112
144
256
288
128
32
-32
-96
-128
-144
-144
-160
-272
-304
-144
-48
32
80
96
112
112
128
240
288
128
32
-32
-96
-128
-144
-144
-160
-256
-304
-144
-48
32
80
96
112
112
128
240
304
144
48
-32
-96
-128
-144
-144
-160
-256
-304
-160
-48
32
80
96
112
112
128
240
304
160
48
-16
-96
-128
-144
-144
-160
-256
-304
-160
-48
32
80
96
112
112
128
240
304
144
48
-16
-80
-128
-128
-144
-144
-240
-304
-160
-48
32
80
96
96
112
128
224
304
144
48
-16
-80
-128
-144
-144
-144
-240
-304
-160
-64
16
64
96
96
112
128
224
304
160
48
-16
-80
-128
-144
-144
-144
-240
-320
-176
-64
16
80
96
96
112
128
224
304
160
48
-16
-80
-144
-144
-144
-144
-240
-320
-176
-64
16
80
96
96
112
128
224
304
160
64
-16
-80
-128
-128
-144
-144
-224
-320
-176
-64
16
64
96
96
112
128
208
304
176
64
-16
-80
-128
-128
-144
-144
-224
-320
-192
-80
16
64
96
96
112
128
208
320
176
64
-16
-80
-128
-128
-144
-144
-224
-320
-192
-80
0
64
96
96
112
128
208
304
176
64
-16
-80
-128
-128
-144
-144
-224
-320
-192
-80
16
64
96
96
112
128
208
320
192
64
0
-64
-128
-128
-128
-128
-208
-304
-192
-64
16
80
112
112
128
128
208
320
192
80
0
-64
-128
-128
-128
-128
-208
-304
-192
-64
16
64
112
96
112
128
208
320
208
80
0
-64
-128
-128
-144
-128
-208
-304
-192
-80
16
64
112
96
112
128
192
304
208
80
16
-64
-128
-128
-144
-128
-208
-304
-208
-80
0
64
96
112
112
112
176
304
208
80
0
-64
-128
-128
-144
-144
-208
-304
-224
-80
0
48
96
96
112
112
176
304
208
80
0
-64
-128
-128
-144
-144
-208
-320
-224
-80
0
64
96
96
112
112
176
304
224
80
0
-48
-128
-128
-144
-144
-208
-320
-224
-96
0
48
96
96
112
112
176
304
224
80
0
-64
-128
-128
-144
-128
-192
-304
-240
-96
0
48
96
96
112
112
176
304
224
80
0
-48
-112
-128
-144
-128
-192
-304
-240
-96
-16
48
96
96
112
128
176
304
240
96
16
-48
-112
-128
-128
-128
-176
-304
-256
-112
-16
48
96
96
112
112
160
304
240
96
16
-48
-112
-128
-128
-128
-176
-304
-256
-96
-16
48
96
112
112
112
176
288
256
96
16
-48
-112
-128
-144
-128
-176
-288
-256
-112
-16
48
96
112
112
112
160
288
256
112
16
-48
-112
-128
-144
-128
-176
-288
-256
-112
-16
48
96
112
112
112
160
288
272
112
16
-32
-112
-128
-144
-128
-176
-288
-272
-112
-16
48
96
112
112
112
160
288
272
112
32
-32
-112
-128
-144
-128
-160
-288
-272
-112
-32
48
96
96
112
112
144
272
272
112
32
-32
-96
-128
-144
-128
-160
-288
-272
-112
-32
48
96
96
112
112
144
272
272
112
32
-32
-96
-128
-144
-128
-160
-272
-272
-112
-32
48
96
96
112
112
144
272
272
112
32
-32
-112
-128
-128
-128
-160
-272
-288
-112
-32
48
96
96
112
112
144
272
288
128
32
-32
-96
-128
-144
-128
-160
-272
-288
-128
-32
32
96
96
112
112
144
272
288
128
32
-32
-96
-128
-144
-128
-160
-272
-288
-128
-48
32
80
96
112
112
144
256
288
128
32
-32
-96
-128
-144
-144
-160
-272
-304
-144
-48
32
80
96
96
112
128
240
288
128
32
-32
-96
-128
-144
-144
-160
-256
-304
-144
-48
32
80
96
112
112
128
240
288
128
32
-32
-96
-144
-144
-144
-144
-256
-304
-144
-48
32
80
96
112
112
128
240
288
128
48
-32
-96
-128
-144
-144
-160
-256
-304
-144
-48
32
80
96
112
112
128
240
304
144
48
-32
-96
-128
-128
-144
-144
-256
-304
-144
-48
32
80
96
112
128
128
240
304
144
48
-16
-80
-128
-128
-144
-144
-240
-304
-160
-64
16
64
96
96
112
128
224
304
144
48
-16
-80
-128
-128
-144
-144
-240
-320
-176
-64
16
80
96
96
112
128
224
304
144
48
-16
-80
-128
-128
-144
-144
-240
-304
-160
-64
16
80
96
96
112
128
224
304
160
48
-16
-80
-128
-128
-144
-144
-240
-320
-176
-64
16
80
96
96
112
128
224
304
160
64
-16
-80
-128
-144
-144
-144
-224
-320
-176
-64
16
64
96
96
112
112
208
304
160
64
-16
-80
-128
-144
-144
-144
-224
-320
-192
-80
0
64
96
96
112
112
208
304
176
64
-16
-80
-128
-128
-144
-144
-224
-320
-192
-80
0
64
96
96
112
112
208
304
176
64
0
-80
-128
-128
-144
-144
-224
-320
-192
-80
0
64
96
96
112
112
192
304
176
64
-16
-64
-128
-144
-144
-144
-224
-320
-208
-80
0
64
96
96
112
112
192
304
192
64
-16
-64
-128
-128
-144
-144
-208
-304
-192
-80
0
64
96
96
112
112
192
304
192
64
-16
-64
-128
-128
-144
-144
-208
-320
-208
-80
0
64
96
96
112
112
192
304
192
64
0
-64
-128
-128
-144
-144
-208
-320
-208
-80
0
48
96
96
112
128
192
304
208
64
0
-64
-128
-128
-144
-144
-208
-320
-224
-80
0
64
96
96
112
112
176
304
208
80
0
-64
-128
-128
-144
-144
-208
-320
-224
-96
0
64
96
96
112
112
176
304
224
80
0
-64
-128
-128
-128
-128
-192
-320
-240
-96
-16
48
96
96
112
112
176
288
224
80
0
-48
-128
-128
-144
-144
-192
-304
-240
-96
-16
48
96
96
112
112
176
288
224
80
0
-64
-128
-144
-144
-144
-192
-320
-256
-112
-16
64
112
96
112
112
160
288
224
80
0
-48
-128
-144
-144
-144
-192
-304
-256
-112
-16
48
96
96
112
112
160
288
240
80
16
-48
-128
-128
-144
-144
-192
-304
-256
-112
-16
48
96
96
112
112
160
288
240
96
16
-48
-112
-128
-144
-144
-192
-304
-272
-112
-32
32
96
96
112
112
160
288
256
96
16
-48
-112
-128
-144
-144
-176
-304
-272
-112
-32
48
96
96
112
112
160
288
256
96
16
-48
-112
-128
-144
-128
-176
-288
-256
-112
-32
48
80
96
112
112
144
272
256
112
16
-48
-112
-128
-144
-128
-176
-288
-272
-128
-32
32
96
96
112
112
144
272
272
112
32
-32
-112
-128
-144
-128
-160
-288
-272
-112
-32
48
96
96
112
112
160
288
272
112
32
-32
-112
-128
-144
-128
-160
-272
-272
-128
-32
32
80
96
112
112
144
272
272
112
32
-32
-96
-128
-144
-128
-160
-272
-288
-128
-32
48
80
96
112
112
144
272
272
112
32
-32
-96
-128
-128
-128
-160
-272
-288
-128
-48
32
80
96
112
112
144
256
288
128
32
-32
-96
-128
-144
-128
-160
-272
-288
-128
-48
32
80
96
112
112
144
256
288
128
32
-32
-96
-128
-144
-144
-160
-272
-304
-144
-48
32
80
112
112
112
144
256
288
128
48
-32
-96
-128
-128
-128
-160
-256
-304
-144
-48
32
80
96
112
112
144
256
288
128
48
-32
-96
-128
-128
-128
-160
-256
-304
-144
-48
32
80
96
112
112
144
240
304
144
48
-16
-80
-128
-128
-144
-144
-256
-304
-144
-48
32
96
96
112
112
144
240
304
144
48
-16
-80
-128
-128
-128
-144
-240
-304
-144
-48
32
80
96
112
112
128
240
304
144
48
-16
-80
-128
-128
-144
-144
-240
-304
-144
-48
16
80
96
96
112
128
224
304
144
48
-16
-80
-128
-128
-144
-144
-240
-304
-160
-64
32
80
96
96
112
128
224
304
160
48
-16
-80
-128
-128
-128
-144
-240
-304
-160
-64
32
80
112
112
112
128
224
320
160
64
-16
-80
-128
-128
-128
-144
-224
-304
-160
-64
16
80
96
96
112
128
224
304
160
64
-16
-80
-128
-128
-144
-144
-224
-320
-176
-64
16
80
96
112
112
128
208
304
160
64
-16
-80
-128
-128
-144
-144
-224
-304
-176
-80
16
64
96
96
112
128
208
304
176
64
-16
-80
-128
-128
-144
-144
-224
-320
-192
-80
16
64
96
96
112
128
208
304
176
64
0
-64
-128
-128
-144
-144
-224
-320
-192
-80
16
64
96
96
112
128
208
304
176
64
0
-64
-128
-128
-144
-144
-224
-320
-208
-80
0
64
96
96
112
112
192
304
176
64
-16
-80
-128
-144
-144
-144
-208
-320
-208
-80
0
64
96
96
112
112
192
304
192
64
0
-64
-112
-128
-144
-144
-208
-320
-208
-80
0
64
96
96
112
112
192
304
192
80
0
-64
-128
-128
-144
-144
-208
-320
-224
-96
0
64
96
96
112
112
176
304
192
80
0
-64
-128
-144
-144
-144
-208
-320
-224
-96
0
64
96
96
112
112
176
304
208
80
0
-64
-128
-144
-144
-144
-208
-320
-224
-96
-16
48
96
96
112
112
176
288
208
80
0
-64
-128
-144
-144
-144
-192
-320
-224
-96
-16
48
96
96
112
112
176
304
224
96
16
-64
-128
-144
-144
-144
-192
-320
-240
-96
-16
48
96
96
112
112
160
288
224
80
0
-64
-128
-128
-144
-144
-192
-320
-240
-112
-16
48
96
96
112
112
160
288
224
80
0
-64
-128
-144
-160
-144
-192
-304
-256
-112
-32
32
80
80
96
96
160
288
224
80
0
-64
-128
-144
-160
-144
-192
-320
-272
-128
-32
32
80
80
96
96
144
272
224
80
0
-64
-128
-144
-160
-144
-192
-320
-272
-128
-32
32
80
80
96
112
160
288
240
80
0
-64
-128
-144
-160
-144
-192
-304
-272
-128
-32
32
80
80
96
96
144
272
240
80
0
-48
-128
-144
-144
-144
-192
-304
-272
-128
-32
32
80
96
112
112
144
272
256
96
16
-48
-128
-144
-144
-144
-176
-304
-288
-128
-48
32
80
80
96
112
144
272
256
96
16
-48
-112
-144
-144
-144
-176
-304
-288
-128
-48
32
80
96
96
112
144
272
256
96
16
-48
-112
-144
-144
-144
-176
-288
-288
-128
-48
32
80
96
96
96
128
256
256
96
16
-48
-112
-144
-160
-144
-176
-288
-288
-128
-48
16
80
80
96
96
128
256
272
96
16
-48
-112
-144
-160
-160
-176
-288
-304
-144
-48
16
80
80
96
96
128
256
272
112
32
-32
-112
-144
-160
-144
-176
-288
-304
-144
-64
16
80
80
96
112
128
256
272
112
32
-48
-112
-144
-144
-144
-176
-272
-320
-160
-64
16
80
80
96
112
128
240
288
112
32
-48
-112
-144
-144
-144
-176
-272
-320
-144
-64
16
64
96
96
112
128
240
288
128
32
-32
-96
-144
-144
-144
-160
-272
-320
-160
-64
16
80
96
96
112
128
240
288
128
32
-32
-96
-144
-144
-144
-160
-272
-320
-160
-64
16
80
96
96
112
128
240
304
128
48
-32
-96
-144
-144
-144
-160
-256
-320
-160
-64
16
64
96
96
112
128
224
288
128
48
-32
-96
-144
-144
-144
-160
-256
-320
-160
-64
16
64
96
96
112
128
224
288
144
48
-32
-96
-144
-144
-144
-144
-240
-320
-176
-64
16
64
96
96
112
112
224
304
144
48
-32
-96
-144
-144
-144
-160
-256
-320
-176
-80
16
80
96
96
112
112
224
304
144
48
-32
-96
-144
-144
-144
-160
-240
-320
-176
-80
16
64
96
96
112
112
208
304
160
48
-16
-96
-144
-144
-144
-160
-240
-320
-176
-80
16
64
96
96
112
112
208
304
160
64
-16
-80
-128
-144
-144
-144
-240
-320
-192
-80
0
64
96
96
112
112
208
304
160
64
-16
-64
-128
-144
-144
-144
-224
-320
-192
-80
0
64
96
96
112
112
208
304
176
64
-16
-80
-128
-144
-144
-144
-224
-320
-192
-80
0
64
96
96
112
112
192
304
176
64
-16
-80
-128
-144
-144
-144
-224
-320
-208
-80
16
64
96
96
112
112
192
304
176
64
-16
-80
-128
-144
-144
-144
-224
-320
-208
-96
0
64
96
96
112
112
192
304
192
64
-16
-80
-128
-144
-144
-144
-224
-320
-224
-96
0
48
96
96
112
112
176
304
208
80
0
-64
-128
-144
-144
-144
-208
-320
-224
-96
0
64
96
96
112
112
176
304
192
64
0
-64
-128
-144
-144
-144
-208
-320
-224
-96
-16
48
96
96
112
112
176
304
208
80
0
-64
-128
-144
-144
-144
-192
-320
-224
-96
-16
48
96
96
112
112
176
288
208
80
0
-64
-128
-144
-144
-144
-208
-320
-240
-96
-16
48
96
96
112
112
176
288
224
80
0
-64
-128
-144
-144
-144
-208
-320
-240
-96
-16
48
96
96
128
128
176
288
224
80
0
-64
-128
-128
-144
-144
-192
-304
-240
-96
-16
48
96
96
112
112
160
288
224
80
16
-48
-128
-128
-144
-144
-192
-304
-240
-96
-16
48
96
96
112
112
160
288
240
80
16
-48
-112
-128
-144
-144
-192
-304
-256
-96
-16
48
96
96
112
112
160
288
240
80
16
-48
-128
-144
-144
-144
-192
-304
-256
-112
-32
48
96
96
112
112
160
288
240
96
16
-48
-128
-144
-144
-144
-176
-304
-272
-112
-32
48
96
96
112
112
144
272
256
96
16
-48
-112
-128
-144
-144
-176
-304
-272
-128
-32
32
80
96
112
112
144
272
256
96
16
-48
-112
-144
-144
-144
-176
-304
-272
-128
-32
32
96
96
112
112
144
272
256
112
32
-48
-112
-144
-144
-144
-176
-288
-272
-128
-32
32
80
96
112
112
144
272
256
96
16
-48
-112
-128
-144
-144
-176
-288
-288
-128
-32
32
80
96
112
112
144
256
256
112
16
-48
-112
-144
-144
-144
-176
-288
-288
-128
-48
32
80
96
112
112
144
256
272
112
32
-32
-112
-128
-144
-144
-160
-272
-288
-128
-48
32
80
96
96
112
144
256
272
112
32
-32
-112
-128
-144
-144
-160
-272
-288
-128
-48
32
80
80
96
112
144
256
288
128
32
-32
-96
-128
-144
-144
-160
-272
-304
-144
-48
32
80
96
96
112
128
256
288
128
48
-32
-96
-128
-144
-144
-160
-272
-304
-144
-48
32
80
96
96
112
128
240
288
128
48
-32
-96
-128
-128
-128
-160
-256
-304
-144
-48
32
80
96
96
112
128
240
288
128
48
-32
-96
-128
-144
-144
-160
-256
-304
-160
-64
16
80
96
96
112
128
240
288
128
48
-32
-96
-128
-144
-144
-160
-256
-320
-160
-64
16
80
96
112
112
128
224
288
144
48
-32
-96
-128
-144
-144
-160
-256
-320
-160
-64
16
64
96
96
112
128
224
288
144
48
-16
-96
-128
-144
-144
-160
-240
-320
-160
-64
16
64
96
96
112
128
224
304
144
64
-16
-80
-128
-128
-144
-144
-240
-320
-160
-80
16
64
80
96
112
128
224
304
144
48
-16
-80
-128
-144
-144
-160
-240
-320
-176
-80
16
64
96
96
112
112
208
304
160
64
-16
-80
-128
-144
-144
-144
-240
-320
-176
-64
16
64
96
96
112
112
208
304
160
64
-16
-80
-128
-128
-144
-144
-224
-320
-176
-80
16
64
96
80
112
112
208
304
160
64
-16
-80
-128
-144
-144
-144
-224
-320
-192
-80
0
64
96
96
112
112
208
320
176
64
0
-80
-128
-144
-144
-144
-224
-320
-192
-80
0
64
96
96
112
112
192
304
176
64
-16
-64
-128
-128
-144
-144
-208
-320
-192
-80
0
64
96
96
112
112
192
304
176
64
0
-64
-128
-128
-144
-128
-208
-320
-192
-80
0
48
96
96
112
112
192
304
192
80
0
-64
-128
-128
-144
-144
-208
-320
-208
-96
0
64
96
96
112
112
192
304
192
80
0
-64
-128
-128
-144
-144
-208
-320
-208
-96
0
64
96
96
112
112
192
304
208
80
0
-64
-128
-128
-144
-128
-192
-320
-208
-96
0
64
96
96
112
112
176
304
208
80
0
-64
-128
-128
-144
-144
-208
-320
-224
-96
-16
48
96
96
112
112
176
304
208
80
0
-48
-112
-128
-144
-144
-192
-304
-224
-96
-16
48
96
96
112
112
176
304
208
80
0
-64
-128
-128
-144
-128
-192
-304
-224
-96
-16
48
96
96
112
112
176
288
224
80
16
-48
-112
-128
-144
-128
-192
-304
-240
-96
0
48
80
80
112
112
160
288
224
80
0
-64
-128
-144
-144
-144
-192
-304
-256
-112
-16
48
96
96
112
112
160
288
240
96
16
-64
-128
-144
-144
-144
-192
-304
-256
-112
-16
48
80
96
112
112
160
288
240
96
16
-48
-112
-128
-144
-144
-192
-304
-256
-112
-16
48
96
96
112
112
144
288
240
96
16
-48
-112
-128
-144
-144
-176
-304
-256
-112
-32
48
80
96
112
112
144
288
240
96
16
-48
-112
-128
-144
-144
-176
-288
-272
-128
-32
48
96
96
112
112
144
272
256
96
16
-48
-112
-128
-144
-144
-176
-304
-272
-128
-32
32
96
96
112
112
144
272
256
96
16
-48
-112
-128
-144
-128
-176
-288
-272
-128
-48
32
80
96
112
112
144
272
256
112
32
-48
-112
-128
-144
-144
-176
-288
-288
-128
-48
32
80
96
96
112
144
272
272
112
32
-32
-112
-128
-144
-144
-176
-288
-288
-128
-48
32
80
96
112
112
144
272
272
112
32
-32
-96
-112
-128
-128
-160
-272
-288
-128
-48
32
80
96
112
112
128
256
272
112
32
-32
-96
-128
-144
-144
-160
-288
-304
-144
-48
32
80
80
96
112
128
256
288
112
32
-32
-96
-128
-144
-144
-160
-272
-304
-144
-48
32
80
96
96
112
128
256
288
128
32
-32
-96
-128
-144
-144
-160
-272
-304
-144
-48
32
80
96
112
112
128
240
288
128
48
-32
-96
-128
-144
-144
-160
-272
-304
-144
-64
32
80
96
96
112
128
240
288
144
48
-16
-96
-128
-144
-144
-160
-256
-304
-160
-64
16
80
96
96
112
128
240
288
128
48
-32
-96
-128
-144
-144
-160
-256
-320
-160
-64
16
80
96
96
112
128
224
288
128
48
-32
-96
-128
-144
-144
-160
-256
-304
-160
-64
16
64
96
96
112
112
224
288
144
48
-32
-96
-128
-144
-144
-160
-256
-320
-176
-64
16
64
96
96
112
128
224
304
144
48
-16
-96
-128
-144
-144
-160
-240
-320
-176
-80
16
64
96
96
112
128
224
304
144
48
-16
-80
-128
-144
-144
-144
-240
-320
-176
-80
16
64
96
96
112
112
208
304
160
48
-16
-80
-128
-144
-144
-144
-240
-320
-176
-80
0
64
96
96
112
112
208
304
160
48
-16
-96
-144
-144
-144
-144
-240
-336
-192
-96
0
64
96
96
112
112
208
304
160
64
-16
-80
-128
-144
-144
-144
-224
-320
-192
-80
0
64
96
96
112
112
208
304
176
64
-16
-80
-128
-144
-144
-144
-224
-320
-192
-80
0
64
112
96
112
112
192
304
176
64
-16
-80
-128
-144
-144
-144
-224
-320
-192
-80
0
64
96
96
112
112
192
304
176
64
-16
-80
-128
-144
-144
-144
-224
-320
-208
-96
0
64
96
96
112
112
192
304
176
64
0
-64
-128
-144
-144
-144
-224
-320
-208
-96
0
64
96
96
112
112
176
304
192
64
-16
-80
-128
-144
-144
-144
-224
-320
-224
-96
-16
48
80
80
112
112
176
288
192
64
-16
-80
-128
-144
-144
-144
-208
-320
-224
-96
0
48
80
80
112
112
176
288
192
80
0
-64
-128
-144
-144
-144
-208
-320
-240
-112
-16
48
96
96
112
112
176
288
208
80
0
-64
-128
-144
-144
-144
-208
-320
-240
-112
-16
48
96
80
112
112
176
304
224
80
0
-64
-128
-128
-144
-144
-192
-320
-240
-112
-16
48
80
96
112
112
160
288
224
80
0
-64
-128
-144
-160
-144
-192
-320
-256
-112
-16
48
80
96
112
112
160
288
224
80
0
-64
-128
-144
-144
-128
-176
-304
-256
-112
-16
48
96
96
112
112
160
288
224
96
16
-48
-128
-128
-144
-144
-192
-304
-256
-112
-32
48
96
96
112
112
160
288
240
96
16
-48
-112
-128
-144
-144
-192
-304
-256
-112
-32
48
96
96
112
112
160
288
240
96
16
-48
-128
-144
-144
-144
-192
-304
-272
-128
-32
48
96
112
112
112
160
288
256
96
16
-48
-128
-144
-144
-144
-176
-304
-272
-128
-32
48
96
96
112
112
144
272
256
96
16
-48
-112
-128
-144
-144
-176
-288
-272
-128
-32
48
96
96
112
112
160
272
256
112
32
-48
-112
-128
-144
-144
-176
-288
-272
-128
-32
48
96
96
112
112
144
272
272
112
32
-32
-112
-128
-144
-128
-160
-288
-272
-128
-32
48
96
96
112
112
144
272
272
128
32
-32
-96
-128
-144
-128
-160
-272
-272
-128
-32
32
80
96
112
112
144
272
272
112
32
-32
-96
-128
-128
-128
-160
-272
-288
-128
-48
16
80
96
112
112
144
256
272
128
48
-32
-96
-128
-144
-144
-160
-272
-288
-128
-48
16
64
80
96
112
144
256
272
128
48
-16
-96
-112
-128
-128
-160
-272
-288
-144
-64
16
64
80
96
112
128
256
288
128
48
-16
-80
-112
-128
-128
-160
-256
-288
-144
-64
16
64
80
96
112
128
240
288
128
48
-16
-80
-112
-128
-128
-160
-256
-304
-160
-64
16
64
80
80
96
128
240
288
128
48
-16
-80
-128
-128
-128
-144
-256
-304
-144
-64
16
64
80
96
112
128
240
288
128
48
-16
-80
-128
-128
-128
-144
-256
-304
-160
-64
16
64
80
96
112
128
224
288
144
48
-16
-80
-128
-144
-144
-144
-256
-304
-160
-64
16
64
80
96
112
128
224
288
144
48
-16
-80
-112
-128
-128
-144
-240
-304
-160
-64
16
64
80
96
112
112
224
288
144
48
-16
-80
-128
-128
-144
-144
-240
-304
-176
-80
0
64
80
96
112
112
224
288
144
48
-16
-80
-128
-128
-144
-144
-240
-304
-176
-80
0
64
96
96
112
112
208
288
144
48
-16
-80
-128
-128
-144
-144
-240
-320
-176
-80
0
64
80
96
96
112
208
288
144
48
-16
-80
-128
-144
-144
-144
-240
-320
-176
-80
0
48
80
80
96
112
192
288
160
64
-16
-80
-128
-144
-144
-144
-224
-320
-192
-80
0
48
80
80
96
112
192
288
160
64
-16
-80
-128
-144
-144
-144
-224
-320
-192
-96
0
48
80
80
96
112
192
288
160
64
-16
-80
-128
-144
-144
-144
-224
-304
-176
-80
0
64
80
96
112
112
192
288
176
64
-16
-64
-128
-128
-144
-144
-224
-320
-192
-80
0
48
80
80
96
112
192
288
176
64
-16
-64
-128
-128
-144
-144
-208
-304
-192
-80
0
48
80
96
112
112
192
304
176
64
-16
-64
-128
-128
-144
-144
-208
-304
-208
-96
0
48
80
80
112
112
176
288
176
64
0
-64
-112
-128
-144
-144
-208
-304
-208
-96
0
64
96
80
112
112
176
288
192
64
0
-64
-128
-128
-128
-128
-192
-304
-208
-96
-16
48
80
80
96
96
160
272
192
64
0
-64
-128
-128
-144
-144
-208
-320
-224
-96
-16
48
80
80
96
96
160
288
192
64
0
-64
-128
-128
-144
-128
-192
-304
-224
-96
-16
48
96
96
112
96
160
288
192
64
-16
-80
-128
-144
-144
-144
-192
-304
-224
-96
0
64
96
96
112
96
160
272
208
64
-16
-64
-128
-144
-160
-144
-192
-304
-240
-96
-16
64
96
96
112
112
160
272
208
80
0
-48
-112
-144
-144
-144
-192
-304
-240
-96
-16
48
96
96
112
112
160
272
208
80
0
-64
-128
-144
-144
-144
-176
-304
-240
-112
-16
48
80
80
96
96
144
272
208
80
0
-64
-128
-144
-144
-144
-176
-304
-240
-96
-16
32
80
80
96
96
144
272
224
80
0
-64
-128
-144
-144
-144
-176
-304
-256
-112
-16
48
96
96
112
112
144
272
224
80
0
-64
-128
-144
-144
-144
-176
-304
-256
-112
-32
48
96
112
112
112
144
272
256
96
16
-48
-128
-144
-144
-144
-176
-288
-256
-112
-32
48
96
96
112
112
144
272
240
96
16
-48
-112
-128
-144
-144
-176
-288
-272
-128
-32
32
80
96
112
112
144
256
256
96
16
-48
-112
-128
-144
-128
-160
-272
-272
-128
-32
32
80
96
96
96
128
256
256
112
32
-32
-112
-128
-144
-144
-160
-272
-272
-128
-48
32
80
96
112
112
128
256
256
112
32
-32
-96
-128
-144
-128
-160
-272
-288
-128
-48
32
80
96
112
112
128
256
256
112
32
-32
-96
-128
-144
-128
-160
-272
-288
-144
-48
16
80
80
96
96
128
240
272
112
32
-32
-96
-128
-144
-128
-160
-272
-288
-144
-64
16
64
80
96
96
128
240
272
112
32
-32
-96
-112
-128
-128
-160
-256
-288
-144
-48
16
64
80
96
96
128
240
272
112
32
-32
-96
-128
-128
-128
-144
-256
-288
-144
-48
16
80
80
96
96
128
240
272
128
48
-16
-80
-128
-128
-128
-144
-256
-288
-144
-64
16
64
80
96
112
128
224
272
128
48
-16
-80
-112
-128
-128
-144
-240
-288
-144
-64
16
80
80
96
112
128
224
288
144
48
-16
-80
-112
-128
-128
-144
-240
-288
-144
-64
16
64
80
96
112
128
224
288
144
64
-16
-80
-112
-128
-128
-144
-240
-304
-160
-64
16
64
80
96
112
128
224
288
144
64
-16
-64
-112
-128
-128
-144
-224
-304
-160
-64
16
64
80
96
112
128
224
288
144
64
-16
-80
-112
-128
-128
-144
-224
-288
-160
-80
16
64
80
96
112
112
208
288
160
64
-16
-80
-112
-128
-128
-144
-224
-304
-176
-80
0
64
80
80
96
112
208
304
160
64
0
-64
-112
-128
-128
-128
-224
-304
-176
-80
0
64
96
96
112
128
224
304
160
64
0
-64
-112
-128
-128
-128
-224
-304
-176
-80
16
64
96
96
112
112
208
304
176
64
0
-64
-112
-128
-128
-128
-208
-304
-176
-80
0
64
96
96
112
112
208
304
176
64
0
-64
-112
-112
-112
-128
-208
-304
-176
-64
16
64
96
96
112
112
192
304
176
80
0
-64
-112
-112
-128
-128
-208
-304
-176
-80
0
48
80
96
112
112
192
288
176
64
0
-48
-112
-128
-128
-128
-208
-288
-176
-80
16
64
96
96
112
112
192
288
176
64
0
-64
-112
-128
-128
-128
-192
-304
-192
-80
0
48
80
80
96
112
176
288
176
64
0
-64
-112
-128
-128
-128
-192
-304
-192
-80
0
48
80
80
96
112
176
288
192
80
16
-48
-112
-128
-128
-128
-192
-304
-208
-96
-16
48
80
80
96
96
160
288
192
64
0
-64
-112
-128
-128
-128
-192
-304
-208
-96
-16
48
80
80
96
96
160
272
192
64
0
-64
-112
-128
-128
-128
-192
-288
-208
-80
-16
48
80
80
96
96
160
288
192
80
0
-48
-112
-128
-128
-128
-176
-288
-224
-96
-16
48
80
96
112
112
160
288
208
80
16
-48
-112
-128
-128
-128
-176
-288
-224
-96
-16
48
80
96
112
112
160
288
208
80
16
-48
-112
-128
-128
-128
-176
-288
-224
-96
-16
48
80
96
96
96
160
272
224
80
16
-48
-96
-112
-128
-128
-176
-288
-224
-96
-16
48
80
80
96
112
160
288
224
96
16
-48
-96
-112
-128
-112
-160
-288
-240
-96
-16
48
80
80
96
96
144
272
224
96
16
-48
-112
-128
-128
-128
-176
-288
-240
-96
-16
48
80
80
96
96
144
272
224
80
16
-48
-96
-112
-128
-128
-160
-272
-240
-96
-16
48
96
96
96
112
144
272
240
96
16
-32
-96
-112
-128
-128
-160
-272
-240
-112
-32
32
80
96
112
112
144
272
240
96
16
-32
-96
-112
-128
-128
-160
-272
-240
-112
-16
32
80
96
96
112
144
256
240
96
16
-32
-96
-112
-128
-128
-160
-272
-256
-112
-32
32
80
96
96
96
128
256
240
96
32
-32
-96
-112
-128
-128
-144
-256
-256
-112
-32
32
80
96
96
96
144
256
240
96
32
-32
-96
-112
-128
-128
-160
-256
-256
-96
-16
48
80
96
112
112
128
256
256
112
32
-32
-96
-112
-128
-112
-144
-256
-256
-112
-32
32
80
96
96
112
128
256
256
112
32
-32
-80
-112
-112
-112
-144
-240
-256
-112
-32
32
80
96
96
96
128
256
272
128
32
-32
-96
-112
-128
-112
-144
-240
-256
-112
-32
32
80
96
96
112
128
240
256
112
32
-32
-80
-112
-128
-128
-144
-240
-272
-128
-32
32
80
96
96
112
128
240
256
112
32
-32
-80
-128
-128
-112
-128
-224
-272
-128
-48
32
80
96
112
112
128
240
272
128
48
-16
-80
-112
-128
-128
-144
-240
-272
-128
-32
32
80
96
96
112
128
224
272
128
48
-16
-80
-112
-128
-128
-144
-240
-272
-128
-48
32
80
96
96
112
128
224
272
128
48
-16
-80
-112
-128
-128
-128
-224
-272
-128
-48
32
80
96
96
112
128
224
272
128
48
-32
-80
-112
-128
-128
-128
-224
-288
-144
-48
32
80
96
96
112
112
224
272
128
48
-16
-80
-112
-112
-128
-128
-224
-288
-144
-48
32
64
96
96
96
112
208
288
144
48
-16
-80
-112
-128
-128
-128
-224
-288
-144
-48
32
64
96
96
112
112
208
288
144
48
-16
-80
-112
-128
-128
-128
-208
-288
-144
-48
32
80
96
96
112
112
208
288
144
48
-16
-64
-112
-128
-128
-128
-208
-288
-144
-48
32
80
96
96
112
112
192
272
144
48
-16
-80
-128
-128
-128
-128
-208
-288
-160
-64
16
64
96
80
96
112
192
288
160
64
-16
-80
-128
-128
-144
-144
-208
-288
-160
-64
0
64
80
80
96
112
192
272
144
48
-16
-80
-128
-144
-144
-144
-208
-304
-176
-80
0
64
96
80
96
96
176
272
160
48
-16
-80
-128
-128
-144
-128
-208
-288
-176
-80
0
48
96
96
96
112
176
288
160
64
-16
-64
-128
-128
-128
-128
-208
-304
-192
-80
0
64
96
96
96
112
176
288
176
64
-16
-64
-128
-128
-144
-128
-208
-304
-192
-80
0
64
96
96
112
112
192
288
176
64
-16
-80
-128
-128
-128
-128
-192
-304
-192
-80
16
64
96
96
112
112
176
288
176
64
-16
-80
-128
-144
-144
-128
-192
-304
-192
-80
0
64
96
96
112
112
176
288
176
64
-16
-80
-128
-128
-144
-128
-192
-288
-192
-80
16
64
112
112
112
112
176
288
176
48
-16
-80
-128
-144
-144
-128
-192
-288
-192
-64
16
64
96
96
112
112
160
272
176
64
-16
-80
-128
-144
-144
-128
-192
-288
-192
-64
16
64
112
96
112
112
160
272
192
64
-16
-64
-128
-128
-128
-128
-176
-288
-208
-80
16
64
96
96
112
112
160
272
208
64
-16
-64
-128
-128
-144
-128
-176
-288
-208
-80
0
48
96
80
96
96
144
272
208
80
0
-48
-112
-128
-128
-128
-160
-288
-224
-80
0
64
96
96
96
96
144
272
208
64
0
-64
-128
-128
-144
-128
-176
-288
-224
-96
0
48
96
96
112
112
144
272
208
80
0
-48
-112
-128
-144
-128
-160
-272
-224
-80
0
64
96
96
112
112
144
272
224
80
0
-48
-112
-128
-128
-128
-160
-272
-240
-96
0
64
96
96
112
112
144
272
224
80
0
-48
-112
-128
-128
-128
-160
-272
-240
-96
-16
48
96
96
112
112
144
272
240
80
16
-48
-112
-128
-128
-128
-160
-272
-240
-96
-16
48
96
96
112
112
144
256
240
96
16
-48
-112
-128
-128
-128
-160
-256
-240
-96
-16
48
80
96
96
96
128
256
240
96
16
-48
-96
-128
-128
-112
-144
-256
-240
-96
-16
48
80
96
96
96
144
256
240
96
16
-32
-96
-112
-128
-128
-144
-256
-256
-112
-32
48
96
96
96
96
128
240
240
96
16
-32
-96
-112
-128
-128
-144
-256
-256
-112
-32
32
80
96
96
96
128
240
240
96
16
-32
-96
-128
-128
-128
-144
-256
-256
-112
-32
32
80
96
96
96
128
240
240
96
32
-32
-96
-112
-128
-112
-144
-240
-256
-112
-32
32
80
80
96
96
128
224
256
112
32
-16
-80
-112
-128
-112
-144
-240
-272
-128
-32
32
80
96
96
96
128
224
256
112
32
-32
-96
-128
-128
-128
-144
-240
-272
-128
-32
32
80
96
96
96
128
224
256
112
32
-32
-96
-112
-128
-128
-144
-240
-272
-128
-32
32
80
96
96
96
112
224
256
112
32
-32
-80
-112
-128
-128
-144
-240
-272
-128
-48
16
64
96
96
96
112
224
272
112
32
-32
-80
-112
-128
-128
-144
-240
-288
-128
-48
32
80
96
96
96
112
224
272
128
32
-32
-96
-128
-128
-128
-144
-224
-288
-144
-48
32
80
96
96
96
112
208
272
128
32
-32
-80
-128
-128
-128
-144
-224
-288
-144
-48
32
80
96
96
96
112
208
272
128
32
-32
-80
-128
-128
-128
-128
-208
-272
-144
-48
16
80
96
96
96
112
208
272
128
48
-16
-80
-128
-128
-128
-128
-224
-288
-144
-48
16
64
96
96
112
112
208
272
144
48
-16
-80
-128
-128
-128
-144
-224
-288
-144
-48
16
64
96
96
112
112
192
272
144
48
-16
-80
-112
-128
-128
-128
-208
-288
-144
-48
16
64
96
80
96
112
192
272
144
48
-16
-80
-112
-128
-128
-128
-208
-288
-160
-64
16
64
96
96
112
112
192
272
144
48
-16
-64
-112
-112
-128
-128
-208
-288
-160
-64
16
64
96
96
112
112
192
272
144
48
-16
-80
-128
-128
-128
-128
-208
-288
-176
-64
16
64
96
80
96
112
176
272
160
48
-16
-80
-128
-128
-128
-128
-192
-288
-176
-64
16
64
96
96
96
96
176
272
160
48
-16
-64
-128
-128
-128
-128
-192
-288
-176
-64
16
64
96
96
112
96
176
272
160
64
-16
-64
-128
-128
-128
-128
-192
-288
-176
-80
0
64
96
96
96
112
176
272
160
64
0
-64
-112
-128
-128
-112
-192
-288
-176
-80
0
48
96
96
112
112
176
272
176
64
0
-64
-112
-128
-128
-128
-192
-288
-192
-80
0
48
96
96
112
112
176
272
176
64
0
-48
-112
-112
-128
-128
-176
-288
-192
-80
0
64
96
96
112
112
176
288
192
64
0
-48
-112
-112
-128
-128
-176
-288
-192
-80
0
48
96
80
96
96
160
272
192
80
0
-48
-112
-112
-128
-112
-176
-272
-192
-80
0
48
96
96
96
96
160
272
192
80
0
-48
-112
-112
-128
-112
-176
-272
-208
-80
0
48
96
96
96
96
160
272
208
80
0
-48
-112
-128
-128
-128
-176
-272
-208
-96
0
48
96
96
112
112
160
272
208
80
16
-48
-112
-112
-128
-112
-160
-272
-208
-96
-16
48
96
96
96
96
144
272
224
96
16
-48
-96
-112
-128
-112
-160
-272
-224
-96
-16
48
96
96
96
96
144
256
208
80
16
-48
-112
-112
-128
-112
-160
-272
-224
-96
-16
48
80
96
96
96
144
256
208
80
16
-48
-112
-112
-128
-112
-144
-256
-224
-96
-16
48
80
96
96
96
144
256
224
80
16
-48
-96
-112
-128
-112
-160
-272
-224
-96
-16
48
80
96
96
96
144
256
224
80
16
-48
-96
-112
-128
-112
-160
-256
-240
-96
-16
48
96
96
96
112
144
256
224
96
16
-48
-96
-128
-128
-112
-160
-256
-240
-96
-16
32
80
80
96
96
128
240
224
80
16
-48
-96
-128
-128
-128
-160
-256
-240
-112
-32
32
80
80
96
96
128
240
224
96
16
-32
-96
-112
-112
-112
-144
-256
-240
-112
-32
32
80
80
96
96
128
240
240
96
16
-32
-96
-112
-128
-128
-144
-256
-256
-112
-32
32
80
80
96
96
128
240
240
96
16
-32
-96
-112
-128
-112
-144
-256
-256
-112
-32
32
80
96
96
96
128
240
240
96
32
-32
-96
-112
-128
-128
-144
-240
-256
-112
-32
32
64
80
96
96
128
224
240
96
32
-32
-96
-112
-128
-128
-144
-240
-256
-112
-32
32
64
80
80
96
112
224
240
112
32
-16
-96
-112
-128
-128
-144
-240
-256
-128
-48
16
64
80
96
96
112
224
256
112
32
-32
-96
-112
-128
-128
-144
-240
-272
-128
-48
16
64
80
80
96
112
224
256
112
32
-32
-80
-112
-128
-128
-144
-240
-256
-128
-48
16
64
80
80
96
112
224
256
112
32
-16
-80
-112
-128
-128
-144
-240
-272
-128
-48
16
64
80
96
96
112
224
256
112
32
-16
-80
-112
-128
-128
-144
-240
-272
-144
-64
16
64
80
96
96
128
224
272
128
48
-16
-80
-112
-128
-128
-128
-224
-288
-144
-48
16
64
80
96
96
112
208
272
128
32
-16
-80
-112
-128
-128
-128
-224
-288
-144
-48
16
64
80
80
96
112
208
272
128
48
-16
-80
-128
-128
-112
-128
-208
-272
-144
-48
16
64
80
96
96
112
208
272
128
48
-16
-80
-112
-128
-128
-128
-208
-288
-144
-48
16
64
96
96
96
112
192
272
144
48
-16
-80
-112
-128
-128
-128
-208
-288
-144
-64
16
64
96
96
112
112
192
272
144
48
-16
-64
-112
-112
-128
-128
-208
-288
-160
-64
16
64
80
96
96
112
192
272
144
48
-16
-64
-112
-128
-128
-128
-208
-288
-160
-64
16
48
80
96
96
112
192
272
144
48
0
-48
-112
-112
-128
-128
-208
-288
-160
-64
16
64
80
96
96
96
176
272
144
48
-16
-64
-112
-128
-128
-128
-192
-288
-160
-64
0
48
80
80
96
96
176
272
160
48
-16
-64
-112
-128
-128
-128
-192
-288
-160
-64
16
48
80
80
96
112
176
272
160
48
-16
-64
-112
-112
-128
-128
-192
-288
-176
-80
0
48
80
80
96
96
176
272
160
64
0
-64
-112
-112
-128
-128
-192
-288
-176
-80
0
48
80
80
96
112
176
288
176
64
0
-48
-112
-112
-128
-112
-192
-288
-176
-80
0
48
80
96
96
96
176
272
176
64
0
-48
-112
-112
-128
-112
-176
-288
-192
-80
0
48
80
96
96
112
176
272
176
64
0
-48
-112
-112
-128
-112
-176
-272
-192
-80
0
48
80
80
96
96
160
272
192
80
0
-48
-112
-112
-128
-112
-176
-288
-192
-80
0
48
80
80
112
112
160
272
192
80
16
-48
-96
-112
-128
-128
-176
-288
-208
-96
-16
48
80
80
96
112
160
272
192
80
0
-48
-96
-112
-128
-112
-176
-272
-208
-96
-16
48
80
80
96
96
160
272
192
80
16
-48
-96
-112
-128
-112
-160
-272
-208
-96
-16
32
80
80
96
96
160
272
208
80
16
-48
-96
-112
-128
-112
-176
-272
-224
-96
-16
48
80
80
96
96
144
272
208
80
16
-32
-96
-112
-128
-112
-160
-272
-224
-96
-16
48
80
80
96
96
144
272
208
80
16
-32
-96
-112
-112
-112
-160
-272
-224
-96
-16
48
80
96
96
96
144
256
208
80
16
-32
-96
-112
-128
-112
-160
-272
-224
-96
-16
48
80
96
112
96
144
256
224
80
16
-32
-96
-112
-128
-112
-160
-272
-224
-96
-16
32
80
80
96
96
128
256
224
96
16
-32
-96
-112
-128
-128
-160
-272
-240
-112
-32
32
80
80
96
96
128
240
224
80
16
-32
-96
-112
-128
-112
-144
-256
-240
-96
-32
32
80
80
96
96
128
240
224
80
16
-32
-96
-112
-128
-112
-144
-256
-240
-112
-32
32
80
80
96
96
128
240
224
96
16
-32
-96
-112
-128
-112
-144
-256
-240
-112
-32
32
64
80
96
96
128
240
224
80
16
-48
-96
-128
-128
-112
-144
-240
-240
-96
-16
32
80
80
96
96
128
240
224
96
16
-48
-96
-128
-128
-112
-144
-256
-256
-112
-32
32
80
80
96
96
112
224
224
96
16
-48
-96
-128
-128
-112
-144
-240
-240
-112
-32
32
80
80
96
96
112
224
240
96
16
-48
-96
-112
-112
-112
-144
-240
-256
-112
-32
32
80
80
96
96
112
224
240
96
16
-32
-96
-128
-128
-128
-144
-240
-256
-112
-32
32
80
80
96
96
112
208
240
96
16
-32
-96
-128
-128
-128
-144
-240
-272
-128
-48
32
80
80
80
80
112
208
240
96
16
-32
-96
-128
-128
-128
-144
-240
-272
-128
-48
32
64
80
80
96
112
208
240
96
16
-32
-96
-128
-128
-128
-144
-224
-272
-128
-48
32
64
80
80
96
96
208
240
112
32
-16
-80
-128
-128
-128
-144
-224
-272
-128
-48
16
64
80
96
96
112
208
256
112
32
-32
-80
-112
-128
-128
-128
-224
-272
-128
-48
16
64
80
96
96
112
208
256
112
32
-32
-80
-128
-128
-128
-128
-224
-272
-128
-48
16
64
80
80
96
96
192
256
112
32
-32
-80
-128
-128
-128
-128
-224
-272
-144
-48
16
64
80
80
96
96
192
256
128
32
-16
-80
-112
-112
-128
-128
-208
-272
-144
-48
16
64
80
96
96
112
192
272
128
32
-16
-80
-112
-128
-128
-128
-208
-272
-144
-64
16
64
80
80
96
112
192
272
128
48
-16
-80
-112
-112
-112
-128
-208
-272
-144
-64
16
64
80
80
96
112
192
272
144
48
-16
-64
-112
-112
-112
-112
-192
-272
-144
-48
16
48
80
80
96
112
192
272
144
48
-16
-64
-112
-112
-112
-128
-208
-288
-160
-64
16
64
80
80
96
96
176
272
144
48
-16
-64
-112
-128
-128
-128
-192
-288
-160
-64
16
64
96
80
96
96
176
256
144
48
-16
-80
-112
-128
-128
-128
-192
-288
-160
-64
16
64
80
80
96
96
176
256
144
48
-16
-64
-112
-128
-128
-128
-192
-288
-176
-80
0
64
80
96
96
96
176
272
160
48
-16
-64
-112
-128
-128
-128
-192
-288
-176
-80
0
48
96
96
96
96
160
272
160
48
-16
-80
-128
-128
-128
-128
-192
-288
-176
-80
0
64
96
96
96
96
160
256
160
48
-16
-64
-112
-128
-128
-128
-192
-288
-176
-64
16
64
80
80
96
96
160
272
160
64
-16
-64
-112
-128
-128
-128
-192
-288
-192
-80
0
48
80
80
96
96
160
256
160
64
0
-64
-112
-128
-128
-128
-176
-272
-192
-80
0
48
80
80
96
96
160
272
176
64
0
-64
-112
-128
-128
-128
-176
-288
-192
-80
0
48
80
80
96
96
160
256
176
64
0
-64
-112
-128
-128
-128
-176
-288
-192
-80
-16
48
80
80
96
96
144
256
176
64
0
-48
-112
-112
-128
-112
-160
-272
-192
-80
-16
48
80
80
96
96
144
256
192
64
0
-48
-112
-112
-128
-112
-176
-272
-192
-80
0
48
80
80
96
96
144
256
192
64
0
-48
-112
-112
-128
-112
-160
-272
-208
-80
-16
48
80
80
96
112
144
256
192
64
0
-48
-112
-112
-128
-112
-160
-272
-208
-80
-16
32
80
80
80
96
144
256
192
80
0
-48
-112
-112
-128
-128
-160
-272
-208
-96
-16
32
80
80
96
96
144
256
208
80
0
-48
-96
-112
-112
-112
-160
-256
-224
-96
-16
32
80
80
96
96
128
256
208
80
16
-48
-96
-112
-128
-112
-160
-256
-224
-96
-16
32
80
80
96
96
144
256
208
80
16
-32
-96
-112
-128
-112
-160
-256
-224
-96
-16
48
80
80
96
96
128
256
224
80
16
-32
-96
-112
-128
-112
-144
-256
-240
-96
-16
32
80
80
96
96
128
240
224
80
16
-32
-96
-112
-128
-112
-144
-256
-240
-96
-32
32
80
80
96
96
128
240
224
96
32
-32
-96
-112
-128
-112
-144
-256
-240
-112
-32
32
80
80
96
96
128
240
224
96
16
-32
-96
-112
-128
-128
-144
-240
-240
-112
-32
16
64
80
80
96
128
224
224
80
16
-32
-96
-112
-128
-112
-144
-240
-240
-96
-32
32
80
80
96
96
128
224
224
96
16
-32
-96
-112
-128
-112
-144
-240
-240
-112
-32
32
80
80
96
96
112
224
224
96
16
-32
-96
-112
-128
-112
-144
-240
-256
-112
-32
32
64
80
80
96
128
224
240
96
16
-32
-96
-112
-128
-112
-144
-240
-256
-112
-32
32
64
80
96
96
112
224
240
96
16
-32
-96
-112
-128
-128
-144
-240
-256
-112
-32
32
64
80
80
96
112
208
240
96
32
-32
-96
-112
-112
-112
-128
-224
-256
-128
-48
16
64
80
96
96
112
208
240
96
32
-32
-96
-112
-128
-128
-144
-224
-256
-128
-48
16
64
80
80
96
112
208
240
112
32
-32
-96
-112
-128
-128
-144
-224
-272
-128
-48
16
80
80
80
96
112
208
240
112
32
-32
-80
-112
-128
-128
-128
-224
-272
-128
-48
16
64
80
96
96
112
208
256
112
32
-32
-80
-112
-128
-128
-128
-224
-272
-128
-48
16
64
80
80
96
96
192
256
112
48
-16
-80
-112
-128
-128
-128
-224
-272
-144
-64
16
64
80
80
96
96
192
256
112
32
-32
-80
-112
-128
-128
-128
-208
-272
-144
-64
16
64
80
80
96
96
192
256
112
32
-32
-80
-112
-128
-128
-128
-208
-272
-144
-48
16
48
64
64
80
96
176
256
112
32
-16
-80
-112
-128
-128
-128
-208
-272
-144
-64
0
48
80
80
96
96
176
256
128
32
-16
-80
-112
-128
-128
-128
-208
-272
-144
-64
0
48
80
80
96
96
176
256
128
48
-16
-64
-112
-128
-128
-128
-208
-272
-144
-64
0
48
80
80
80
96
176
256
128
48
-16
-64
-112
-128
-128
-128
-192
-272
-160
-64
0
48
80
80
96
96
176
256
128
48
-16
-64
-112
-112
-112
-112
-192
-272
-160
-64
0
48
80
80
96
96
176
256
144
48
-16
-64
-112
-112
-128
-128
-192
-272
-160
-64
0
48
80
80
96
96
176
256
144
48
-16
-64
-112
-112
-128
-128
-192
-272
-160
-64
0
48
80
80
96
96
160
256
144
48
-16
-64
-112
-112
-128
-128
-192
-272
-160
-64
0
48
80
80
96
96
160
256
144
48
-16
-64
-112
-128
-128
-128
-192
-288
-176
-80
0
48
80
80
80
96
160
256
160
48
-16
-48
-112
-112
-128
-128
-176
-272
-176
-80
0
48
80
80
80
80
144
256
160
48
-16
-64
-112
-128
-128
-128
-176
-272
-192
-80
-16
32
80
80
96
96
144
256
160
48
-16
-64
-112
-128
-128
-128
-176
-272
-192
-80
0
48
80
80
96
96
144
240
160
48
0
-64
-112
-112
-128
-128
-176
-272
-192
-80
-16
48
80
80
96
80
144
256
160
64
0
-64
-112
-112
-128
-128
-176
-272
-192
-80
-16
32
80
80
80
80
144
256
176
64
0
-48
-112
-112
-128
-128
-176
-272
-192
-80
-16
32
80
80
96
96
144
256
176
64
0
-48
-112
-112
-128
-112
-176
-272
-192
-80
-16
48
80
80
96
96
144
240
176
64
0
-48
-112
-112
-128
-112
-160
-256
-192
-80
-16
32
80
80
96
96
144
240
192
64
0
-48
-112
-112
-128
-112
-160
-272
-208
-96
-16
32
64
64
80
80
128
240
192
64
0
-48
-112
-128
-128
-128
-160
-272
-208
-96
-16
32
64
80
96
96
128
240
176
64
0
-48
-112
-128
-128
-128
-160
-272
-224
-96
-32
32
64
64
80
80
128
224
192
64
0
-48
-112
-128
-128
-128
-160
-256
-224
-96
-32
16
64
80
80
80
128
240
192
80
0
-48
-96
-112
-112
-112
-160
-256
-224
-96
-16
32
64
64
80
80
128
240
208
80
16
-48
-96
-112
-128
-112
-160
-256
-224
-96
-32
32
64
64
80
80
128
240
208
80
16
-32
-96
-112
-128
-112
-144
-256
-224
-96
-32
32
80
80
80
80
128
224
208
80
16
-32
-96
-112
-128
-112
-144
-256
-240
-112
-32
32
64
80
96
96
128
240
224
80
16
-32
-96
-112
-112
-112
-144
-240
-240
-96
-32
32
64
80
80
80
112
224
224
96
32
-32
-96
-112
-128
-112
-144
-240
-240
-112
-32
16
64
80
96
80
112
224
224
80
16
-32
-96
-112
-128
-112
-144
-240
-240
-112
-48
16
64
64
80
80
112
224
224
96
16
-32
-96
-112
-128
-112
-144
-240
-240
-112
-48
16
64
80
80
80
112
208
224
96
16
-32
-96
-112
-128
-112
-144
-240
-256
-112
-48
16
64
64
80
80
112
208
224
96
16
-32
-96
-112
-128
-128
-144
-240
-256
-128
-48
16
64
64
80
80
112
208
224
96
16
-32
-96
-112
-128
-112
-144
-240
-256
-128
-48
16
64
64
80
80
112
208
224
96
32
-32
-80
-112
-112
-112
-128
-224
-256
-128
-48
16
64
64
80
80
96
208
240
96
32
-32
-80
-112
-112
-112
-128
-224
-256
-128
-48
16
64
80
80
80
96
192
240
96
32
-16
-80
-112
-112
-112
-128
-224
-256
-128
-48
16
48
64
80
80
96
192
240
112
32
-16
-80
-112
-112
-112
-128
-224
-256
-128
-48
16
64
80
80
80
96
192
240
112
32
-16
-80
-112
-112
-112
-128
-224
-256
-128
-48
16
64
80
80
96
96
192
240
112
32
-16
-80
-112
-112
-112
-128
-208
-256
-128
-48
16
48
80
80
80
96
192
240
112
32
-16
-64
-112
-112
-112
-128
-208
-256
-144
-64
0
48
64
64
80
96
176
240
112
32
-16
-80
-112
-112
-112
-128
-208
-272
-144
-64
0
48
64
64
80
96
176
240
112
32
-16
-80
-112
-128
-128
-128
-208
-272
-144
-48
16
48
64
64
80
80
176
240
112
32
-32
-80
-112
-128
-128
-128
-208
-272
-144
-64
0
48
64
64
80
80
160
240
112
32
-32
-80
-128
-128
-128
-128
-208
-272
-160
-64
0
48
64
64
80
96
176
256
128
32
-16
-80
-112
-128
-128
-128
-192
-272
-144
-64
0
48
80
80
80
96
160
240
128
32
-16
-80
-112
-128
-128
-128
-192
-272
-144
-64
0
48
80
80
80
96
160
240
128
32
-32
-80
-112
-112
-128
-112
-176
-256
-160
-64
0
48
80
80
96
96
160
240
128
48
-16
-64
-112
-112
-112
-112
-176
-256
-160
-64
0
48
80
64
80
96
160
240
128
48
-16
-64
-112
-112
-112
-112
-176
-256
-160
-64
0
48
80
80
96
96
160
240
128
48
-16
-64
-112
-112
-112
-112
-176
-256
-160
-64
0
48
80
80
80
80
144
240
144
48
-16
-64
-112
-112
-112
-112
-176
-256
-160
-64
0
48
80
64
80
80
144
240
144
48
-16
-64
-96
-112
-128
-128
-176
-272
-176
-80
0
48
80
64
80
80
144
240
144
48
-16
-64
-112
-112
-112
-112
-176
-256
-176
-80
0
48
80
80
96
80
144
224
144
48
-16
-64
-112
-112
-112
-112
-160
-256
-160
-64
0
48
80
80
80
80
144
240
144
48
-16
-48
-112
-112
-112
-112
-160
-256
-176
-80
0
32
80
80
80
80
128
224
144
48
0
-48
-96
-112
-112
-112
-160
-256
-176
-80
0
48
80
64
80
80
128
224
160
64
0
-48
-96
-112
-112
-112
-160
-240
-176
-80
0
32
64
64
80
80
128
224
160
48
0
-48
-96
-112
-112
-112
-160
-240
-176
-80
-16
32
64
64
80
80
128
224
160
48
0
-48
-96
-112
-112
-112
-144
-240
-176
-80
-16
32
64
64
80
80
128
224
160
48
0
-48
-96
-112
-112
-112
-144
-240
-192
-80
-16
32
64
64
80
80
112
208
160
48
0
-48
-96
-112
-112
-112
-144
-240
-192
-80
-16
32
64
64
80
80
128
208
160
48
-16
-48
-96
-112
-112
-112
-144
-240
-192
-80
-16
16
64
64
80
80
112
208
160
64
0
-48
-96
-112
-112
-112
-144
-240
-192
-80
-16
32
64
64
80
80
112
208
176
64
0
-48
-96
-96
-96
-96
-144
-240
-192
-80
-16
32
64
64
80
80
112
208
176
64
0
-48
-96
-112
-112
-112
-144
-224
-192
-80
-16
32
64
64
80
80
112
208
176
64
0
-48
-96
-96
-112
-96
-128
-224
-192
-80
-16
32
64
64
80
80
112
208
176
64
16
-32
-80
-96
-112
-96
-128
-224
-192
-80
-16
32
64
64
80
80
112
208
176
64
16
-32
-96
-96
-112
-96
-128
-224
-192
-80
-16
32
64
64
80
80
112
208
192
80
32
-16
-80
-96
-96
-96
-112
-208
-192
-80
-16
32
64
64
80
80
112
208
192
80
16
-16
-80
-96
-96
-96
-112
-208
-192
-80
-16
32
64
64
80
80
112
208
192
80
16
-32
-80
-96
-96
-96
-112
-192
-192
-80
-16
32
64
80
80
80
112
208
192
80
16
-32
-80
-96
-96
-96
-112
-192
-208
-80
-16
32
64
64
80
80
112
192
192
80
16
-16
-80
-96
-96
-96
-112
-208
-208
-80
-16
32
64
64
80
80
112
208
208
80
32
-16
-80
-96
-96
-96
-112
-192
-208
-80
-16
32
64
64
80
80
96
192
208
80
16
-16
-80
-96
-96
-96
-112
-192
-208
-80
-16
32
64
80
80
80
96
192
208
80
32
-16
-64
-96
-96
-80
-112
-192
-208
-96
-32
32
64
80
80
80
96
192
208
80
32
-16
-80
-96
-96
-96
-112
-192
-208
-96
-32
32
64
64
80
80
96
176
208
80
16
-32
-80
-96
-96
-96
-112
-192
-208
-96
-32
16
64
80
80
80
96
176
208
80
16
-16
-80
-96
-112
-96
-112
-192
-224
-96
-32
16
64
64
80
80
96
176
208
96
16
-16
-64
-96
-112
-96
-112
-192
-224
-96
-32
16
48
64
64
80
80
160
208
80
16
-32
-80
-96
-112
-112
-112
-192
-224
-112
-48
16
48
64
64
64
80
160
208
80
16
-32
-80
-96
-112
-112
-128
-192
-240
-112
-48
16
64
64
64
80
80
160
208
96
16
-32
-80
-112
-112
-112
-112
-192
-240
-112
-32
16
48
64
64
64
80
160
208
96
32
-32
-64
-96
-112
-112
-112
-192
-224
-112
-48
16
48
64
64
80
80
160
208
96
32
-16
-64
-96
-96
-96
-112
-176
-240
-128
-48
16
48
64
64
64
80
160
224
96
32
-16
-64
-96
-112
-112
-112
-176
-240
-128
-48
0
48
64
64
80
80
144
208
96
32
-16
-64
-96
-112
-112
-112
-176
-240
-128
-64
0
48
64
64
80
80
144
208
96
32
-16
-64
-96
-112
-112
-96
-160
-240
-128
-64
0
32
64
64
80
80
144
208
96
32
-16
-64
-96
-96
-112
-112
-176
-240
-128
-64
0
48
64
64
64
80
144
208
112
32
-16
-64
-96
-96
-112
-112
-176
-240
-128
-64
0
32
64
64
80
80
144
208
112
32
-16
-64
-96
-96
-112
-112
-176
-240
-144
-64
0
32
64
64
80
80
144
208
112
32
-16
-64
-96
-112
-112
-112
-176
-240
-144
-64
0
32
64
48
64
80
128
208
112
32
-16
-64
-96
-96
-112
-112
-160
-240
-144
-64
0
32
48
48
64
80
128
208
112
32
-16
-64
-96
-96
-112
-112
-160
-240
-144
-64
0
32
64
64
64
64
128
208
112
32
-16
-64
-96
-112
-112
-112
-160
-240
-144
-64
0
48
64
64
80
80
128
208
128
32
-16
-64
-96
-96
-112
-112
-160
-240
-144
-64
0
32
64
64
64
64
128
208
128
48
-16
-48
-96
-96
-112
-112
-160
-240
-144
-64
0
32
64
48
64
64
128
208
128
48
-16
-48
-96
-96
-112
-112
-160
-240
-160
-64
0
32
64
64
64
64
128
208
128
48
-16
-48
-96
-96
-112
-96
-160
-240
-160
-64
-16
32
64
64
64
64
128
208
128
48
-16
-48
-96
-96
-112
-96
-144
-224
-144
-64
0
32
64
64
64
64
112
208
128
48
-16
-48
-96
-96
-96
-96
-144
-240
-160
-64
-16
32
64
64
64
64
112
208
144
48
0
-48
-96
-96
-112
-96
-144
-224
-160
-64
-16
32
64
64
80
80
128
208
144
48
0
-48
-96
-96
-112
-96
-144
-224
-160
-64
-16
32
64
64
80
64
112
208
144
48
0
-48
-96
-96
-96
-96
-128
-224
-160
-64
-16
32
64
64
64
64
112
208
144
48
0
-48
-96
-96
-96
-96
-144
-224
-176
-80
-16
32
64
64
64
64
112
208
144
48
0
-48
-96
-96
-112
-96
-144
-224
-160
-80
-16
32
64
64
64
80
112
208
144
48
0
-48
-80
-96
-96
-96
-128
-224
-160
-64
-16
32
64
64
80
64
112
208
160
48
0
-32
-80
-96
-96
-96
-128
-224
-176
-80
-16
32
64
48
64
64
112
208
160
64
0
-32
-80
-96
-96
-96
-128
-224
-176
-80
-16
32
64
64
64
64
112
208
160
64
16
-32
-80
-96
-96
-96
-128
-208
-176
-80
-16
32
64
64
80
80
112
192
160
64
0
-32
-80
-96
-96
-96
-128
-208
-176
-80
-16
32
64
64
64
80
112
192
160
64
0
-32
-80
-96
-96
-96
-128
-208
-176
-64
-16
32
64
64
64
64
96
192
160
64
16
-32
-80
-96
-96
-96
-128
-208
-192
-80
-32
16
64
64
80
64
96
192
160
64
16
-32
-80
-96
-96
-96
-128
-208
-176
-80
-16
16
64
64
80
64
96
192
176
64
16
-32
-80
-96
-96
-96
-112
-208
-176
-80
-16
16
64
64
80
80
96
192
176
64
16
-32
-80
-96
-96
-96
-112
-208
-192
-80
-16
16
64
64
64
80
96
192
176
64
16
-32
-80
-96
-96
-80
-112
-192
-192
-80
-16
32
64
64
80
80
96
192
176
64
16
-32
-80
-96
-96
-96
-112
-192
-192
-80
-16
32
64
64
80
64
96
176
176
64
16
-32
-80
-96
-96
-96
-112
-192
-192
-80
-32
16
48
64
64
64
96
176
176
64
16
-32
-80
-96
-96
-96
-112
-192
-192
-80
-32
16
64
64
64
80
96
176
176
80
16
-16
-64
-96
-96
-96
-112
-192
-192
-80
-32
16
64
64
64
80
96
176
176
64
16
-16
-64
-80
-96
-96
-112
-192
-192
-80
-32
16
64
64
64
64
80
176
176
80
16
-16
-64
-80
-96
-96
-112
-192
-192
-80
-32
16
48
64
64
64
96
176
192
80
16
-16
-64
-96
-96
-96
-112
-192
-208
-96
-32
16
48
64
64
80
96
176
192
80
16
-16
-64
-96
-96
-96
-96
-176
-192
-96
-32
16
64
64
64
80
80
176
192
80
16
-16
-64
-96
-96
-96
-96
-176
-192
-96
-32
16
64
64
64
64
80
160
192
96
32
-16
-64
-80
-96
-80
-96
-176
-192
-96
-32
16
64
64
64
80
80
160
192
80
32
-16
-64
-80
-96
-96
-96
-176
-192
-96
-32
16
48
64
80
80
96
160
192
96
32
-16
-64
-80
-80
-80
-96
-160
-192
-80
-32
16
48
64
64
80
80
160
192
96
32
-16
-64
-80
-80
-80
-96
-160
-208
-96
-32
16
48
64
64
80
80
160
192
96
32
-16
-64
-80
-80
-96
-96
-160
-208
-96
-32
16
48
64
80
80
96
160
208
96
32
-16
-48
-80
-80
-96
-96
-160
-208
-96
-32
16
48
64
64
80
80
160
208
96
32
-16
-48
-80
-80
-80
-96
-160
-208
-96
-32
16
48
64
64
80
80
160
208
96
32
-16
-48
-80
-80
-80
-96
-160
-208
-112
-48
0
48
64
64
64
80
160
208
96
32
-16
-48
-80
-80
-80
-96
-160
-208
-112
-48
16
48
64
80
80
80
144
208
96
32
-16
-48
-80
-96
-96
-96
-160
-208
-112
-48
16
64
80
80
80
80
160
208
112
32
0
-48
-80
-80
-80
-96
-160
-208
-112
-48
16
64
80
80
80
80
144
208
112
48
0
-48
-80
-80
-80
-80
-144
-208
-96
-32
16
64
96
96
80
80
144
208
96
32
-16
-64
-96
-96
-96
-96
-160
-208
-112
-32
32
64
80
80
80
64
128
192
80
0
-48
-96
-128
-112
-112
-112
-160
-224
-112
-32
32
64
80
80
80
64
112
176
64
-16
-64
-112
-144
-128
-128
-112
-160
-208
-80
-16
48
80
80
64
64
64
112
160
48
-32
-96
-128
-160
-144
-128
-112
-160
-208
-96
-16
48
80
96
80
80
64
112
160
32
-48
-96
-144
-160
-160
-144
-128
-160
-224
-96
-16
48
80
96
80
64
64
112
160
32
-64
-112
-144
-176
-160
-144
-128
-160
-208
-96
-16
48
80
96
80
64
48
96
144
32
-64
-112
-144
-176
-160
-144
-128
-160
-224
-96
-16
48
80
96
80
80
64
96
144
32
-64
-112
-144
-176
-160
-144
-128
-160
-224
-96
0
48
80
96
80
80
64
96
144
32
-48
-112
-144
-176
-160
-144
-128
-160
-208
-96
-16
48
80
96
80
80
64
96
160
32
-48
-112
-144
-176
-160
-144
-128
-160
-224
-112
-16
48
80
96
80
80
48
96
160
48
-48
-96
-144
-160
-160
-144
-128
-160
-224
-112
-16
32
64
96
80
80
64
96
160
48
-48
-96
-128
-160
-160
-144
-128
-160
-224
-112
-16
32
80
96
80
80
64
96
160
64
-32
-80
-112
-160
-144
-144
-128
-144
-224
-128
-32
32
64
96
80
64
64
96
160
64
-32
-80
-112
-144
-144
-144
-112
-144
-224
-128
-32
32
64
80
80
80
64
96
160
80
-32
-80
-112
-144
-144
-144
-128
-144
-224
-128
-32
32
64
80
80
80
64
80
160
80
-16
-80
-112
-144
-144
-144
-128
-144
-224
-128
-48
16
48
80
64
64
64
80
160
80
-16
-80
-112
-144
-144
-144
-112
-144
-224
-144
-48
16
48
80
64
64
64
96
176
96
-16
-64
-96
-144
-144
-128
-112
-144
-224
-144
-48
16
48
80
64
64
64
80
160
96
-16
-64
-96
-144
-128
-128
-112
-144
-224
-144
-48
16
48
64
64
80
64
96
160
96
0
-64
-96
-128
-128
-128
-112
-128
-208
-144
-48
16
48
80
64
64
64
80
176
112
16
-48
-80
-128
-128
-128
-112
-128
-208
-160
-48
16
48
80
64
80
64
96
176
112
16
-32
-80
-112
-112
-112
-112
-128
-208
-160
-64
0
48
80
64
80
64
96
176
112
16
-32
-80
-112
-128
-128
-112
-128
-208
-160
-64
0
48
80
64
80
64
96
176
128
16
-32
-64
-112
-112
-128
-112
-128
-208
-160
-64
0
48
80
64
80
64
96
176
128
32
-32
-64
-96
-112
-112
-112
-128
-208
-160
-64
0
32
64
64
64
64
96
176
144
32
-32
-64
-112
-112
-112
-112
-128
-208
-176
-64
0
32
64
64
80
64
96
176
144
32
-16
-64
-112
-112
-112
-96
-128
-208
-176
-64
0
48
80
64
80
64
96
176
144
32
-16
-64
-96
-112
-112
-96
-128
-208
-192
-80
-16
32
80
64
80
64
96
176
160
48
-16
-48
-96
-112
-112
-96
-128
-208
-176
-64
-16
32
64
64
80
64
80
176
160
48
-16
-64
-112
-112
-112
-112
-128
-208
-192
-80
-16
16
64
64
64
64
80
176
160
48
-16
-48
-112
-112
-112
-112
-128
-208
-192
-80
-16
16
64
64
64
64
80
176
160
48
-16
-48
-96
-112
-112
-112
-128
-192
-192
-80
-32
16
64
64
64
64
80
176
176
48
0
-48
-96
-112
-112
-112
-128
-208
-208
-80
-32
16
64
64
64
64
80
176
176
48
0
-48
-96
-112
-112
-112
-128
-208
-208
-96
-32
16
64
64
80
80
96
176
176
64
0
-48
-96
-112
-112
-112
-128
-208
-208
-96
-32
16
48
64
64
64
80
176
192
64
0
-48
-96
-112
-112
-112
-128
-208
-224
-96
-32
16
64
64
80
64
80
176
192
64
0
-32
-96
-112
-96
-96
-128
-208
-208
-96
-32
16
64
64
80
64
80
176
192
64
0
-32
-96
-112
-112
-112
-112
-192
-224
-96
-32
16
64
64
80
64
80
176
192
80
16
-32
-80
-112
-112
-112
-128
-192
-224
-96
-32
16
64
80
80
80
80
160
192
80
16
-32
-80
-112
-112
-112
-128
-192
-224
-112
-32
16
64
64
64
80
80
160
192
80
16
-32
-80
-112
-112
-112
-112
-192
-224
-112
-32
16
48
64
64
80
80
160
208
80
32
-16
-80
-112
-112
-112
-112
-176
-224
-96
-32
16
48
64
80
80
80
160
208
80
16
-32
-80
-96
-112
-112
-112
-192
-224
-112
-32
16
48
64
80
80
80
160
208
80
16
-32
-80
-112
-112
-112
-112
-176
-224
-96
-32
16
48
64
80
80
80
160
208
96
16
-32
-80
-96
-112
-96
-112
-176
-224
-112
-48
16
48
64
64
64
80
160
208
96
32
-32
-80
-112
-112
-112
-112
-192
-240
-128
-48
16
48
64
80
80
96
176
224
96
32
-16
-80
-112
-112
-112
-112
-176
-240
-128
-48
16
48
64
80
80
80
160
208
96
16
-16
-64
-112
-112
-112
-112
-176
-240
-128
-48
16
48
64
80
80
80
160
208
96
32
-16
-64
-96
-96
-96
-96
-176
-240
-128
-48
16
48
64
80
80
80
160
224
112
32
-16
-64
-96
-112
-112
-112
-176
-240
-128
-48
0
48
64
80
80
80
160
224
112
32
-16
-64
-96
-96
-96
-96
-160
-240
-128
-48
16
48
80
64
80
80
144
224
112
32
-16
-64
-96
-96
-96
-112
-160
-240
-128
-48
0
48
64
64
80
80
144
224
112
32
-16
-64
-96
-96
-112
-112
-160
-240
-128
-64
0
48
64
64
80
80
144
224
112
32
-16
-48
-96
-112
-112
-112
-160
-240
-144
-64
0
48
64
64
80
80
144
224
112
32
-16
-64
-112
-112
-112
-112
-160
-240
-144
-64
0
48
64
64
80
80
144
224
112
32
-16
-64
-96
-96
-112
-112
-160
-240
-144
-48
0
32
64
64
80
80
128
224
128
32
-16
-64
-96
-112
-112
-112
-160
-240
-144
-64
0
32
64
64
80
80
144
224
128
48
-16
-64
-96
-96
-112
-112
-160
-240
-160
-64
-16
32
64
64
64
80
128
224
128
48
-16
-64
-112
-112
-112
-112
-160
-240
-144
-64
0
32
64
64
80
80
128
208
128
32
-16
-64
-112
-112
-112
-112
-160
-240
-160
-64
0
32
64
64
80
64
128
208
128
32
-16
-64
-112
-112
-128
-112
-160
-256
-160
-80
-16
32
64
48
64
64
112
208
128
32
-16
-64
-112
-112
-128
-112
-160
-256
-176
-80
-16
32
64
48
64
64
112
208
128
32
-16
-64
-112
-112
-128
-112
-160
-256
-176
-80
-32
16
64
48
80
64
112
208
128
32
-16
-64
-112
-112
-128
-112
-160
-240
-176
-80
-16
32
64
48
64
64
112
208
128
48
-16
-64
-112
-112
-112
-112
-160
-240
-176
-80
-16
16
64
64
64
64
112
208
128
48
-16
-64
-96
-112
-112
-112
-144
-240
-176
-80
-16
32
64
64
64
64
112
208
144
48
-16
-64
-112
-112
-112
-112
-144
-240
-176
-80
-16
16
64
48
64
64
112
208
144
48
-16
-48
-96
-112
-112
-112
-144
-240
-176
-80
-16
32
64
64
80
64
112
208
144
48
-16
-48
-96
-112
-112
-112
-144
-240
-176
-80
-16
16
48
48
64
64
96
208
144
48
-16
-48
-112
-112
-112
-112
-144
-240
-192
-96
-32
16
64
64
64
64
96
208
160
64
0
-48
-96
-112
-112
-112
-144
-240
-192
-80
-16
16
64
64
80
64
112
208
160
48
0
-48
-96
-112
-112
-112
-144
-240
-192
-96
-32
16
64
64
80
64
112
208
160
64
0
-48
-96
-112
-112
-112
-128
-224
-176
-80
-32
16
64
64
80
64
96
208
160
64
0
-48
-96
-112
-112
-112
-128
-224
-192
-96
-32
16
64
64
64
64
96
192
176
64
0
-32
-96
-96
-112
-96
-128
-224
-192
-96
-32
16
64
64
80
80
112
208
176
64
0
-32
-96
-112
-112
-112
-128
-224
-208
-96
-32
16
64
64
80
80
96
208
176
64
0
-32
-96
-96
-112
-96
-128
-224
-192
-96
-32
16
64
64
80
80
96
192
176
64
0
-32
-96
-96
-96
-96
-128
-224
-208
-96
-32
16
64
64
80
80
96
192
176
64
0
-32
-80
-96
-112
-96
-128
-208
-208
-96
-32
16
64
64
80
64
96
192
176
64
0
-32
-96
-96
-112
-96
-128
-208
-208
-96
-32
16
64
64
80
64
96
192
176
64
16
-32
-80
-96
-112
-96
-112
-208
-208
-80
-16
16
64
64
80
80
96
192
176
64
16
-32
-80
-96
-112
-112
-128
-208
-208
-96
-32
16
48
64
80
80
96
192
192
64
16
-16
-80
-96
-112
-112
-128
-208
-208
-96
-32
16
48
64
80
64
96
176
192
80
16
-32
-80
-112
-112
-112
-128
-208
-208
-96
-32
16
48
64
64
64
96
176
192
64
16
-32
-80
-112
-112
-112
-128
-208
-208
-96
-32
16
48
48
64
64
80
176
192
64
16
-32
-80
-112
-112
-112
-128
-208
-208
-96
-32
16
48
48
64
64
80
176
192
80
16
-32
-80
-112
-112
-112
-128
-192
-208
-96
-32
16
48
64
64
64
80
176
192
80
16
-32
-80
-96
-112
-112
-128
-192
-224
-112
-48
0
48
64
64
64
80
160
176
64
16
-32
-80
-112
-112
-112
-112
-192
-224
-112
-48
0
32
48
48
64
80
160
176
80
16
-32
-80
-96
-112
-96
-112
-192
-224
-112
-48
0
48
48
64
64
80
160
192
80
16
-32
-80
-96
-112
-112
-112
-192
-224
-112
-48
0
32
48
64
64
80
160
192
80
16
-32
-80
-96
-112
-112
-112
-192
-224
-112
-48
0
48
64
64
64
80
160
192
80
16
-32
-80
-96
-96
-96
-112
-176
-224
-112
-48
16
48
64
64
64
80
144
192
80
16
-32
-80
-96
-112
-112
-112
-176
-224
-112
-48
0
32
48
64
64
64
144
192
80
16
-32
-64
-96
-112
-112
-112
-176
-224
-112
-48
0
32
48
48
64
64
144
176
80
16
-32
-80
-112
-112
-112
-112
-176
-224
-128
-64
-16
32
48
48
48
64
128
176
64
16
-32
-80
-112
-112
-112
-112
-176
-224
-128
-48
0
32
48
48
48
64
128
176
80
16
-32
-80
-112
-112
-112
-112
-176
-224
-128
-64
0
32
48
48
64
64
128
176
80
16
-32
-64
-96
-112
-112
-112
-176
-224
-112
-48
0
32
48
48
64
64
128
192
96
16
-32
-64
-96
-96
-112
-112
-160
-208
-112
-48
0
32
48
48
64
64
128
176
80
16
-32
-64
-96
-96
-96
-96
-160
-208
-112
-48
0
32
48
48
64
64
128
192
80
16
-16
-64
-96
-96
-96
-96
-144
-208
-112
-48
0
32
48
48
64
64
128
192
80
16
-16
-64
-96
-96
-96
-96
-144
-208
-112
-48
0
32
48
64
64
64
128
192
96
32
-16
-64
-80
-96
-96
-96
-144
-208
-112
-48
0
32
48
48
64
80
128
192
96
32
-16
-64
-96
-96
-96
-96
-144
-208
-112
-48
0
32
48
48
64
64
112
192
96
32
-16
-64
-96
-96
-96
-96
-144
-208
-112
-48
0
32
48
48
64
64
112
176
96
32
-16
-64
-80
-80
-96
-96
-144
-208
-128
-64
0
32
48
48
64
64
112
176
96
32
-16
-64
-96
-96
-96
-96
-144
-208
-128
-64
0
32
48
48
64
64
112
176
96
32
-16
-64
-96
-96
-96
-96
-144
-224
-144
-64
0
32
48
48
48
48
96
176
96
16
-16
-64
-96
-96
-112
-112
-144
-224
-144
-64
-16
32
48
48
48
48
96
176
96
16
-32
-64
-96
-96
-112
-96
-144
-224
-144
-64
-16
32
48
48
48
48
96
176
96
32
-16
-64
-96
-96
-112
-96
-144
-224
-144
-64
-16
16
48
48
48
48
96
176
96
16
-32
-64
-96
-96
-96
-96
-144
-224
-144
-64
-16
32
48
48
48
48
96
176
96
16
-32
-64
-96
-96
-112
-96
-144
-208
-128
-64
-16
16
48
48
48
48
96
176
96
16
-16
-64
-96
-96
-96
-96
-144
-208
-144
-64
-16
16
48
48
48
48
96
160
96
16
-16
-64
-96
-96
-112
-96
-144
-208
-144
-64
-16
16
48
48
48
48
96
176
96
16
-16
-48
-96
-96
-96
-96
-128
-208
-144
-64
-16
16
48
48
48
48
96
160
96
16
-16
-64
-96
-96
-112
-96
-144
-208
-144
-64
-16
16
48
32
48
48
80
160
96
16
-32
-64
-96
-96
-96
-96
-128
-208
-144
-64
-16
16
32
32
48
48
80
160
96
16
-16
-64
-96
-96
-112
-96
-128
-208
-144
-64
-16
16
48
48
48
48
80
160
96
32
-16
-48
-96
-96
-112
-96
-128
-208
-144
-64
-16
16
48
48
48
48
80
160
112
16
-16
-64
-96
-96
-112
-96
-128
-208
-144
-64
-16
16
48
32
48
48
80
160
112
32
-16
-48
-96
-96
-112
-96
-128
-208
-160
-80
-32
16
48
32
48
48
80
160
112
32
-16
-48
-80
-96
-96
-96
-128
-208
-160
-80
-32
0
32
32
48
48
80
160
112
32
-16
-48
-96
-96
-112
-96
-128
-208
-160
-80
-32
0
32
32
48
48
80
160
112
16
-16
-48
-96
-96
-112
-112
-128
-208
-160
-80
-32
0
32
32
32
32
64
144
112
16
-32
-64
-96
-112
-112
-112
-128
-208
-176
-80
-32
0
32
16
32
32
64
144
112
32
-16
-48
-96
-112
-112
-96
-128
-208
-176
-96
-32
0
32
32
32
48
64
160
128
32
-16
-64
-96
-112
-112
-112
-128
-208
-176
-96
-32
0
32
32
48
48
64
144
112
32
-16
-48
-96
-96
-112
-96
-128
-208
-176
-80
-32
0
32
32
48
48
64
144
128
32
-16
-48
-96
-96
-112
-96
-112
-192
-176
-80
-32
16
48
48
48
48
64
160
128
48
-16
-48
-80
-96
-112
-96
-112
-192
-176
-80
-32
0
32
48
48
48
80
160
128
48
0
-48
-80
-96
-96
-96
-112
-192
-176
-80
-32
0
32
48
64
64
64
160
128
48
0
-32
-80
-96
-96
-96
-112
-192
-160
-80
-16
16
48
48
48
48
80
160
144
48
0
-32
-80
-96
-96
-96
-112
-192
-176
-80
-32
16
48
48
48
48
80
160
144
48
0
-32
-64
-80
-96
-96
-112
-176
-176
-80
-32
16
48
48
64
48
80
160
144
48
0
-32
-80
-96
-96
-96
-112
-176
-176
-80
-32
16
48
48
48
48
64
144
144
48
0
-32
-80
-96
-96
-80
-112
-176
-176
-80
-16
16
48
48
48
48
64
144
144
48
0
-32
-80
-96
-96
-96
-112
-176
-176
-80
-32
0
48
48
64
64
80
144
144
48
0
-32
-80
-96
-96
-96
-112
-176
-176
-80
-32
0
32
48
48
48
64
144
144
64
0
-32
-80
-96
-96
-96
-112
-176
-176
-80
-32
0
32
48
48
48
64
144
144
48
0
-32
-80
-80
-96
-80
-96
-176
-176
-80
-32
16
48
48
64
64
80
144
160
48
0
-32
-64
-80
-96
-80
-96
-160
-176
-80
-32
16
48
48
64
64
64
144
160
64
0
-32
-64
-80
-96
-80
-96
-176
-192
-80
-32
16
48
48
64
64
64
144
160
64
16
-32
-64
-80
-96
-80
-96
-160
-192
-80
-32
16
48
48
64
64
80
144
160
64
16
-32
-64
-80
-96
-80
-96
-160
-176
-80
-32
0
32
48
64
64
64
144
160
64
16
-16
-64
-80
-96
-80
-96
-160
-192
-96
-32
0
32
48
48
48
64
128
160
64
0
-32
-64
-80
-80
-80
-96
-160
-176
-80
-32
16
48
48
48
64
64
144
160
64
16
-16
-64
-80
-96
-80
-96
-160
-192
-96
-32
16
32
48
48
64
64
144
160
64
16
-16
-64
-80
-96
-80
-96
-160
-192
-96
-32
0
48
48
64
64
64
144
176
64
16
-16
-64
-80
-96
-80
-96
-160
-192
-96
-32
16
48
48
48
64
64
144
176
80
16
-16
-64
-80
-80
-80
-96
-144
-176
-80
-32
16
48
48
48
64
64
128
176
80
32
0
-48
-80
-80
-80
-80
-144
-192
-80
-32
16
32
48
48
64
64
128
176
80
16
-16
-64
-80
-80
-80
-96
-144
-192
-96
-32
16
48
48
64
64
64
128
176
80
32
-16
-48
-80
-80
-80
-96
-144
-176
-80
-32
16
48
48
64
64
64
128
176
80
32
-16
-48
-80
-80
-80
-80
-144
-192
-96
-32
16
48
64
64
64
64
128
176
80
32
-16
-48
-80
-80
-80
-80
-144
-176
-80
-32
16
32
48
48
64
80
144
192
80
32
-16
-48
-80
-80
-80
-80
-144
-192
-96
-32
16
48
48
48
64
64
128
176
80
32
-16
-48
-80
-80
-80
-80
-128
-176
-96
-32
16
48
64
48
64
80
128
176
80
32
-16
-48
-80
-80
-64
-64
-128
-176
-96
-32
16
48
64
48
64
64
128
192
96
32
0
-48
-64
-80
-80
-80
-128
-176
-96
-32
0
32
48
48
64
64
128
176
96
32
0
-48
-80
-80
-80
-80
-128
-192
-96
-32
16
48
64
64
64
64
128
176
96
32
-16
-48
-80
-80
-80
-80
-128
-176
-96
-32
16
48
64
64
64
64
128
176
96
32
0
-48
-80
-80
-80
-80
-128
-176
-96
-32
16
32
64
48
64
64
112
176
96
32
0
-32
-64
-80
-80
-80
-128
-176
-96
-32
16
48
64
64
64
64
128
192
96
32
0
-48
-80
-80
-80
-80
-128
-176
-96
-32
16
32
64
64
64
64
128
192
96
32
0
-32
-64
-80
-80
-80
-128
-176
-96
-32
16
48
48
48
64
64
112
176
96
32
0
-48
-80
-80
-80
-80
-128
-192
-112
-48
0
32
48
48
64
64
112
176
96
32
-16
-48
-80
-80
-80
-80
-128
-192
-112
-48
0
32
48
48
64
64
112
176
112
32
-16
-48
-80
-80
-80
-80
-128
-192
-112
-48
0
32
48
48
64
64
112
176
96
32
-16
-48
-80
-80
-96
-80
-128
-192
-128
-64
0
32
48
48
64
64
96
176
96
32
-16
-48
-80
-96
-96
-80
-128
-192
-128
-64
0
32
48
48
64
64
96
176
96
32
-16
-48
-80
-96
-96
-96
-128
-192
-128
-64
0
32
48
64
64
64
96
176
96
32
-16
-48
-80
-80
-96
-96
-128
-192
-128
-64
0
32
48
48
64
64
96
176
96
32
-16
-48
-80
-80
-96
-80
-128
-192
-128
-64
0
32
48
64
64
64
96
176
96
32
-16
-48
-80
-80
-96
-80
-128
-192
-128
-48
0
32
48
48
64
48
96
176
112
32
-16
-48
-64
-80
-80
-80
-128
-192
-128
-64
0
32
48
48
64
64
96
176
112
32
0
-48
-80
-80
-96
-80
-112
-192
-128
-64
-16
16
48
48
48
48
96
176
112
32
0
-32
-80
-80
-80
-80
-112
-192
-128
-64
0
32
48
48
64
48
96
176
112
32
0
-32
-80
-80
-96
-80
-112
-192
-144
-64
-16
16
48
48
64
48
96
176
112
48
0
-32
-64
-80
-80
-80
-112
-192
-144
-80
-16
16
48
48
48
48
96
176
128
64
16
-16
-64
-64
-80
-80
-112
-192
-144
-80
-32
16
32
48
64
64
96
176
128
64
16
-16
-48
-64
-64
-64
-112
-192
-144
-80
-32
16
32
48
64
48
96
176
144
80
32
0
-32
-48
-64
-64
-96
-176
-144
-80
-32
0
32
48
64
64
96
192
160
96
64
32
-16
-32
-48
-48
-96
-192
-160
-96
-48
0
32
32
48
64
96
208
192
128
80
48
0
-16
-32
-32
-80
-176
-160
-112
-64
-16
32
32
48
64
112
208
208
144
112
80
32
0
-16
-32
-64
-160
-160
-112
-64
-16
16
32
48
64
112
224
224
176
128
96
48
16
0
-16
-64
-160
-160
-112
-64
-32
0
16
48
64
112
224
240
176
144
112
64
32
16
0
-48
-160
-176
-112
-80
-32
16
16
48
64
112
224
240
176
144
112
64
32
0
0
-48
-160
-176
-112
-80
-32
16
32
48
64
112
224
224
176
144
112
48
32
0
-16
-64
-160
-160
-112
-64
-32
16
32
48
64
112
208
208
160
128
96
48
16
-16
-32
-64
-160
-160
-112
-80
-32
0
16
48
64
112
208
208
160
112
80
32
0
-32
-48
-80
-176
-176
-112
-80
-32
0
16
48
64
112
192
208
144
112
80
32
0
-32
-48
-96
-176
-176
-128
-80
-48
0
16
48
64
96
192
192
128
96
64
16
-16
-48
-64
-96
-176
-176
-128
-80
-48
-16
0
32
64
96
176
192
128
80
48
0
-32
-64
-64
-112
-176
-176
-112
-64
-32
0
16
32
64
96
176
176
96
64
32
-16
-48
-64
-80
-96
-176
-176
-112
-64
-32
16
16
48
64
80
160
160
96
48
0
-32
-64
-80
-80
-96
-176
-176
-96
-48
-16
16
16
48
48
80
160
160
80
32
0
-48
-64
-80
-80
-96
-176
-176
-96
-48
-16
16
16
32
48
64
144
144
64
16
-16
-48
-80
-80
-80
-96
-176
-176
-96
-48
-16
16
16
32
48
64
144
144
64
16
-16
-64
-80
-80
-80
-96
-176
-176
-96
-48
0
32
32
32
48
64
144
144
64
16
-16
-64
-80
-80
-80
-96
-176
-176
-96
-48
0
32
32
32
48
64
144
144
64
16
-16
-48
-64
-80
-80
-96
-160
-176
-96
-48
0
32
32
48
48
64
144
144
64
16
-16
-64
-64
-80
-80
-96
-160
-176
-96
-48
0
32
32
48
48
64
144
144
64
16
-16
-48
-64
-80
-80
-96
-160
-160
-80
-48
-16
32
32
48
48
64
128
144
64
16
0
-48
-64
-80
-80
-96
-160
-160
-80
-48
0
32
32
48
48
64
144
144
64
32
0
-48
-64
-64
-64
-80
-160
-160
-80
-48
-16
16
32
32
48
64
144
144
64
32
0
-32
-48
-64
-64
-80
-144
-160
-80
-32
-16
16
16
16
32
48
128
144
64
16
0
-32
-48
-64
-64
-80
-144
-160
-80
-48
-16
16
16
16
32
48
112
144
64
32
0
-32
-48
-64
-64
-80
-144
-160
-80
-48
-32
0
16
16
32
48
128
144
80
32
0
-32
-48
-64
-64
-80
-144
-160
-96
-48
-32
0
16
16
32
48
112
144
64
16
0
-48
-64
-64
-64
-80
-144
-160
-80
-48
-16
16
32
32
48
48
112
144
64
16
-16
-48
-64
-64
-64
-80
-128
-160
-80
-48
0
16
32
48
48
64
128
144
64
32
0
-48
-64
-64
-64
-80
-144
-160
-80
-32
0
32
32
48
48
64
128
144
64
32
0
-48
-64
-64
-64
-80
-128
-160
-80
-32
0
32
48
48
64
64
128
144
64
32
0
-32
-64
-64
-64
-80
-128
-160
-80
-32
0
32
48
48
64
64
128
160
80
32
0
-32
-48
-64
-64
-80
-128
-160
-80
-32
16
32
48
48
64
64
128
160
80
32
0
-32
-48
-48
-64
-64
-128
-160
-80
-32
0
32
48
48
64
64
128
160
80
32
0
-32
-64
-64
-64
-80
-128
-160
-80
-32
0
32
48
48
48
64
128
160
80
32
0
-32
-64
-64
-64
-64
-128
-160
-80
-32
16
48
48
48
48
64
128
160
80
32
0
-32
-64
-64
-64
-64
-128
-160
-80
-32
0
32
48
48
64
64
112
160
80
32
0
-32
-64
-64
-64
-64
-112
-160
-80
-32
0
32
48
48
64
64
112
160
80
48
0
-32
-64
-64
-64
-64
-112
-160
-80
-32
0
32
48
48
64
64
112
160
80
32
0
-32
-64
-64
-64
-64
-112
-160
-80
-32
16
32
48
48
64
64
112
160
80
32
0
-32
-64
-64
-64
-64
-112
-144
-80
-32
16
32
48
48
64
64
112
160
80
32
0
-32
-64
-64
-64
-64
-112
-160
-80
-32
16
32
48
48
48
64
112
160
80
32
0
-32
-64
-64
-64
-64
-112
-160
-80
-32
16
32
48
48
48
64
112
160
80
32
0
-32
-64
-64
-64
-64
-112
-160
-80
-32
16
32
48
48
48
48
96
144
80
32
0
-32
-64
-64
-80
-80
-112
-160
-96
-32
16
32
48
48
64
64
96
144
80
32
-16
-48
-64
-64
-64
-64
-112
-160
-80
-32
0
32
48
48
48
48
96
144
64
16
-16
-48
-64
-80
-80
-80
-112
-160
-80
-32
16
32
48
48
48
48
96
144
64
16
-16
-48
-64
-80
-80
-80
-112
-160
-80
-32
16
48
64
48
48
48
96
144
64
16
-16
-48
-64
-80
-80
-80
-112
-160
-80
-32
16
32
48
48
48
48
80
128
64
0
-32
-64
-80
-80
-80
-64
-96
-144
-64
-16
32
48
64
48
48
48
80
128
48
-16
-32
-64
-80
-80
-80
-80
-112
-144
-64
0
32
64
64
64
64
48
80
128
48
-16
-48
-80
-96
-96
-80
-80
-112
-144
-64
0
32
48
64
64
64
48
80
128
32
-16
-48
-80
-96
-96
-96
-80
-112
-144
-64
0
32
48
64
64
64
48
80
128
48
-16
-48
-80
-96
-96
-96
-80
-112
-144
-64
-16
32
64
64
64
64
48
80
128
48
-16
-48
-80
-96
-96
-96
-80
-112
-160
-80
-16
32
48
64
48
64
48
80
128
48
-16
-48
-80
-96
-96
-96
-80
-112
-160
-80
-16
16
48
64
64
64
48
80
128
48
-16
-48
-64
-96
-96
-80
-80
-112
-160
-80
-32
16
48
64
64
64
48
80
128
64
0
-48
-64
-96
-80
-80
-64
-96
-160
-80
-32
16
48
64
48
48
48
80
128
64
0
-48
-64
-96
-96
-80
-80
-112
-160
-96
-32
16
32
48
48
48
48
80
128
64
0
-32
-64
-96
-96
-96
-80
-112
-160
-96
-32
0
32
48
48
64
48
80
144
64
16
-32
-64
-96
-96
-96
-80
-112
-160
-96
-32
0
32
48
48
48
48
80
128
64
0
-32
-64
-96
-96
-80
-80
-112
-160
-96
-32
0
32
48
48
48
48
80
128
64
0
-32
-64
-80
-80
-80
-80
-112
-160
-96
-32
0
32
48
48
48
48
80
144
64
0
-32
-64
-80
-80
-80
-80
-112
-160
-112
-48
0
16
48
48
48
48
64
128
64
16
-32
-64
-80
-80
-80
-80
-112
-160
-112
-48
0
32
48
32
48
32
64
128
80
16
-32
-48
-80
-80
-80
-64
-96
-160
-112
-48
0
16
48
48
48
48
64
128
80
16
-32
-48
-80
-80
-80
-80
-96
-160
-112
-48
0
16
48
48
48
48
80
128
80
16
-16
-48
-80
-80
-80
-80
-96
-160
-112
-48
0
16
48
48
48
48
64
128
80
16
-16
-48
-80
-80
-80
-80
-96
-160
-112
-48
0
32
48
48
48
48
64
128
96
16
-16
-48
-80
-80
-80
-64
-96
-160
-112
-48
0
16
48
48
48
48
64
128
96
32
-16
-32
-64
-80
-80
-64
-96
-160
-112
-48
0
16
48
48
48
48
64
128
96
32
-16
-32
-64
-64
-80
-64
-96
-160
-112
-48
0
16
48
48
48
48
64
144
96
32
0
-32
-64
-64
-64
-64
-96
-160
-112
-48
0
16
48
48
48
48
80
144
112
48
0
-32
-64
-64
-64
-64
-80
-144
-112
-48
0
32
48
48
48
48
80
144
112
48
0
-16
-64
-64
-64
-64
-80
-160
-128
-64
-16
16
48
48
48
48
64
144
128
48
0
-16
-48
-64
-64
-64
-80
-160
-128
-64
-16
16
48
48
48
48
80
144
128
48
16
-16
-48
-64
-64
-64
-80
-160
-144
-64
-16
16
48
48
48
48
80
144
128
48
16
-16
-64
-64
-64
-64
-80
-144
-128
-64
-16
16
32
48
48
48
80
144
128
48
16
-16
-48
-64
-64
-64
-80
-160
-128
-64
-16
16
32
48
48
48
80
144
128
64
16
-16
-48
-64
-64
-64
-80
-160
-144
-64
-16
16
32
48
64
64
80
144
128
64
16
-16
-48
-64
-64
-64
-80
-160
-144
-64
-16
16
48
48
48
48
80
144
128
48
16
-16
-48
-64
-64
-64
-80
-144
-128
-64
-16
16
32
48
48
48
80
144
128
64
16
-16
-48
-48
-64
-64
-80
-144
-144
-64
-16
16
48
48
48
48
80
144
144
64
16
-16
-48
-64
-64
-64
-80
-160
-144
-64
-16
16
32
48
48
48
80
144
144
64
16
-16
-48
-64
-64
-64
-80
-160
-144
-64
-16
32
48
48
48
48
64
144
144
64
16
-16
-64
-64
-80
-64
-80
-160
-144
-80
-32
16
32
32
48
48
64
144
144
64
16
-16
-48
-64
-80
-64
-80
-160
-160
-80
-32
0
32
32
48
48
64
144
144
64
32
-16
-48
-64
-80
-64
-80
-160
-160
-80
-32
0
32
32
48
48
64
144
144
64
16
-16
-48
-64
-80
-64
-80
-160
-160
-64
-32
0
32
48
48
48
64
144
144
64
16
-16
-48
-64
-64
-64
-80
-144
-144
-64
-32
0
32
32
48
48
64
144
144
64
16
-16
-48
-64
-80
-64
-80
-160
-160
-80
-32
16
32
48
48
48
64
144
144
64
16
-16
-48
-64
-80
-64
-80
-160
-176
-80
-32
0
32
32
48
48
64
144
144
64
16
-16
-48
-64
-80
-80
-96
-160
-176
-96
-48
0
32
48
48
48
64
128
144
64
16
-16
-48
-64
-80
-80
-80
-160
-176
-96
-48
0
32
32
48
48
64
128
144
64
16
-16
-48
-64
-64
-64
-80
-160
-176
-96
-48
0
32
32
48
48
64
128
144
64
16
-16
-48
-80
-80
-80
-80
-160
-176
-96
-48
0
32
32
48
48
48
128
144
64
16
-16
-48
-64
-80
-80
-80
-144
-176
-96
-48
0
32
32
48
48
48
128
144
64
16
-16
-48
-80
-80
-80
-96
-160
-192
-96
-48
-16
16
32
32
32
48
112
144
64
16
-16
-48
-80
-80
-80
-96
-160
-176
-96
-48
0
32
32
48
48
64
128
160
80
32
0
-32
-64
-64
-64
-64
-128
-160
-80
-32
16
48
48
48
48
64
144
176
96
48
0
-32
-48
-64
-64
-64
-128
-160
-80
-32
16
32
48
48
48
64
128
176
80
32
0
-32
-64
-64
-64
-80
-144
-176
-80
-32
0
32
48
48
48
64
128
160
80
32
0
-32
-64
-64
-64
-80
-144
-176
-96
-48
0
32
32
48
48
64
128
160
80
32
0
-48
-64
-80
-80
-80
-144
-176
-96
-48
0
32
32
48
48
64
128
176
80
32
0
-32
-64
-64
-64
-80
-128
-176
-96
-48
0
32
32
48
48
64
128
160
80
32
0
-48
-64
-64
-64
-80
-128
-176
-80
-32
0
32
48
48
64
64
128
160
80
32
-16
-48
-64
-64
-64
-64
-128
-160
-80
-32
0
32
48
48
48
64
112
160
80
16
-16
-48
-64
-80
-80
-80
-128
-160
-80
-32
0
32
48
32
48
48
112
144
64
16
-16
-48
-64
-80
-80
-80
-128
-176
-96
-48
0
32
48
48
48
48
112
144
64
16
-16
-48
-80
-80
-80
-80
-128
-160
-80
-32
0
16
32
48
48
48
112
144
64
16
-16
-48
-80
-80
-80
-80
-128
-160
-80
-32
0
32
48
48
48
48
96
144
64
16
-16
-48
-64
-80
-80
-80
-128
-176
-96
-48
0
32
48
48
48
48
96
144
64
16
-16
-48
-80
-80
-80
-80
-128
-160
-80
-32
16
32
48
48
48
48
96
144
64
16
-16
-48
-80
-80
-80
-80
-128
-160
-96
-32
16
48
48
48
64
64
96
144
64
16
-16
-48
-80
-80
-80
-80
-112
-160
-80
-32
16
32
48
48
48
48
96
144
64
16
-16
-48
-80
-80
-80
-80
-112
-160
-96
-32
16
32
48
48
48
48
96
144
80
32
-16
-48
-80
-80
-80
-80
-112
-160
-96
-32
0
32
48
48
48
48
96
144
80
16
-16
-48
-80
-80
-80
-80
-112
-160
-96
-32
0
32
48
48
48
48
96
144
64
16
-16
-48
-64
-80
-80
-64
-112
-160
-96
-48
0
32
48
32
48
48
96
144
80
16
-16
-48
-64
-80
-80
-80
-112
-160
-96
-48
0
32
48
48
48
48
80
144
80
32
-16
-48
-64
-80
-80
-80
-112
-160
-96
-48
0
32
48
48
64
64
96
144
80
16
-16
-48
-64
-64
-64
-64
-112
-160
-96
-48
0
32
48
48
48
48
96
144
80
32
-16
-32
-64
-64
-64
-64
-96
-160
-96
-48
0
32
48
48
48
48
96
144
80
32
0
-32
-64
-48
-64
-64
-96
-160
-80
-32
0
32
48
48
64
48
96
160
96
32
0
-32
-64
-64
-64
-64
-96
-160
-96
-32
16
32
48
48
48
48
96
144
80
32
0
-32
-64
-64
-64
-64
-96
-144
-80
-32
0
32
64
48
64
48
96
144
96
32
0
-32
-48
-64
-64
-48
-80
-144
-80
-32
16
32
48
48
64
64
96
144
96
48
0
-16
-48
-64
-64
-64
-96
-144
-96
-32
16
32
48
48
64
64
96
160
96
48
16
-16
-48
-64
-64
-64
-96
-144
-96
-32
0
32
48
48
64
64
96
160
96
48
0
-16
-48
-48
-64
-48
-80
-144
-80
-32
16
32
48
64
64
64
96
160
96
48
16
-16
-48
-48
-48
-48
-80
-128
-80
-32
16
32
48
48
64
64
96
160
96
48
16
-16
-48
-48
-48
-48
-80
-128
-80
-32
16
48
64
48
64
64
96
160
112
48
16
-16
-48
-48
-48
-48
-80
-128
-80
-32
16
48
64
64
64
64
96
160
112
48
16
-16
-48
-48
-48
-48
-80
-144
-96
-32
16
32
64
48
64
64
96
160
112
48
16
-16
-48
-48
-48
-48
-80
-128
-96
-32
16
32
48
48
64
64
80
144
112
48
16
-16
-48
-48
-48
-48
-80
-128
-96
-32
16
32
64
48
64
64
80
144
96
48
0
-16
-48
-48
-64
-48
-80
-128
-96
-32
0
32
48
48
64
64
80
144
96
48
16
-16
-48
-48
-64
-48
-80
-128
-96
-32
0
32
64
48
64
48
80
144
96
48
16
-16
-48
-48
-64
-48
-80
-128
-96
-32
0
32
48
48
64
48
80
144
96
48
0
-16
-48
-48
-64
-48
-80
-128
-96
-32
0
32
48
48
48
48
80
144
112
48
16
-16
-32
-48
-64
-48
-80
-128
-96
-32
0
32
48
48
64
48
80
144
96
48
0
-16
-48
-48
-64
-64
-80
-128
-96
-32
0
32
48
48
48
48
80
144
112
48
0
-16
-48
-48
-64
-48
-80
-128
-96
-32
16
32
48
48
64
48
80
144
112
48
0
-16
-48
-64
-64
-64
-80
-144
-112
-48
0
32
48
48
48
48
64
128
96
48
0
-16
-48
-64
-64
-64
-80
-144
-112
-48
0
32
48
48
64
48
64
144
112
48
0
-16
-48
-64
-64
-64
-80
-144
-112
-48
0
16
48
48
48
48
64
128
96
32
0
-16
-48
-64
-64
-64
-80
-128
-112
-48
0
16
32
32
48
48
64
128
96
32
0
-16
-48
-64
-64
-48
-64
-128
-112
-48
-16
16
32
32
48
48
64
128
112
32
0
-16
-48
-48
-64
-64
-80
-144
-112
-48
-16
16
32
32
48
48
64
128
112
48
0
-16
-48
-64
-64
-64
-80
-144
-112
-48
-16
16
32
32
48
48
64
128
96
48
0
-16
-48
-64
-64
-64
-80
-144
-112
-64
-16
16
32
32
48
32
64
128
96
48
0
-16
-48
-64
-64
-64
-80
-144
-128
-64
-16
16
32
32
48
48
64
128
96
32
0
-16
-48
-48
-64
-64
-80
-144
-128
-64
-16
0
32
32
48
48
64
112
96
32
0
-16
-48
-64
-64
-64
-80
-144
-128
-64
-16
16
32
32
48
32
64
112
96
32
0
-16
-48
-64
-64
-64
-80
-128
-128
-64
-16
16
32
32
48
32
48
112
112
32
0
-32
-64
-64
-64
-64
-80
-144
-128
-64
-16
0
32
32
48
32
48
112
96
32
0
-32
-64
-64
-80
-64
-80
-144
-128
-64
-32
0
32
32
32
32
48
112
112
48
16
-32
-64
-64
-64
-64
-80
-144
-128
-64
-32
0
32
32
32
32
48
112
96
32
0
-32
-48
-64
-64
-64
-80
-128
-128
-64
-32
0
32
32
48
32
48
112
112
48
0
-32
-48
-64
-64
-64
-80
-128
-128
-64
-16
16
32
32
48
32
48
112
112
32
0
-16
-48
-64
-64
-64
-80
-128
-128
-64
-16
16
32
32
48
32
48
112
112
48
0
-16
-48
-64
-64
-64
-80
-144
-128
-64
-32
16
32
32
48
48
64
112
112
48
0
-16
-48
-64
-64
-64
-80
-128
-128
-64
-16
16
32
32
32
32
48
112
112
32
0
-32
-48
-64
-64
-64
-80
-128
-128
-64
-32
16
32
32
32
32
48
96
112
32
0
-32
-64
-64
-64
-64
-80
-128
-144
-64
-32
0
32
32
32
32
48
112
112
48
0
-16
-48
-64
-64
-64
-80
-128
-144
-64
-32
0
16
32
32
32
48
96
112
32
0
-16
-48
-64
-80
-80
-80
-128
-144
-80
-32
0
32
32
32
32
48
96
112
32
0
-32
-64
-64
-80
-64
-80
-128
-144
-80
-32
0
16
32
32
32
32
96
112
32
0
-32
-48
-64
-80
-64
-80
-128
-144
-80
-32
0
16
16
32
32
32
96
96
32
0
-16
-48
-64
-80
-80
-80
-128
-144
-80
-32
0
16
16
32
32
32
96
112
32
0
-32
-64
-64
-80
-80
-80
-128
-144
-80
-48
0
16
32
32
32
32
96
96
32
0
-32
-64
-64
-80
-80
-80
-128
-144
-64
-32
0
16
16
32
16
32
80
112
32
0
-32
-64
-64
-80
-80
-80
-128
-160
-80
-48
-16
16
16
16
32
32
80
112
32
0
-32
-64
-80
-80
-80
-80
-128
-160
-80
-48
-16
16
16
16
32
32
96
112
32
0
-32
-64
-80
-80
-80
-80
-128
-160
-80
-48
-16
16
16
32
32
32
80
112
48
0
-32
-64
-64
-80
-80
-80
-128
-144
-80
-48
-16
16
16
32
32
32
80
112
48
0
-32
-48
-64
-80
-64
-64
-128
-160
-96
-48
-16
16
16
32
32
32
80
112
32
0
-32
-64
-80
-80
-80
-80
-128
-160
-96
-48
-16
16
16
16
32
32
80
112
32
0
-32
-64
-80
-80
-80
-80
-128
-160
-80
-48
-16
16
32
32
32
32
80
96
32
0
-32
-64
-64
-80
-80
-80
-128
-160
-80
-48
-16
16
16
32
32
32
80
112
32
0
-32
-48
-64
-80
-80
-80
-128
-144
-80
-48
0
16
32
32
32
32
80
112
48
0
-16
-48
-64
-80
-80
-80
-128
-144
-80
-32
0
16
32
32
32
32
80
112
32
0
-32
-48
-64
-80
-80
-80
-112
-144
-80
-32
0
16
32
32
32
32
80
112
48
16
-16
-48
-64
-64
-64
-64
-112
-144
-80
-32
0
16
32
32
32
32
80
112
48
16
-16
-48
-64
-64
-64
-80
-112
-144
-80
-32
0
16
16
32
32
32
80
112
48
16
-32
-48
-64
-80
-64
-80
-112
-144
-80
-48
0
16
16
32
32
32
80
112
48
16
-16
-48
-64
-64
-64
-64
-112
-144
-80
-48
-16
16
16
16
32
32
80
112
48
16
-16
-48
-64
-64
-64
-80
-112
-144
-80
-48
0
16
16
16
32
32
80
112
48
0
-16
-48
-64
-80
-80
-64
-96
-144
-80
-48
0
16
16
16
32
32
80
112
48
16
-16
-48
-64
-64
-64
-80
-112
-144
-80
-48
0
16
16
16
32
32
64
112
48
16
-16
-48
-64
-64
-80
-64
-112
-160
-96
-48
-16
16
16
32
32
32
80
112
48
16
-16
-48
-64
-64
-80
-80
-112
-144
-96
-48
-16
16
16
16
32
32
64
112
48
0
-16
-48
-64
-64
-80
-64
-112
-144
-96
-48
-16
16
16
32
32
32
64
112
48
0
-32
-48
-64
-64
-64
-64
-112
-160
-96
-48
-16
0
16
16
32
32
64
112
48
16
-16
-48
-64
-80
-80
-64
-112
-144
-96
-48
-16
16
16
32
32
32
64
112
48
16
-16
-48
-64
-64
-80
-64
-112
-144
-96
-48
-16
16
32
16
32
32
64
112
48
16
-16
-48
-64
-64
-80
-80
-112
-144
-96
-48
-16
16
16
16
32
32
64
112
48
16
-16
-48
-64
-64
-64
-64
-112
-144
-96
-48
-16
16
16
16
32
32
64
112
64
16
-16
-48
-64
-64
-80
-64
-96
-160
-96
-48
-16
16
16
16
32
32
64
112
48
16
-16
-48
-64
-64
-80
-64
-96
-144
-96
-48
-16
16
16
32
32
32
64
112
48
16
-16
-48
-64
-64
-80
-64
-96
-144
-80
-48
-16
16
16
16
32
32
64
112
48
16
-16
-48
-64
-80
-80
-64
-96
-160
-96
-48
-16
16
16
16
32
16
48
112
48
16
-16
-48
-64
-80
-80
-80
-112
-160
-96
-64
-16
0
16
16
32
32
64
112
48
0
-32
-48
-80
-80
-80
-80
-112
-160
-96
-48
-16
0
16
16
32
16
48
112
48
16
-16
-48
-80
-80
-80
-80
-112
-160
-96
-64
-16
0
16
16
32
16
48
112
48
16
-16
-48
-80
-64
-64
-64
-112
-160
-96
-64
-16
0
16
16
32
16
48
112
64
16
-16
-48
-64
-80
-80
-80
-112
-160
-112
-64
-16
0
16
16
32
32
64
112
64
16
-16
-48
-80
-80
-80
-80
-96
-160
-112
-64
-16
0
16
16
32
32
48
112
64
16
-16
-48
-64
-64
-80
-64
-96
-144
-96
-48
-16
0
16
16
32
32
48
112
64
16
-16
-48
-64
-64
-80
-80
-96
-160
-112
-64
-16
0
16
16
32
16
48
112
64
16
-16
-32
-64
-80
-80
-80
-96
-160
-112
-64
-16
0
16
16
32
16
48
96
48
16
-16
-48
-80
-80
-80
-80
-96
-160
-112
-64
-16
0
16
16
16
16
48
96
48
0
-32
-48
-80
-80
-80
-80
-112
-160
-112
-64
-32
0
16
16
16
16
32
96
48
0
-32
-48
-80
-80
-80
-80
-112
-160
-112
-64
-32
0
16
16
16
16
48
96
64
0
-32
-48
-80
-80
-80
-80
-112
-160
-128
-80
-32
0
16
16
16
16
32
112
64
16
-32
-48
-80
-80
-80
-80
-112
-160
-128
-80
-32
-16
16
16
16
16
32
96
48
0
-32
-48
-80
-80
-96
-80
-112
-160
-128
-80
-32
-16
0
16
16
16
32
96
48
0
-32
-48
-80
-96
-96
-80
-96
-160
-128
-80
-32
-16
16
16
16
16
32
96
48
0
-32
-48
-80
-80
-96
-80
-112
-160
-128
-80
-32
-16
16
0
16
16
32
96
48
0
-32
-64
-80
-80
-96
-80
-112
-160
-128
-80
-48
-16
16
0
16
16
32
96
48
0
-32
-48
-80
-80
-96
-96
-112
-176
-128
-80
-48
-16
0
0
16
0
32
96
48
0
-32
-48
-80
-80
-96
-96
-112
-160
-128
-80
-48
-16
0
0
16
0
32
96
48
0
-32
-48
-80
-80
-96
-96
-112
-160
-128
-80
-48
-16
0
0
16
16
32
96
64
0
-32
-64
-80
-80
-96
-80
-112
-160
-128
-80
-48
-16
0
0
0
0
32
80
64
0
-32
-64
-80
-96
-96
-80
-112
-160
-128
-80
-32
0
16
0
16
16
32
80
64
0
-32
-48
-80
-80
-96
-80
-96
-160
-128
-80
-48
-16
0
0
16
16
32
80
64
0
-32
-48
-80
-80
-96
-80
-96
-160
-128
-80
-48
-16
0
0
16
16
32
80
64
16
-16
-48
-80
-80
-96
-80
-96
-160
-128
-80
-48
-16
0
0
16
16
32
96
64
0
-32
-48
-80
-80
-80
-80
-96
-160
-128
-80
-32
-16
0
0
16
0
16
80
64
0
-32
-48
-80
-80
-96
-80
-96
-144
-128
-80
-48
-16
0
0
16
16
32
96
64
16
-32
-48
-80
-80
-96
-80
-96
-160
-128
-80
-48
-16
0
0
16
16
32
80
64
16
-32
-48
-80
-80
-80
-80
-96
-160
-128
-80
-48
-16
0
0
16
16
32
96
64
16
-16
-48
-80
-80
-80
-80
-96
-160
-128
-80
-48
-16
16
0
16
16
32
96
80
16
-16
-48
-80
-80
-80
-80
-96
-144
-128
-80
-32
-16
16
16
16
16
32
96
80
16
-16
-48
-64
-64
-80
-80
-96
-144
-128
-64
-32
-16
16
0
16
16
32
96
80
16
-16
-48
-64
-80
-80
-80
-80
-144
-128
-64
-32
0
16
16
16
16
32
96
80
16
-16
-48
-64
-80
-80
-80
-96
-144
-128
-64
-32
0
16
16
32
16
32
96
80
16
-16
-32
-64
-80
-80
-80
-80
-144
-128
-64
-32
0
16
16
32
16
32
96
80
16
-16
-32
-64
-80
-80
-80
-80
-144
-128
-64
-32
0
16
16
32
32
32
96
80
16
0
-32
-64
-64
-80
-64
-80
-128
-128
-64
-32
0
16
0
16
16
32
96
96
32
-16
-32
-64
-64
-80
-64
-80
-128
-128
-64
-32
0
16
16
32
32
32
96
96
32
0
-32
-64
-64
-64
-64
-80
-128
-128
-48
-32
0
16
16
32
32
32
96
96
32
0
-32
-64
-64
-64
-64
-80
-128
-128
-64
-32
0
16
16
32
32
32
96
96
32
0
-32
-64
-64
-64
-64
-80
-128
-128
-64
-32
0
16
16
32
32
48
112
96
32
0
-32
-64
-64
-64
-64
-80
-128
-128
-64
-32
0
16
16
32
32
32
96
96
32
0
-32
-64
-64
-80
-64
-80
-128
-128
-64
-32
0
16
16
32
32
32
96
96
32
0
-32
-48
-64
-64
-48
-64
-128
-128
-64
-32
0
16
16
32
32
48
96
96
32
0
-32
-48
-64
-64
-64
-64
-128
-128
-64
-32
0
16
16
32
32
32
96
96
32
0
-32
-48
-64
-64
-64
-80
-128
-128
-64
-32
0
32
32
32
32
48
96
96
32
0
-16
-48
-64
-64
-64
-64
-112
-128
-64
-32
0
32
16
32
32
32
96
96
32
0
-16
-48
-64
-64
-64
-80
-128
-128
-64
-32
0
32
16
32
32
32
96
96
32
0
-16
-48
-64
-64
-64
-64
-112
-128
-64
-32
0
16
16
32
32
32
96
96
32
0
-16
-48
-64
-64
-64
-80
-112
-128
-64
-32
0
16
32
32
32
48
96
96
32
0
-32
-48
-64
-64
-64
-64
-112
-128
-48
-16
0
16
32
32
32
32
96
96
32
0
-16
-48
-64
-64
-64
-64
-112
-128
-64
-32
0
16
16
32
32
48
96
112
32
0
-16
-48
-64
-64
-64
-64
-112
-128
-64
-32
0
16
16
32
32
32
96
112
48
16
-16
-48
-64
-64
-64
-64
-112
-128
-64
-32
0
16
32
32
32
32
96
112
32
0
-16
-48
-64
-64
-64
-64
-112
-128
-64
-32
0
16
32
32
32
32
80
112
32
0
-16
-48
-64
-64
-64
-64
-96
-128
-64
-32
0
32
32
32
32
48
80
112
48
16
-16
-48
-64
-64
-64
-64
-112
-128
-64
-32
0
16
32
32
32
48
96
112
48
16
-16
-48
-64
-64
-64
-64
-112
-128
-64
-32
0
32
32
32
48
48
96
112
48
16
-16
-48
-48
-64
-64
-64
-112
-128
-64
-32
0
32
32
32
32
32
80
112
48
16
-16
-48
-48
-64
-64
-64
-112
-128
-64
-32
0
16
32
32
32
48
96
112
48
16
-16
-32
-48
-48
-48
-64
-96
-128
-64
-32
0
32
32
32
48
48
96
112
48
16
-16
-32
-48
-64
-48
-64
-96
-128
-64
-32
16
32
32
32
48
48
96
112
48
16
0
-32
-48
-48
-48
-48
-96
-128
-64
-32
16
32
32
32
48
48
96
128
48
16
0
-32
-48
-48
-48
-48
-96
-128
-64
-32
0
32
32
32
48
48
96
128
48
16
0
-32
-48
-48
-48
-64
-96
-128
-64
-32
0
32
32
32
48
48
96
112
48
32
0
-32
-48
-48
-48
-48
-96
-128
-64
-16
0
32
32
32
48
48
96
128
48
16
0
-32
-48
-48
-48
-48
-96
-128
-64
-16
0
32
32
32
48
48
96
128
48
32
0
-32
-48
-48
-48
-48
-96
-112
-48
-16
0
32
32
32
48
48
96
128
64
16
0
-32
-48
-48
-48
-48
-96
-128
-64
-32
16
32
48
32
48
48
80
128
64
16
0
-32
-48
-48
-48
-48
-80
-128
-64
-32
16
32
32
48
48
48
96
128
64
32
0
-32
-48
-48
-48
-48
-80
-128
-64
-32
0
32
32
32
48
48
80
128
64
32
0
-32
-48
-48
-48
-48
-80
-128
-64
-32
0
32
32
48
48
48
80
128
64
32
0
-32
-48
-48
-48
-48
-96
-128
-64
-32
0
32
48
48
48
48
80
128
64
16
0
-32
-48
-48
-48
-48
-80
-128
-64
-32
0
32
32
48
48
48
80
128
64
32
0
-32
-48
-48
-48
-48
-80
-128
-64
-32
0
32
48
32
48
48
80
128
64
16
-16
-32
-48
-48
-48
-48
-80
-128
-64
-32
0
32
48
32
48
48
80
128
64
32
0
-32
-48
-48
-48
-48
-80
-128
-64
-16
0
16
32
32
48
48
80
128
64
32
0
-16
-48
-48
-48
-48
-80
-128
-64
-32
16
32
48
32
48
48
80
128
64
32
0
-32
-48
-48
-48
-48
-80
-128
-64
-32
0
32
48
48
48
48
80
128
64
32
0
-32
-48
-48
-48
-48
-80
-128
-64
-16
16
32
48
32
48
48
80
128
64
32
0
-32
-48
-48
-48
-48
-80
-112
-64
-32
0
32
32
32
48
48
80
128
64
32
0
-16
-48
-48
-48
-48
-80
-128
-64
-32
0
32
32
32
48
48
80
144
80
32
0
-32
-48
-48
-48
-48
-80
-128
-64
-32
0
32
48
32
48
48
80
128
64
32
0
-32
-48
-48
-48
-48
-80
-128
-64
-32
0
32
32
32
48
48
80
128
64
32
0
-16
-48
-48
-48
-32
-64
-128
-64
-32
0
32
32
32
48
48
80
128
80
32
0
-32
-48
-48
-48
-48
-80
-128
-80
-32
0
16
32
32
48
48
80
128
80
32
0
-32
-48
-48
-48
-48
-80
-128
-64
-32
0
16
32
48
48
48
80
128
64
32
0
-32
-48
-48
-48
-48
-80
-128
-80
-32
0
32
48
32
48
48
80
128
64
32
0
-32
-48
-48
-48
-48
-80
-128
-64
-32
0
32
32
32
48
48
64
128
80
32
0
-16
-32
-48
-48
-48
-80
-128
-64
-32
0
16
32
48
48
48
80
128
80
32
0
-16
-48
-48
-48
-48
-80
-128
-80
-32
0
16
48
48
48
48
80
128
80
32
0
-16
-48
-48
-48
-48
-80
-128
-80
-32
16
32
48
48
48
48
64
128
80
32
0
-32
-48
-48
-48
-48
-80
-128
-80
-32
0
32
48
32
48
48
80
128
80
32
0
-16
-48
-48
-48
-48
-80
-128
-80
-32
0
32
48
48
48
48
80
128
96
48
16
-16
-48
-48
-48
-48
-80
-128
-80
-32
0
32
48
48
48
48
80
128
80
32
0
-16
-48
-48
-48
-48
-80
-128
-80
-32
0
32
48
32
48
48
80
144
96
32
0
-16
-48
-48
-48
-48
-64
-112
-80
-32
0
32
48
48
48
48
80
144
96
48
16
-16
-48
-48
-48
-48
-80
-144
-96
-32
0
32
48
48
48
48
80
144
96
48
16
-16
-48
-48
-48
-48
-80
-128
-96
-32
0
32
48
48
64
64
80
144
96
48
16
-16
-48
-48
-48
-48
-80
-144
-96
-32
0
32
48
48
48
48
80
144
96
48
16
-16
-48
-48
-48
-48
-80
-144
-96
-32
0
32
48
48
48
48
80
144
96
48
16
-16
-48
-32
-48
-48
-80
-128
-96
-32
0
32
48
48
48
48
80
144
96
48
16
-16
-48
-48
-48
-48
-80
-128
-96
-48
0
32
48
48
48
48
80
144
112
48
16
-16
-48
-48
-64
-48
-64
-128
-96
-32
0
32
64
48
64
64
80
144
96
48
16
-16
-48
-48
-48
-48
-64
-128
-96
-32
0
32
48
48
48
48
80
144
112
48
16
-16
-48
-48
-48
-48
-64
-128
-96
-32
0
32
48
48
64
64
80
144
112
48
16
0
-48
-48
-48
-48
-80
-128
-96
-32
0
32
48
48
64
64
80
144
112
48
16
-16
-48
-48
-48
-48
-64
-128
-96
-32
0
32
48
48
64
64
80
144
112
48
16
-16
-48
-48
-48
-48
-64
-128
-80
-16
16
32
48
48
48
48
80
144
112
48
16
-16
-48
-48
-48
-48
-64
-128
-96
-32
0
32
48
48
64
48
80
144
112
48
16
-16
-48
-48
-64
-48
-64
-128
-96
-32
0
32
48
48
48
48
80
144
112
48
16
-16
-48
-48
-48
-48
-64
-128
-112
-48
0
16
48
48
64
48
64
144
112
48
16
-16
-48
-48
-64
-48
-64
-128
-112
-48
0
16
48
48
64
48
64
144
112
48
16
-16
-48
-48
-48
-48
-64
-144
-112
-48
-16
16
48
48
48
48
64
128
112
48
16
-16
-48
-48
-64
-48
-64
-128
-112
-48
0
32
48
48
64
48
64
128
112
48
16
-16
-48
-48
-64
-48
-64
-128
-112
-48
0
32
48
48
48
48
64
128
112
48
16
-16
-48
-48
-64
-48
-64
-128
-112
-48
-16
16
48
48
48
48
64
128
128
48
16
-16
-48
-48
-64
-48
-80
-128
-112
-48
0
16
48
48
48
48
64
128
128
48
16
0
-32
-48
-64
-48
-64
-128
-112
-48
0
16
48
48
64
48
64
128
128
48
16
-16
-48
-48
-64
-48
-64
-128
-112
-48
0
16
48
48
48
48
64
128
128
48
16
-16
-48
-48
-64
-48
-64
-128
-112
-48
0
16
48
48
64
48
64
128
128
48
16
-16
-48
-64
-64
-64
-64
-128
-112
-48
-16
32
48
48
64
48
64
128
128
48
16
-16
-48
-64
-64
-64
-64
-128
-128
-48
-16
16
48
48
48
48
64
128
128
48
16
-16
-48
-64
-64
-64
-64
-128
-128
-48
-16
16
48
48
48
48
64
128
128
48
16
-16
-48
-64
-64
-64
-80
-128
-128
-48
-16
16
48
48
48
48
64
128
128
48
16
-16
-48
-64
-64
-64
-64
-128
-128
-64
-16
16
48
48
48
48
64
112
128
48
16
-16
-48
-64
-64
-64
-80
-128
-128
-48
-16
16
48
48
48
48
64
112
128
48
16
-16
-48
-64
-64
-64
-80
-128
-144
-64
-16
16
48
48
48
48
64
112
128
48
16
-16
-48
-64
-64
-64
-80
-128
-144
-64
-16
16
32
48
48
48
48
112
128
48
16
-16
-48
-64
-64
-64
-80
-128
-144
-64
-16
16
32
48
48
48
48
112
128
48
0
-16
-48
-64
-64
-64
-80
-128
-144
-64
-16
16
32
48
48
48
48
112
128
48
16
-16
-48
-64
-64
-64
-80
-128
-144
-64
-16
16
32
48
48
48
48
112
128
48
16
-16
-48
-64
-64
-64
-80
-128
-144
-64
-32
16
48
48
48
48
48
112
128
48
16
-16
-48
-64
-64
-64
-80
-128
-144
-64
-32
0
32
32
32
48
48
112
128
48
0
-16
-64
-64
-64
-64
-80
-128
-144
-64
-32
0
32
48
48
48
48
112
128
48
16
-16
-48
-64
-64
-64
-80
-128
-144
-64
-32
0
32
32
48
48
48
112
128
48
16
-16
-64
-64
-64
-64
-80
-128
-144
-64
-32
16
32
48
48
48
48
112
128
48
16
-16
-48
-64
-64
-64
-64
-112
-128
-64
-32
16
32
48
48
48
64
112
144
48
16
-16
-48
-64
-64
-64
-64
-128
-144
-64
-16
16
32
48
48
48
64
112
144
64
16
-16
-48
-64
-64
-64
-64
-128
-144
-64
-32
0
32
48
48
48
64
112
144
64
16
-16
-48
-64
-64
-64
-80
-128
-144
-64
-32
16
32
48
48
48
48
112
144
64
16
-16
-48
-64
-64
-64
-64
-128
-144
-64
-32
16
32
48
48
48
48
112
144
64
16
-16
-48
-64
-64
-64
-64
-128
-160
-80
-32
16
32
48
48
48
48
112
144
64
16
-16
-48
-64
-64
-64
-64
-112
-160
-80
-32
0
32
48
48
48
48
96
144
64
16
-16
-48
-64
-64
-64
-64
-112
-160
-80
-32
0
32
48
48
48
48
112
144
64
16
-16
-48
-64
-64
-64
-80
-128
-160
-80
-32
0
32
48
48
48
48
96
144
64
16
-16
-48
-64
-80
-80
-80
-112
-160
-80
-32
0
32
48
48
48
48
96
144
64
32
0
-32
-64
-64
-80
-80
-112
-160
-80
-32
0
32
48
48
48
48
112
160
64
32
-16
-48
-64
-64
-64
-64
-112
-160
-80
-32
0
32
48
48
64
64
112
160
80
32
0
-32
-64
-64
-64
-64
-112
-160
-64
-16
16
32
48
48
64
64
112
160
80
32
0
-32
-64
-64
-64
-64
-112
-160
-80
-32
0
32
48
48
48
64
96
160
80
32
0
-32
-64
-64
-64
-64
-112
-160
-80
-32
0
32
48
48
48
48
112
160
80
32
0
-48
-64
-64
-64
-64
-112
-160
-96
-48
0
32
48
48
48
48
96
160
80
32
0
-32
-64
-64
-64
-64
-112
-160
-96
-48
0
32
48
48
48
48
96
160
80
32
0
-32
-64
-64
-64
-64
-112
-160
-96
-48
0
32
32
48
48
48
96
160
80
32
0
-32
-64
-64
-64
-64
-112
-160
-96
-48
0
16
32
32
48
48
96
144
80
32
0
-32
-64
-64
-64
-64
-112
-160
-96
-48
0
16
32
48
48
48
96
144
80
32
0
-32
-64
-64
-64
-64
-112
-160
-96
-48
0
16
32
32
48
48
96
160
80
32
0
-32
-64
-64
-64
-64
-96
-160
-80
-32
0
32
48
32
48
48
96
160
80
32
0
-16
-48
-48
-64
-64
-96
-160
-96
-48
0
32
48
48
48
48
96
160
96
32
0
-32
-64
-64
-64
-64
-96
-160
-96
-48
0
32
48
48
48
48
96
144
80
32
0
-32
-64
-64
-64
-64
-112
-160
-96
-48
0
32
48
48
48
48
96
160
96
32
0
-32
-64
-64
-64
-64
-112
-160
-112
-48
-16
16
32
32
48
48
80
144
96
32
0
-32
-64
-64
-80
-64
-112
-160
-112
-48
0
16
48
48
48
48
80
160
96
48
0
-32
-64
-64
-80
-64
-112
-160
-112
-48
0
16
48
32
48
48
80
144
96
32
0
-32
-64
-64
-64
-64
-96
-160
-112
-48
-16
16
32
32
48
48
80
144
96
32
0
-32
-64
-64
-64
-64
-96
-160
-112
-48
-16
16
32
32
48
48
80
144
96
32
0
-32
-64
-64
-64
-64
-96
-160
-112
-48
-16
16
32
32
48
48
80
144
96
48
0
-32
-64
-64
-64
-64
-96
-160
-112
-48
-16
16
32
48
48
48
80
144
96
48
16
-16
-48
-64
-64
-64
-96
-160
-112
-64
-16
16
32
32
48
48
80
144
96
48
16
-16
-48
-64
-64
-64
-96
-160
-112
-48
-16
16
32
32
48
48
80
144
96
48
16
-16
-48
-48
-48
-64
-96
-160
-112
-48
-16
16
32
32
48
48
80
144
96
48
16
-16
-48
-64
-64
-64
-96
-160
-112
-48
-16
16
32
32
48
48
80
144
96
48
0
-16
-64
-64
-64
-64
-96
-160
-112
-64
-16
16
48
32
48
48
80
144
96
32
0
-16
-64
-64
-64
-64
-96
-160
-128
-64
-16
16
32
32
48
48
80
144
96
32
0
-32
-64
-64
-64
-64
-96
-160
-128
-64
-16
16
32
32
48
48
64
144
96
48
16
-16
-64
-64
-64
-64
-96
-160
-112
-48
-16
16
32
16
32
32
64
144
96
32
0
-32
-64
-64
-64
-64
-96
-160
-128
-64
-16
16
32
32
48
48
64
144
96
32
0
-32
-64
-64
-80
-64
-96
-160
-112
-48
-16
16
32
32
48
48
64
144
96
32
0
-32
-64
-64
-80
-64
-96
-160
-128
-64
-16
16
32
32
48
32
64
128
96
32
0
-32
-64
-64
-80
-64
-96
-160
-128
-64
-32
0
32
32
48
48
80
144
112
32
0
-32
-64
-64
-80
-80
-96
-160
-128
-64
-16
0
32
32
32
32
64
128
112
32
0
-32
-64
-64
-80
-80
-96
-160
-128
-64
-32
0
32
32
32
32
64
128
96
32
0
-32
-64
-80
-80
-64
-96
-160
-144
-64
-32
0
16
16
32
32
48
128
96
32
0
-32
-64
-80
-80
-80
-96
-160
-144
-80
-32
-16
16
16
32
16
48
112
96
32
-16
-32
-80
-80
-96
-80
-96
-160
-144
-80
-32
0
16
32
32
32
48
112
96
32
-16
-48
-80
-80
-96
-80
-112
-176
-160
-80
-32
0
16
32
32
16
48
112
96
16
-16
-32
-80
-80
-96
-80
-112
-176
-160
-80
-48
0
16
16
32
32
48
112
96
16
-16
-32
-64
-80
-96
-80
-112
-176
-160
-80
-48
-16
16
16
32
16
48
112
96
16
-16
-48
-80
-80
-96
-96
-112
-176
-160
-80
-48
-16
16
16
16
16
32
112
96
16
-16
-48
-80
-96
-96
-96
-112
-176
-160
-80
-32
0
16
16
16
16
32
96
96
16
-16
-48
-80
-96
-96
-96
-112
-176
-176
-96
-48
-16
16
16
16
16
32
96
96
16
-16
-48
-80
-96
-96
-96
-112
-176
-176
-96
-64
-16
0
16
16
16
32
96
96
16
-16
-48
-96
-96
-96
-96
-112
-176
-176
-96
-48
-16
16
16
16
16
32
96
96
16
-16
-48
-80
-96
-96
-96
-112
-176
-176
-96
-64
-16
16
16
16
16
32
96
96
16
-16
-48
-80
-96
-96
-96
-96
-160
-176
-96
-64
-32
0
16
16
16
32
96
96
16
-16
-48
-80
-96
-96
-96
-112
-176
-176
-96
-64
-32
0
16
16
16
32
96
96
16
-16
-48
-80
-96
-96
-96
-112
-176
-176
-96
-48
-16
0
16
16
32
32
96
96
16
-16
-48
-80
-96
-96
-96
-112
-176
-176
-96
-64
-16
16
16
16
16
32
96
96
16
-16
-48
-80
-96
-96
-96
-112
-176
-176
-96
-64
-16
16
16
16
16
32
96
112
32
-16
-48
-80
-80
-96
-96
-112
-160
-176
-96
-64
-16
16
16
16
16
32
96
112
32
-16
-48
-80
-96
-96
-96
-112
-160
-176
-96
-64
-16
16
0
16
16
32
96
112
32
-16
-48
-80
-96
-96
-96
-112
-160
-176
-96
-48
-16
16
16
16
32
32
96
112
32
0
-32
-80
-96
-96
-96
-96
-160
-176
-96
-64
-16
16
16
16
32
32
96
112
32
0
-32
-64
-80
-96
-96
-96
-160
-176
-96
-48
-16
16
16
32
32
32
96
112
32
0
-32
-64
-80
-96
-96
-96
-160
-176
-96
-48
-16
16
16
16
16
32
96
112
32
0
-32
-64
-80
-80
-80
-96
-160
-176
-96
-48
-16
0
0
16
32
32
96
128
48
0
-32
-64
-80
-80
-80
-96
-144
-160
-80
-48
-16
16
16
16
32
48
96
128
48
0
-32
-64
-80
-80
-80
-80
-144
-160
-80
-48
-16
16
16
32
32
48
96
128
48
0
-32
-64
-80
-80
-80
-80
-144
-176
-96
-48
-16
16
16
32
32
48
112
128
48
0
-32
-64
-80
-80
-80
-80
-144
-176
-96
-48
-16
16
16
32
32
32
96
128
48
0
-32
-64
-80
-80
-80
-96
-144
-176
-96
-48
-16
16
16
32
32
32
96
128
48
0
-32
-64
-80
-80
-80
-80
-144
-176
-96
-48
-16
16
16
32
32
32
96
128
48
0
-32
-64
-80
-80
-80
-96
-144
-176
-96
-48
-16
16
16
16
32
32
96
128
48
0
-32
-64
-80
-80
-80
-96
-144
-176
-96
-48
-16
16
32
32
32
32
96
128
48
0
-32
-64
-96
-96
-96
-96
-144
-192
-112
-64
-16
16
16
16
32
32
80
128
48
0
-32
-64
-96
-96
-96
-96
-144
-176
-96
-64
-16
0
16
16
16
32
80
128
48
0
-32
-64
-80
-96
-96
-96
-144
-192
-112
-64
-32
0
16
16
16
32
80
128
48
0
-32
-80
-96
-96
-96
-96
-144
-192
-112
-64
-16
16
32
32
32
32
80
128
48
0
-32
-64
-96
-96
-96
-96
-144
-176
-96
-48
-16
0
16
16
32
32
80
128
32
0
-32
-64
-96
-96
-96
-96
-144
-176
-112
-64
-16
0
16
16
16
32
80
112
48
0
-32
-64
-96
-96
-96
-96
-144
-192
-112
-64
-16
0
16
16
16
32
80
128
48
0
-32
-64
-96
-96
-96
-96
-144
-192
-112
-64
-16
0
16
16
16
16
64
128
48
0
-32
-64
-96
-96
-96
-96
-144
-192
-112
-64
-32
0
16
16
16
16
64
128
48
0
-32
-64
-96
-96
-96
-80
-128
-192
-112
-64
-16
0
16
16
16
16
64
128
48
0
-32
-64
-96
-96
-96
-96
-144
-192
-112
-64
-32
0
16
16
16
16
64
128
48
0
-32
-64
-96
-96
-96
-96
-144
-192
-112
-64
-32
0
16
16
32
32
64
112
48
0
-32
-64
-96
-96
-96
-96
-128
-192
-112
-64
-32
0
16
16
16
16
64
128
48
0
-32
-64
-96
-96
-96
-96
-128
-192
-112
-64
-32
0
16
16
16
32
64
128
48
0
-32
-48
-80
-80
-96
-96
-128
-192
-128
-64
-32
0
16
16
32
32
64
128
64
0
-32
-64
-96
-96
-96
-96
-128
-192
-128
-64
-32
0
16
16
32
16
64
128
64
0
-32
-64
-96
-96
-96
-96
-128
-192
-128
-64
-16
0
16
16
32
16
64
128
64
0
-32
-64
-96
-96
-96
-96
-128
-192
-128
-64
-32
0
16
16
16
16
64
128
64
0
-32
-64
-96
-96
-96
-96
-128
-192
-128
-80
-32
0
16
16
16
16
64
128
64
16
-32
-64
-96
-96
-96
-96
-128
-192
-128
-80
-32
0
16
16
32
16
64
128
64
0
-32
-64
-96
-96
-96
-96
-128
-192
-128
-80
-32
0
16
16
32
16
64
128
64
0
-32
-64
-96
-96
-96
-96
-128
-176
-128
-64
-32
0
16
16
32
16
64
128
64
0
-32
-64
-96
-96
-96
-96
-128
-192
-128
-80
-32
-16
16
16
16
16
48
112
64
0
-32
-64
-96
-96
-96
-96
-128
-192
-128
-80
-32
-16
16
16
32
32
64
128
64
0
-32
-64
-96
-96
-96
-96
-128
-192
-144
-80
-32
0
16
16
16
16
48
128
64
0
-32
-64
-96
-96
-96
-96
-128
-192
-144
-80
-32
0
16
16
16
16
48
128
80
16
-32
-64
-80
-80
-80
-96
-128
-192
-144
-80
-32
0
16
16
16
16
48
128
80
16
-32
-64
-96
-96
-96
-96
-128
-192
-144
-80
-32
-16
16
16
32
16
48
128
80
16
-32
-48
-96
-96
-96
-96
-128
-176
-144
-80
-32
0
16
16
32
32
48
128
80
16
-32
-48
-80
-96
-96
-96
-112
-176
-144
-80
-32
0
16
16
32
16
48
112
80
16
-32
-48
-80
-96
-96
-96
-112
-192
-144
-80
-32
-16
16
16
32
16
48
112
80
16
-16
-48
-80
-96
-96
-96
-128
-192
-144
-80
-32
-16
16
16
32
16
48
112
80
16
-32
-48
-96
-96
-96
-96
-112
-176
-144
-80
-32
-16
16
16
16
16
48
112
80
16
-32
-48
-96
-96
-96
-96
-112
-176
-144
-64
-32
-16
16
16
16
16
48
112
80
16
-32
-48
-80
-96
-96
-96
-112
-176
-144
-80
-32
0
16
16
32
16
48
112
80
16
-32
-48
-96
-96
-96
-96
-112
-176
-144
-80
-32
0
16
16
32
16
48
128
96
16
-16
-48
-80
-96
-96
-80
-112
-176
-144
-80
-48
-16
16
16
32
32
48
112
96
16
-16
-48
-80
-96
-96
-80
-112
-176
-144
-80
-32
0
16
16
32
32
48
112
96
16
-16
-48
-80
-96
-80
-80
-96
-176
-144
-80
-32
0
16
16
32
32
48
112
96
16
-16
-48
-80
-80
-96
-80
-112
-176
-144
-80
-32
0
16
16
32
32
48
112
96
16
-16
-48
-80
-96
-96
-80
-112
-176
-144
-80
-48
-16
16
16
32
32
48
112
96
16
-16
-48
-80
-80
-96
-80
-112
-176
-160
-80
-32
0
16
16
32
32
48
112
96
32
-16
-48
-80
-96
-96
-80
-112
-176
-160
-80
-32
0
16
32
32
32
48
112
96
16
-16
-32
-64
-80
-96
-80
-96
-160
-160
-80
-32
0
32
16
32
32
48
128
112
32
-16
-48
-80
-80
-80
-80
-96
-160
-144
-80
-32
0
16
16
32
32
48
112
112
32
-16
-32
-80
-80
-96
-80
-96
-160
-144
-64
-16
0
16
32
32
32
48
112
112
32
-16
-48
-80
-96
-96
-80
-96
-160
-144
-80
-32
0
16
32
32
32
48
112
112
32
-16
-32
-80
-80
-80
-80
-96
-160
-144
-80
-32
0
16
16
32
32
48
128
112
32
-16
-32
-80
-80
-80
-80
-96
-160
-144
-80
-32
0
32
32
32
32
48
112
112
32
0
-32
-64
-80
-80
-80
-96
-160
-160
-80
-32
0
32
16
32
32
48
112
112
32
0
-32
-64
-80
-80
-80
-80
-144
-144
-80
-32
0
16
32
32
32
48
112
112
32
0
-32
-64
-80
-80
-80
-96
-160
-160
-80
-32
0
16
16
16
32
48
112
112
32
0
-32
-80
-80
-80
-80
-96
-160
-160
-80
-32
-16
16
16
32
48
48
112
112
32
0
-32
-64
-80
-80
-80
-96
-160
-160
-80
-32
0
16
32
32
32
48
112
112
32
0
-32
-64
-80
-80
-80
-96
-144
-160
-80
-32
0
16
32
32
32
48
112
112
32
0
-32
-64
-64
-80
-80
-96
-144
-160
-80
-32
0
16
32
32
32
48
112
112
32
0
-32
-64
-80
-80
-80
-96
-160
-160
-80
-48
0
16
32
32
32
48
112
128
32
0
-32
-64
-80
-80
-80
-96
-160
-160
-80
-32
0
32
32
32
32
48
112
128
48
0
-32
-64
-80
-80
-80
-96
-144
-160
-80
-48
0
32
32
32
32
48
112
128
48
0
-32
-64
-80
-80
-80
-96
-144
-160
-80
-48
0
16
32
32
32
48
112
128
48
16
-32
-64
-80
-80
-80
-96
-144
-160
-80
-48
0
32
32
32
48
48
112
128
48
0
-32
-64
-80
-80
-80
-80
-144
-160
-80
-32
0
32
32
32
48
48
112
128
48
0
-32
-64
-80
-80
-80
-80
-128
-160
-80
-48
0
16
16
32
32
48
96
128
48
0
-32
-64
-80
-80
-80
-96
-144
-176
-96
-48
-16
16
32
32
32
48
96
128
48
0
-32
-64
-80
-80
-80
-96
-144
-176
-96
-48
0
16
32
32
48
48
112
128
48
0
-32
-64
-80
-80
-80
-80
-144
-160
-96
-48
0
16
16
32
32
48
96
128
48
0
-32
-64
-80
-80
-80
-80
-144
-176
-96
-48
0
16
32
32
32
48
96
128
48
0
-32
-64
-80
-64
-64
-80
-144
-176
-96
-48
0
16
32
32
32
48
96
128
48
0
-32
-64
-80
-80
-80
-80
-144
-176
-96
-48
0
16
32
32
48
48
96
144
64
16
-16
-48
-80
-80
-80
-80
-128
-160
-96
-48
0
32
48
48
48
48
96
128
48
16
-16
-48
-80
-80
-80
-80
-128
-176
-80
-48
0
16
32
32
48
48
96
144
64
16
-16
-48
-80
-80
-80
-80
-128
-176
-96
-48
0
16
32
32
48
48
96
144
64
16
-16
-48
-80
-80
-80
-80
-128
-176
-96
-48
0
16
32
32
32
48
96
144
48
0
-32
-64
-80
-80
-80
-80
-128
-176
-96
-48
-16
16
32
32
32
48
96
144
64
16
-16
-48
-80
-80
-80
-80
-128
-176
-80
-48
0
16
32
32
32
48
96
144
64
16
-16
-48
-80
-80
-80
-80
-128
-176
-96
-48
0
16
32
32
32
48
96
144
64
16
-32
-48
-80
-80
-80
-80
-128
-176
-96
-48
-16
16
32
32
32
48
96
144
64
16
-16
-48
-80
-80
-80
-80
-128
-176
-96
-48
-16
16
32
32
32
32
80
144
64
16
-16
-48
-80
-80
-80
-80
-128
-176
-96
-48
-16
16
32
32
48
48
80
144
64
16
-16
-48
-80
-80
-80
-80
-128
-176
-112
-48
-16
16
32
32
32
32
80
144
64
16
-16
-48
-80
-80
-80
-80
-128
-176
-112
-48
-16
16
32
32
32
32
80
144
64
16
-16
-48
-80
-80
-80
-80
-128
-176
-96
-48
0
16
32
32
48
32
80
144
64
16
-16
-48
-80
-80
-80
-80
-128
-176
-112
-64
-16
16
32
32
32
32
80
144
64
16
-16
-48
-80
-80
-80
-80
-128
-176
-112
-48
-16
16
32
32
32
32
80
144
80
16
-16
-48
-64
-80
-80
-80
-112
-176
-112
-64
-16
16
32
32
48
48
80
144
80
16
-16
-48
-80
-80
-80
-80
-112
-176
-112
-48
-16
16
32
32
48
32
80
144
80
16
-16
-48
-80
-80
-80
-80
-112
-176
-112
-48
0
16
32
32
48
32
80
144
80
16
-16
-48
-80
-80
-80
-80
-112
-176
-112
-48
-16
16
32
32
48
48
80
144
80
16
-16
-48
-80
-80
-96
-80
-128
-176
-112
-64
-16
16
32
32
48
48
80
144
96
32
-16
-48
-80
-80
-80
-80
-112
-176
-112
-64
-16
16
32
32
48
32
80
128
80
16
-16
-48
-80
-80
-80
-80
-112
-176
-112
-64
-16
16
32
32
32
32
64
144
80
16
-32
-48
-80
-80
-80
-80
-112
-176
-128
-64
-16
16
32
32
32
32
64
128
80
16
-16
-48
-80
-80
-80
-80
-112
-176
-128
-64
-16
0
32
32
32
32
64
128
80
16
-16
-48
-80
-80
-96
-80
-128
-176
-128
-64
-16
0
16
32
32
32
64
128
80
16
-16
-48
-80
-80
-80
-80
-112
-176
-128
-64
-32
0
16
16
32
32
64
128
80
16
-16
-48
-80
-80
-96
-80
-112
-176
-128
-64
-16
0
32
32
32
32
64
128
80
16
-16
-48
-80
-80
-80
-80
-112
-176
-128
-64
-32
0
32
16
32
32
64
128
80
16
-16
-48
-80
-80
-96
-80
-112
-176
-128
-64
-16
0
32
32
32
32
64
128
80
16
-16
-48
-80
-80
-80
-80
-112
-176
-128
-64
-16
16
48
32
32
32
64
128
96
32
-16
-48
-80
-80
-80
-80
-112
-176
-128
-64
-16
0
32
32
32
32
64
128
96
32
-16
-48
-80
-80
-80
-80
-112
-176
-128
-64
-16
16
32
32
48
32
64
128
96
32
0
-48
-80
-80
-80
-80
-112
-176
-128
-64
-16
0
32
32
48
32
64
128
96
32
-16
-32
-80
-80
-80
-80
-112
-176
-128
-64
-16
16
32
32
32
32
64
144
96
32
-16
-32
-80
-80
-80
-80
-112
-160
-128
-64
-16
16
32
32
48
32
64
128
96
32
-16
-48
-80
-80
-80
-80
-112
-176
-128
-64
-16
0
32
16
32
32
64
128
96
32
-16
-32
-80
-80
-80
-80
-96
-160
-144
-64
-16
0
32
32
48
48
64
144
96
32
-16
-32
-64
-80
-80
-80
-96
-160
-144
-64
-16
0
32
32
48
32
64
128
112
32
-16
-32
-80
-80
-80
-80
-96
-160
-144
-64
-16
16
32
32
48
32
64
128
112
32
0
-32
-64
-80
-64
-64
-96
-160
-144
-64
-16
16
32
32
32
32
64
128
112
32
0
-32
-64
-80
-80
-80
-96
-160
-144
-64
-16
16
32
32
48
48
64
144
112
32
0
-32
-64
-80
-80
-80
-96
-160
-144
-64
-16
16
48
32
48
48
64
128
112
32
0
-32
-64
-80
-80
-80
-96
-160
-144
-64
-16
0
32
32
32
32
64
128
112
32
0
-32
-64
-80
-80
-80
-96
-160
-144
-80
-32
0
32
32
48
32
64
128
112
32
0
-16
-64
-80
-80
-80
-96
-160
-144
-64
-16
0
32
32
48
48
64
128
128
32
0
-32
-64
-80
-80
-80
-96
-160
-144
-64
-16
16
32
32
48
48
64
128
112
48
0
-32
-64
-80
-80
-64
-80
-144
-128
-48
-16
16
32
32
48
48
64
128
128
48
0
-32
-64
-80
-80
-80
-96
-160
-144
-64
-16
16
32
48
48
48
64
128
128
48
0
-32
-64
-80
-80
-80
-96
-160
-144
-64
-32
0
32
32
48
48
64
144
128
48
0
-32
-64
-80
-80
-80
-80
-144
-144
-64
-32
16
32
32
48
48
64
128
128
48
0
-32
-64
-80
-80
-64
-80
-144
-144
-64
-32
0
32
32
48
48
64
128
128
48
0
-32
-64
-80
-80
-64
-80
-144
-144
-64
-32
0
32
32
48
48
64
128
128
48
0
-32
-64
-80
-80
-80
-80
-144
-144
-64
-32
16
32
32
48
48
64
128
128
48
16
-16
-64
-80
-80
-80
-80
-144
-144
-80
-32
0
32
32
48
48
64
128
128
48
0
-32
-64
-64
-80
-64
-80
-144
-160
-80
-32
16
32
32
48
48
64
128
144
48
16
-16
-64
-64
-80
-80
-80
-144
-160
-80
-32
16
32
48
48
48
64
128
128
48
0
-32
-64
-80
-80
-64
-80
-144
-144
-64
-32
16
48
48
48
48
64
128
144
48
16
-16
-64
-80
-80
-64
-80
-144
-160
-80
-32
0
32
32
48
48
64
128
144
48
16
-16
-64
-80
-80
-80
-80
-144
-160
-80
-32
0
32
48
48
48
64
128
144
64
16
-16
-48
-64
-64
-64
-80
-144
-160
-80
-32
16
48
48
48
48
64
128
144
64
16
-16
-48
-64
-64
-64
-80
-128
-144
-64
-32
16
32
48
48
48
64
128
144
64
16
-16
-48
-64
-64
-64
-80
-128
-144
-64
-32
16
32
48
48
48
64
128
144
64
16
-16
-48
-64
-64
-64
-80
-128
-160
-64
-16
16
32
48
48
48
64
128
144
64
16
-16
-48
-64
-64
-64
-80
-128
-160
-80
-32
16
32
48
48
48
64
112
144
64
16
-16
-48
-64
-64
-64
-80
-128
-160
-80
-32
16
48
48
48
48
48
112
144
64
16
-16
-48
-64
-64
-64
-80
-128
-160
-80
-32
0
32
32
48
48
64
112
144
64
16
-16
-48
-64
-64
-64
-80
-128
-160
-64
-16
0
32
48
48
48
64
112
160
64
32
-16
-48
-64
-64
-64
-80
-128
-160
-80
-32
16
32
48
48
48
64
112
160
64
32
-16
-48
-64
-64
-64
-64
-128
-160
-80
-32
16
32
48
48
48
64
112
160
80
32
-16
-48
-64
-64
-64
-80
-128
-160
-80
-32
16
48
48
48
64
64
112
160
80
32
0
-48
-64
-64
-64
-64
-128
-160
-80
-32
16
32
48
48
48
64
112
160
80
32
0
-32
-64
-64
-64
-64
-112
-144
-80
-16
16
32
48
48
64
64
112
160
80
32
0
-32
-64
-64
-64
-64
-112
-160
-80
-16
16
32
48
48
64
64
112
160
80
32
0
-32
-64
-64
-64
-64
-112
-160
-80
-32
16
32
48
64
64
64
112
160
80
32
0
-32
-64
-64
-64
-64
-112
-160
-80
-32
16
48
48
64
64
64
112
160
80
32
-16
-48
-64
-64
-64
-64
-112
-160
-80
-32
0
32
48
48
48
64
112
160
80
32
0
-32
-48
-64
-64
-64
-112
-160
-80
-32
0
32
48
48
64
64
112
160
80
32
0
-32
-64
-64
-64
-64
-112
-160
-96
-32
0
32
48
48
64
64
112
160
96
32
0
-32
-64
-64
-64
-64
-112
-160
-80
-32
16
48
48
48
64
64
112
160
96
32
0
-32
-64
-64
-64
-64
-112
-160
-96
-32
16
32
48
48
64
64
112
160
96
32
0
-32
-64
-64
-64
-64
-112
-160
-96
-32
0
32
48
48
64
64
112
160
96
48
0
-32
-64
-64
-64
-64
-112
-160
-96
-32
0
32
48
48
64
64
112
176
96
48
0
-32
-64
-64
-64
-64
-96
-160
-80
-32
16
32
64
48
64
64
112
160
96
32
0
-32
-64
-64
-64
-64
-96
-144
-80
-32
16
32
48
48
48
64
112
160
96
48
0
-32
-64
-64
-64
-64
-96
-160
-96
-32
16
32
48
48
64
64
96
160
96
32
0
-32
-64
-64
-64
-64
-96
-160
-96
-32
16
32
48
48
64
64
112
160
96
32
0
-32
-64
-64
-64
-64
-112
-160
-96
-48
0
32
48
48
48
64
96
160
96
32
0
-32
-64
-64
-64
-64
-96
-160
-96
-48
0
32
48
48
48
64
96
160
96
32
0
-32
-64
-64
-48
-64
-96
-160
-96
-32
16
32
64
48
64
64
96
160
96
48
0
-32
-64
-64
-64
-64
-96
-160
-96
-48
16
32
64
48
64
64
96
160
112
48
0
-32
-64
-64
-64
-64
-96
-160
-96
-32
16
32
64
64
64
64
96
160
112
48
0
-32
-64
-64
-64
-64
-96
-160
-96
-48
0
32
48
48
64
64
96
160
112
48
0
-16
-64
-64
-64
-64
-96
-160
-112
-48
0
32
48
48
48
48
96
160
112
48
16
-16
-48
-64
-64
-64
-96
-160
-112
-48
0
32
48
48
64
64
96
160
112
48
0
-32
-64
-64
-64
-64
-96
-160
-112
-48
0
32
48
48
64
64
96
160
112
48
0
-16
-64
-64
-64
-64
-96
-160
-96
-32
0
32
48
48
64
64
96
160
112
48
0
-32
-64
-64
-64
-64
-96
-160
-112
-48
0
32
48
48
64
48
80
160
112
48
0
-32
-64
-64
-64
-64
-96
-160
-112
-48
0
16
48
48
48
48
96
160
112
48
0
-32
-64
-64
-64
-64
-96
-160
-112
-48
0
16
48
48
64
48
80
160
112
48
0
-16
-64
-64
-64
-64
-96
-160
-112
-48
0
32
48
48
64
64
80
160
112
48
0
-32
-64
-64
-64
-48
-80
-160
-112
-48
0
32
48
64
64
64
80
160
112
48
0
-32
-64
-64
-64
-64
-96
-160
-112
-48
0
32
48
48
64
64
80
160
112
48
0
-32
-64
-64
-64
-64
-96
-144
-112
-48
0
32
48
48
64
48
80
160
112
48
0
-16
-64
-64
-80
-64
-96
-160
-128
-48
0
16
48
48
48
64
80
160
128
48
0
-16
-48
-64
-64
-64
-80
-160
-112
-48
0
32
48
48
64
48
80
160
128
48
16
-16
-48
-64
-64
-64
-80
-160
-128
-64
-16
32
48
48
48
48
80
144
112
48
0
-32
-64
-64
-80
-64
-96
-160
-128
-64
-16
16
48
48
48
48
80
144
128
48
0
-32
-64
-64
-64
-64
-80
-160
-128
-48
0
16
48
48
48
48
64
144
128
48
0
-16
-64
-64
-80
-64
-96
-160
-144
-64
-16
16
32
48
48
48
80
144
128
48
0
-32
-64
-64
-80
-80
-96
-160
-144
-64
-16
16
48
48
48
48
64
144
128
64
16
-16
-64
-64
-80
-64
-96
-160
-144
-64
-16
16
48
48
64
48
80
144
128
48
0
-32
-64
-64
-80
-64
-96
-160
-144
-64
-16
16
48
48
64
48
64
144
128
48
0
-32
-64
-64
-80
-64
-80
-144
-144
-64
-16
16
48
48
64
48
64
144
128
48
0
-32
-64
-80
-80
-64
-96
-160
-144
-64
-16
16
48
48
48
48
80
144
128
48
16
-16
-64
-64
-80
-64
-80
-144
-144
-64
-16
16
48
48
48
64
80
144
128
48
0
-32
-64
-80
-80
-64
-96
-160
-144
-64
-16
16
48
48
48
48
64
144
144
48
16
-16
-64
-80
-80
-80
-96
-160
-144
-64
-16
16
48
48
64
48
64
144
128
48
0
-16
-64
-64
-80
-80
-96
-160
-144
-64
-16
16
48
48
48
48
64
144
144
64
16
-32
-64
-80
-80
-80
-80
-160
-160
-80
-16
16
48
48
48
48
64
144
144
64
16
-16
-64
-80
-80
-80
-96
-160
-160
-80
-32
16
48
48
48
48
64
