0
0
-16
-16
-16
-16
-16
-32
-32
-16
-16
0
0
0
0
-16
0
16
16
0
0
0
-16
-16
-16
0
-16
-32
-32
-16
-16
0
0
0
0
-16
0
16
16
0
0
16
0
-16
-16
-16
-16
-32
-32
-16
-16
0
0
0
-16
-16
0
16
16
16
16
16
0
-16
-16
-16
-16
-16
-32
-16
-16
0
0
0
0
-16
0
16
16
0
16
16
0
-16
-16
-16
-16
-32
-32
-32
-16
0
0
0
0
0
0
16
16
0
0
16
0
-16
-16
0
-16
-32
-32
-32
-16
0
0
0
0
0
0
16
16
0
0
16
0
-16
-16
0
-16
-16
-32
-16
-16
0
-16
0
0
-16
0
16
16
0
16
16
0
-16
-16
0
-16
-16
-32
-32
-16
-16
0
0
0
-16
0
16
16
0
16
16
0
-16
-16
-16
-16
-16
-32
-32
-16
-16
0
0
0
0
0
16
16
0
16
16
0
-16
-16
-16
-16
-16
-32
-16
-16
0
0
0
0
-16
-16
0
0
0
16
16
0
-16
-16
-16
-16
-32
-32
-16
-16
0
0
0
0
0
0
16
16
0
16
16
0
-16
-16
-16
0
-16
-32
-32
-16
0
0
0
0
-16
-16
0
16
0
0
16
0
-16
-16
-16
-16
-16
-32
-32
-16
-16
-16
0
0
-16
0
0
16
0
0
16
0
-16
-16
-16
-16
-16
-32
-16
-16
0
0
0
0
-16
0
0
16
0
0
16
0
-16
-16
-16
-16
-16
-32
-32
-16
-16
-16
0
0
0
0
16
16
0
-16
-16
0
0
0
0
-16
0
16
0
16
16
16
0
-16
-16
-16
-16
-32
-32
-16
0
0
0
0
0
0
0
16
0
16
16
0
-16
-16
-16
0
-16
-32
-32
-16
-16
0
0
0
0
0
0
16
0
16
16
0
-16
-16
-16
0
-16
-32
-32
-16
-16
-16
0
0
0
0
0
16
0
16
16
16
0
-16
-16
0
-16
-32
-32
-16
-16
-16
-16
0
0
0
16
16
16
16
16
16
-16
-16
-16
-16
-16
-16
-32
-16
-16
0
0
0
0
0
0
16
0
16
16
16
0
-16
-16
0
-16
-32
-32
-16
-16
0
0
0
0
-16
0
16
16
16
16
16
0
-16
-16
-16
-16
-32
-32
-16
-16
0
-16
0
0
-16
0
16
16
0
16
16
-16
-16
-32
-16
-16
-32
-32
-16
0
0
0
0
0
0
0
16
16
16
16
16
0
-16
-16
-16
-16
-32
-32
-32
-16
-16
-16
0
0
-16
0
16
16
16
16
16
0
0
-16
-16
-16
-32
-32
-32
-16
-16
-16
0
0
-16
0
16
16
16
16
16
0
-16
-16
0
-16
-16
-32
-16
-16
-16
0
0
0
-16
0
16
16
16
16
16
0
-16
-16
-16
-16
-32
-32
-32
-16
-16
-16
0
0
-16
0
16
16
16
16
16
0
-16
-16
-16
-16
-32
-32
-32
-16
-16
-16
0
0
-16
0
16
16
0
16
16
0
-16
-16
0
-16
-16
-32
-32
-16
-16
-16
0
0
-16
0
16
16
0
16
16
0
-16
-16
-16
-16
-32
-32
-32
-16
-16
-16
0
0
-16
0
16
16
16
16
16
0
-16
-16
-16
-16
-16
-32
-32
-16
-16
-16
0
0
-16
0
16
16
16
16
16
0
-16
-16
0
-16
-16
-32
-16
-16
0
0
0
0
-16
0
16
16
16
16
16
0
-16
-16
0
0
-16
-32
-32
-16
-16
-16
-16
0
-16
-16
0
16
0
16
16
0
-16
-16
-16
-16
-16
-32
-32
-16
0
0
0
0
0
0
16
16
0
16
16
0
0
-16
0
0
-16
-32
-32
-16
0
0
0
0
-16
0
0
16
0
16
16
0
-16
-16
-16
-16
-16
-32
-32
-16
0
0
0
0
-16
-16
0
16
0
16
16
0
-16
-16
-16
-16
-16
-32
-32
-16
-16
-16
0
0
-16
-16
0
16
0
0
16
0
-16
-16
-16
-16
-16
-32
-32
-16
-16
-16
0
0
-16
-16
0
16
0
16
16
0
-16
-16
-16
0
-16
-32
-32
-16
-16
-16
-16
0
-16
-16
0
16
0
0
0
0
-16
-16
-16
0
-16
-32
-32
-16
-16
-16
0
0
-16
-16
0
0
0
0
0
0
-16
-16
-16
-16
-16
-32
-32
-16
-16
-16
-16
-16
-16
-16
0
0
0
0
0
0
-16
-32
-16
-16
-16
-32
-32
-16
-16
-16
-16
0
-16
-16
0
0
0
0
0
0
-16
-32
-16
-16
-16
-32
-32
-16
-16
-16
-16
0
-16
-16
-16
0
-16
0
0
-16
-16
-32
-32
-16
-16
-32
-32
-32
-16
0
0
0
-16
-16
-16
0
-16
-16
0
0
-16
-32
-16
-16
-16
-32
-32
-16
0
0
0
0
-16
-16
-16
0
-16
-16
-16
0
-16
-32
-32
-16
-16
-16
-16
-16
0
0
0
-16
-16
-32
-16
-16
-16
-16
-16
0
-16
-16
-16
-16
-16
-32
-16
-16
0
0
0
0
-16
-32
-16
-16
-16
-16
-16
-16
-16
-32
-32
-16
-16
-16
-16
-16
0
0
0
0
0
-16
-16
-16
-16
-16
0
0
-16
-16
-16
-16
0
-16
-16
0
0
0
0
0
0
-16
-16
0
-16
-16
0
0
-16
-16
-16
-16
-16
-16
-16
-16
0
0
0
0
0
-16
0
0
0
-16
0
0
-16
-16
-16
-16
-16
-16
-16
-16
0
0
0
0
0
-16
-16
0
-16
-16
-16
0
-16
-16
-16
-16
-16
-16
-16
-16
0
0
0
0
0
-16
-16
0
0
-16
-16
0
-16
-32
-32
-16
0
-16
-16
-16
0
0
0
0
0
-16
-16
0
0
0
0
0
0
-16
-16
-16
0
-16
-16
-16
0
0
0
0
0
-16
-16
0
0
-16
0
0
-16
-16
-16
-16
0
-16
0
0
0
0
0
-16
-16
-16
-16
-16
-16
-16
0
0
0
0
0
0
0
0
0
0
0
0
0
-16
-16
-16
0
-16
-16
-16
0
0
0
0
0
0
0
0
0
-16
0
0
-16
-16
-16
-16
0
-16
16
0
0
0
-16
-16
-16
-16
0
0
-16
-16
0
0
0
0
0
0
-16
0
16
0
0
0
0
-16
-16
-16
0
0
-16
-16
0
0
0
0
0
0
0
0
16
0
0
0
0
0
0
-16
0
-16
-16
-16
-16
0
0
0
0
0
0
0
16
0
0
0
0
-16
-16
-16
0
-16
-16
-16
0
0
0
0
0
0
0
0
16
0
0
16
16
0
-16
-16
0
-16
-16
-16
-16
0
0
0
0
0
-16
0
16
0
0
0
0
0
0
0
0
-16
-16
-16
-16
0
0
0
0
0
0
16
16
0
0
0
0
-16
-16
-16
0
0
-16
-16
-16
0
0
0
0
0
0
0
16
16
16
16
16
0
-16
-16
-16
-16
-32
-32
-16
0
0
0
16
16
0
0
16
0
0
16
16
0
0
-16
0
-16
-16
-32
-48
-32
-32
-32
-32
-32
-32
0
32
32
32
16
0
-16
-16
-16
-16
-16
-16
-16
0
0
16
16
16
0
0
0
16
0
0
0
0
-16
-32
-32
-16
-16
-16
-32
-32
-16
-32
-48
-48
-48
-48
-32
0
0
32
64
64
32
16
0
16
0
-16
-16
0
16
16
16
16
16
16
16
16
16
0
0
0
-16
-16
-16
0
0
-16
-16
-16
0
0
0
0
-16
-32
-16
0
0
0
16
16
0
0
-16
-16
-16
-16
-32
-16
-16
-16
0
0
0
-16
-16
-16
-32
-48
-48
-32
-48
-64
-48
0
32
16
-16
-16
-16
-16
-16
0
16
-16
-16
-32
-48
-32
-16
-16
-16
0
0
0
0
16
0
0
0
0
-16
-16
-32
-16
-32
-48
-64
-48
-32
-16
-16
0
16
0
0
16
16
0
0
0
-16
-16
-16
-32
-32
-32
-32
-32
-16
-16
0
0
0
-16
-16
0
0
0
0
0
-16
-16
-16
-16
-16
-16
-32
-32
-16
-16
-16
-16
0
-16
0
0
0
0
0
0
0
-16
-32
-16
-32
-32
-32
-32
-32
-32
-32
-16
0
16
16
16
16
16
16
0
-16
-16
-32
-32
-32
-32
-16
-16
0
16
0
-16
-16
-16
0
16
16
16
16
32
16
-16
-16
-16
-16
-16
-32
-32
-16
0
0
0
0
0
0
0
16
0
0
0
0
-16
-16
-16
-16
-16
-32
-32
-16
0
0
-16
-16
-16
-16
0
16
16
16
0
-16
-16
-32
-16
-16
-16
-16
-32
-16
-16
-16
-16
0
0
0
16
16
0
0
0
0
0
-16
-16
0
-16
-32
-32
-16
-16
-16
0
16
0
0
16
32
16
16
16
16
0
-16
-16
-16
-32
-32
-32
-32
-16
0
0
0
0
0
16
32
16
16
16
16
0
16
16
32
48
64
64
80
80
80
80
80
80
80
96
96
96
96
96
80
80
64
64
64
48
48
48
64
80
80
96
96
80
80
80
80
80
80
80
80
80
80
64
64
48
48
48
64
80
80
96
96
96
96
96
96
80
80
80
80
64
64
64
64
64
64
64
64
80
80
80
80
80
80
80
96
80
80
80
80
64
64
64
64
64
48
48
64
64
64
64
64
64
64
64
80
64
80
80
80
64
48
48
48
48
48
48
64
48
32
32
48
48
48
64
96
96
80
80
64
48
48
48
64
64
48
48
48
64
64
64
64
48
48
32
32
32
32
32
48
48
48
48
32
32
48
48
48
48
48
48
32
16
32
16
0
0
32
48
48
48
48
48
48
48
64
64
48
48
32
16
0
0
0
0
-16
-16
0
32
48
64
64
64
32
0
-16
-16
-16
0
16
32
32
48
48
48
48
48
32
48
32
16
0
0
16
16
0
0
16
16
16
16
32
32
16
32
32
32
32
32
32
0
0
-16
0
0
0
0
16
32
32
32
32
32
16
16
0
0
16
16
16
16
16
16
16
32
32
32
32
32
32
16
16
0
16
16
16
0
16
16
32
16
16
16
16
16
32
32
16
16
32
16
16
0
0
16
16
0
0
16
16
16
16
32
16
32
32
16
0
16
16
16
0
0
0
0
-16
-16
-16
16
32
48
48
48
32
32
32
48
16
16
32
16
0
0
-16
-16
-16
-32
-32
-32
-16
0
16
0
-16
-16
16
48
48
48
48
32
32
32
32
-16
-32
-32
-16
16
16
16
0
-32
-48
-32
-48
-112
-160
-112
-64
-48
-16
48
32
16
-32
-48
-16
-16
-16
-16
-32
-96
-160
-160
-128
-112
16
144
160
112
48
16
-16
-80
-96
-128
-160
-160
-128
-64
-32
-48
-16
-32
-144
-192
-144
-144
-128
-128
-144
-192
-224
-224
-240
-256
-208
-128
-112
-32
96
176
128
48
-16
-48
-112
-256
-352
-336
-272
-208
-64
48
96
112
80
-48
-96
-128
-176
-256
-304
-240
-128
-48
-64
0
16
-64
-112
-96
-64
-48
-16
-16
-128
-224
-288
-288
-208
-176
-160
-240
-304
-176
-32
32
80
16
-48
0
80
96
64
-32
-144
-224
-400
-576
-608
-352
-112
112
272
208
32
-48
-64
-64
-48
-48
-112
-256
-368
-416
-368
-192
64
336
304
80
-64
-128
-240
-416
-496
-320
-176
-160
-64
-16
16
80
128
96
80
16
-64
-176
-208
-160
-128
-80
-176
-144
-32
-80
0
144
80
-304
-672
-800
-528
48
448
368
96
-176
-272
-224
0
192
208
112
32
64
-32
-144
-208
-128
-64
0
-128
-64
112
128
-64
-160
-144
-176
-256
-32
288
352
144
-64
-256
-240
-128
16
64
-112
-288
-272
-144
0
48
-96
-256
-176
0
-48
-48
-48
-64
-16
80
240
176
96
32
-16
-80
-128
-128
-176
-176
-96
-192
-96
-16
-96
-208
-192
16
176
176
48
-160
-192
-64
224
224
16
-208
-256
-144
-32
160
240
48
-208
-320
-160
-16
128
32
16
16
-112
-240
-272
-224
48
112
112
80
-16
80
-16
-64
-32
-128
-320
-320
-192
80
192
80
-64
-112
272
208
48
-112
-272
-448
-464
-160
64
240
48
-16
160
256
224
192
0
-336
-512
-272
-80
112
288
176
112
192
256
240
144
0
-80
-64
-32
-32
-32
-128
-240
-176
64
16
-128
-112
-96
64
16
-48
-160
-80
96
128
-48
-32
160
160
-64
-80
144
288
48
-208
-240
-208
-208
-224
-32
176
192
160
-112
-448
-448
32
512
464
208
96
96
112
32
0
32
-80
-224
-256
-240
0
96
144
192
128
-32
-208
-464
-544
-256
208
512
400
224
208
160
64
0
0
-112
-176
-128
-176
-256
-144
192
224
144
112
112
112
176
80
-80
-160
-176
-224
-304
-176
96
272
176
32
-80
-144
-128
48
-64
-256
-112
48
112
64
176
288
256
112
16
32
160
112
-32
32
144
160
-80
-176
-64
-16
-64
-128
-208
-112
48
144
96
96
-64
-80
48
160
176
80
-176
-272
-80
176
128
-112
-176
-96
-160
-112
96
208
272
160
16
64
112
176
192
80
-96
-112
16
80
-192
-256
-112
176
160
-32
-112
0
-16
0
240
224
144
48
-16
-144
-272
-144
112
112
-16
-208
-176
176
336
208
32
144
112
0
-96
-112
-256
-304
-176
96
80
0
-32
32
128
192
208
208
176
96
144
176
144
80
48
-16
-128
-128
-160
-384
-416
-96
160
-160
-160
144
304
288
256
240
208
96
-272
-400
-160
48
-144
-128
96
16
-80
128
160
112
0
-176
-112
208
432
384
160
16
-48
-32
-32
48
96
-48
-32
-112
-208
-288
-144
16
144
112
-192
-224
0
240
352
256
80
32
-80
16
160
16
-160
-16
176
176
96
-128
-48
144
128
-16
-80
0
112
160
80
32
80
96
48
16
80
128
32
-64
-48
-112
-192
-64
144
176
128
112
-64
-320
-320
-64
208
176
-32
-176
-144
48
48
0
-176
-176
192
336
144
64
112
48
-128
-224
-144
-64
-80
80
304
272
176
96
-32
64
-16
-128
-128
0
32
-112
-96
128
128
-48
-80
112
240
192
128
144
144
96
32
-16
16
48
-16
-80
-32
-64
-80
-16
-48
-144
480
288
-32
-32
48
256
240
160
48
64
96
64
32
64
144
112
48
-160
-528
-432
144
560
400
160
96
96
128
128
144
128
48
-32
-96
0
192
256
144
-48
-32
144
256
160
112
64
16
0
16
-64
-304
-704
-592
192
624
352
336
368
272
256
320
288
144
-32
-80
-64
16
48
16
32
128
144
96
48
-80
-208
-144
16
128
144
144
208
224
224
112
-16
-48
-48
0
-160
-288
-80
288
320
128
96
80
-48
-96
32
176
288
176
-16
-48
-32
48
128
80
112
176
96
-96
-240
-48
176
304
240
96
-16
0
80
144
-32
-192
-64
176
176
112
160
176
96
16
80
144
96
64
16
-48
-32
0
-64
-176
-240
-352
-144
144
384
272
128
240
304
144
-64
-64
32
160
208
208
128
16
-64
-112
-64
-48
-80
-112
-32
80
288
272
112
32
-32
-64
0
0
0
96
96
80
0
-16
32
80
128
64
-16
-32
-32
-48
-48
-240
-272
112
368
352
128
48
-16
-80
-128
80
176
208
96
32
-32
-32
16
96
64
-64
-144
-80
-64
-16
48
192
224
-32
-304
-112
112
128
-32
-48
128
288
208
80
64
32
-16
-48
-112
-160
-128
32
160
144
128
80
64
48
48
32
96
64
-80
-80
64
80
0
-16
-16
-48
-48
-112
-96
160
304
240
-16
-176
-96
80
176
48
0
48
48
-32
-64
32
144
96
80
48
-48
-48
-80
-144
-160
0
160
112
16
-96
-16
64
64
16
-16
48
96
80
-48
-32
32
-96
-304
-80
-16
64
-16
32
96
32
32
96
128
160
224
144
32
0
16
-32
-64
-48
16
-48
-48
-16
-64
-256
-400
-320
-112
48
16
32
80
240
224
64
32
96
0
-64
-64
-48
-16
32
32
64
128
0
-80
16
160
-48
-32
0
0
-16
-80
-80
-64
96
128
-16
-160
-176
-80
-96
-304
-144
48
-32
-336
-512
-368
144
512
384
192
144
96
128
192
128
16
-32
-48
-32
32
64
32
-64
-224
-480
-368
-16
64
32
96
192
0
-160
-112
-32
-32
-48
-80
-96
-144
-96
0
160
160
32
16
64
80
48
80
48
16
-32
-32
-16
-32
-96
-176
-160
-272
-400
-336
-112
-96
-32
112
320
240
160
128
112
64
-48
-80
-16
64
48
16
32
0
-112
-144
-208
-112
-240
-288
-256
-32
176
112
64
80
112
96
96
80
-32
-112
-64
16
64
0
-96
-128
-80
0
-112
-256
-288
-80
144
80
-64
0
32
-32
16
96
96
80
48
-16
-96
-32
0
-48
-160
-192
-144
-128
32
96
48
96
-80
-272
-320
-176
-16
80
96
-16
-128
16
160
240
96
-128
-32
144
32
-192
-224
-48
128
32
0
-176
-272
-256
-160
-144
-128
32
128
160
160
128
128
128
96
32
0
-32
-112
-80
-16
-16
-160
-208
-48
16
0
0
-64
96
0
-48
-16
80
16
0
32
-64
-80
16
64
0
-80
-112
-160
-256
-304
-176
-16
128
32
-176
-128
48
112
-32
-112
32
32
-176
-224
96
240
64
-80
-224
-400
-368
0
288
304
192
32
-48
-144
-80
64
128
80
48
16
-16
-32
-48
-64
-64
32
-32
-240
-272
-16
64
-80
-96
-128
-96
32
0
80
144
80
-16
-32
-80
-64
0
16
-32
-64
32
0
-16
-48
-128
-176
-192
-160
-160
-288
-288
-160
-32
112
160
240
176
96
32
16
128
176
16
-112
-176
-304
-416
-16
368
288
64
16
16
-96
-208
-336
-304
-80
48
80
48
64
96
80
48
-32
-112
-256
-288
-176
-128
-160
-128
-160
-48
112
208
224
112
112
144
80
-16
-96
-160
-96
48
144
32
-96
-128
-112
-64
-16
-16
-32
-176
-160
-32
32
-32
-144
-192
-128
32
144
144
32
-64
-112
-128
-112
80
96
-48
-32
32
64
48
-32
-32
0
32
48
0
32
80
32
-16
-64
-96
-48
16
0
-32
-48
-48
-48
-80
-112
-96
-64
-224
-320
-240
64
144
64
-48
-16
112
208
16
-176
-176
-96
32
-32
-32
80
128
96
80
16
-48
-80
-128
-160
-192
-320
-304
-144
-32
128
128
-80
-112
16
128
96
32
32
80
112
96
32
-64
-144
-160
-144
-32
64
128
32
-144
-128
32
112
32
32
64
0
-96
-48
96
32
-96
-96
-16
-32
-192
-208
-16
48
-48
-128
-256
-256
-112
96
128
144
208
112
-16
-224
-272
-128
-32
-64
32
192
80
-112
-128
-48
-64
-128
-144
-32
-80
-112
-96
-112
-96
-32
16
16
-160
-272
-224
-64
96
176
160
128
-32
-128
-96
-32
-64
-160
-320
-336
-48
192
80
32
48
-16
-32
-48
-64
32
128
208
112
-80
-224
-144
32
0
-112
-96
64
96
-16
-16
48
112
80
0
-160
-304
-304
-192
-96
-176
-304
-112
16
112
160
144
80
-16
-96
-64
-32
80
96
48
-80
-224
-192
-32
-32
-128
48
176
176
112
128
112
16
-64
-160
-240
-144
32
80
48
80
144
128
32
-16
-48
-32
48
-80
-64
48
240
240
64
-48
-112
-128
-64
48
64
32
-48
-80
-64
16
-16
-272
-384
-192
144
192
112
96
32
96
208
144
0
0
32
-32
-64
-48
-16
16
-16
32
32
32
-32
-128
-96
48
96
-48
-96
0
16
-160
-368
-368
-112
80
96
-48
-224
-48
112
224
256
192
144
128
48
32
80
80
48
-64
-176
-192
-80
-64
-112
-80
-16
32
112
64
-32
-48
64
96
-80
-144
32
32
-64
-64
32
112
64
-16
-48
-48
-16
64
96
32
-32
-80
-80
-80
-64
-48
-112
-128
-16
160
128
-16
-128
-64
0
0
0
16
0
48
96
-16
-160
-272
-256
-16
224
80
-32
16
96
112
32
-48
-16
64
0
-48
-112
-112
-32
48
48
0
0
-32
-112
-144
-16
32
-16
-64
-112
-160
-96
80
208
176
32
-128
-144
-16
0
-80
-64
-32
-64
-48
-16
-48
-112
-160
-64
80
160
96
96
144
112
32
-48
-112
-64
0
-80
-96
0
-112
-240
-32
208
192
112
64
0
-32
-32
32
64
0
-144
-160
-64
-80
-224
16
112
-112
-112
32
80
96
96
32
0
-48
-128
-80
16
128
128
80
-16
-144
-224
-208
-32
-32
-224
-144
-32
64
128
48
-64
-144
-160
-128
-32
48
48
80
112
112
48
-32
-128
-144
-112
-144
-160
-112
-128
-128
-32
32
0
-64
-112
-64
96
128
-48
-256
-208
-16
176
128
144
80
16
0
-16
-48
-32
32
128
48
16
32
64
80
64
80
64
16
-32
0
0
-32
-64
-112
-128
-80
-64
-96
-128
-144
-64
-64
-112
-80
0
-16
-96
-112
-80
-112
-272
-160
224
224
96
96
128
112
64
16
0
0
-32
-48
-112
-160
-192
-144
-112
16
176
96
16
32
-48
-160
-96
80
128
80
48
-64
-128
-80
-48
-48
-96
-48
16
-32
-144
-96
160
192
80
64
32
16
0
-16
-80
-112
-64
32
-16
-32
-16
-16
16
48
48
32
-32
16
64
32
-48
-96
-96
-16
0
-64
-128
-96
16
64
0
-80
-96
-48
-48
-16
64
128
112
48
16
-32
-176
-208
16
96
0
16
64
64
80
112
32
-80
-80
16
32
-32
-80
-96
-96
-112
-112
-64
0
32
80
112
64
32
64
48
16
-16
-48
-80
-128
-112
-80
-16
16
0
-80
-96
96
144
0
-96
-16
64
96
64
16
-16
0
32
-32
-176
-176
-128
-48
-32
-16
16
64
32
-32
-32
-16
16
80
80
16
-16
-16
-112
-192
-192
-128
-80
-112
-96
-80
16
32
16
16
64
48
64
96
128
64
-16
-48
-80
-112
-96
-16
-48
-112
-112
-48
-64
-80
-32
0
48
80
16
16
32
-48
-64
-32
16
-32
-64
-96
-64
-32
-48
-16
16
16
16
-32
-112
-144
-96
-48
16
32
0
-32
-112
-176
-160
-128
-64
16
-16
-32
16
0
0
32
0
-16
16
48
48
-32
-80
-48
112
16
-144
-128
48
160
112
-64
-192
-160
16
64
48
-64
-160
-144
0
80
32
-64
-96
-128
-48
32
32
-16
-96
-112
-96
-64
16
64
48
0
-16
-48
-96
-80
-80
-32
48
32
0
-32
-32
-32
-16
32
-16
48
32
48
16
0
-32
0
48
64
32
-16
-64
-80
-80
-80
-112
-96
-80
-96
-80
-80
-80
-48
-64
-16
48
-16
-96
-80
0
64
64
16
-64
-80
-80
-128
-128
-32
48
16
-48
-64
0
32
16
32
48
32
16
-16
-48
0
-32
-48
-64
-80
-80
-16
48
48
-16
-64
-32
48
48
0
-32
-48
-48
48
0
-112
-208
-240
-96
32
64
16
32
48
32
-16
-96
-192
-176
-16
208
208
64
-16
-80
-48
-16
16
0
-48
-32
-16
0
-80
-144
-112
0
48
0
-64
-96
-80
-32
48
80
80
80
64
48
48
32
32
48
0
-80
-144
-144
-80
-64
-64
-48
-128
-224
-176
0
224
192
128
80
48
64
48
-16
-80
-64
-16
32
-32
-112
-128
-80
64
112
48
32
0
-48
-80
-80
-16
48
112
64
-16
-80
-96
-80
-80
-112
-48
0
-16
0
-32
-96
-48
96
96
32
-96
-160
-96
48
144
80
64
16
16
0
-16
-32
-32
-64
-96
-80
-64
-64
-64
48
80
80
80
16
-64
-112
-64
0
-32
-64
-48
-96
-96
-32
32
48
16
16
32
0
-48
-16
64
64
16
-16
-64
-112
-96
-80
-96
-128
-64
48
64
16
0
0
-16
-32
-32
-16
-32
-32
-48
-16
-80
-192
-80
112
64
-16
0
16
176
160
112
80
80
32
0
-112
-240
-192
-32
224
192
32
16
80
112
64
16
-32
-96
-112
16
80
128
64
16
16
16
16
32
48
48
64
96
128
32
-64
-16
80
144
96
64
0
-64
-112
-128
-80
-32
-160
-352
-320
-64
240
320
144
80
128
160
112
96
64
-16
-128
-96
-64
-160
-176
-64
80
96
48
48
96
96
64
-16
-48
-48
-80
-112
-160
-48
48
96
0
-128
-144
-48
32
32
-32
-96
-16
32
144
144
32
0
-32
0
16
80
112
112
32
-32
-16
32
48
0
-32
-64
0
96
16
-128
-80
32
16
-32
-64
-32
80
128
80
32
-16
0
48
0
-128
-384
-352
-208
48
48
0
80
64
128
224
176
64
48
80
64
32
16
16
16
32
16
-80
-224
-176
-16
144
48
-192
-288
-400
-256
32
272
336
160
144
160
96
-16
-32
64
112
96
32
-32
-80
-112
-64
112
176
48
-128
-176
-48
64
80
96
128
80
96
0
-192
-304
-208
0
-32
0
96
-96
0
-32
-112
-64
64
96
32
-32
-64
-48
-48
-48
0
64
64
64
48
0
-16
-96
-160
-160
-112
-16
112
16
-96
-16
96
80
32
-16
-64
-80
-32
80
80
48
0
-48
-32
64
80
-48
-112
-48
-48
-160
-144
-64
-112
-96
112
128
16
-64
-80
0
96
160
80
64
64
-16
-144
-144
-96
-16
16
80
80
48
32
32
32
16
-16
-16
-32
-64
-48
64
64
0
-64
-64
-32
-32
-32
-16
16
16
0
-64
-64
16
64
80
48
-16
0
16
32
16
0
-16
-16
0
16
-16
-32
0
48
32
0
-16
0
-32
-32
-16
-32
-96
-96
-48
32
96
64
0
-16
32
64
48
16
-48
-48
-16
16
0
-16
-16
16
32
32
32
16
0
0
32
64
48
16
0
-16
-32
-48
-32
-32
-48
-48
-16
0
32
48
32
16
16
16
32
64
48
16
0
0
-32
-32
-32
-32
-32
-32
-32
0
16
32
32
16
16
32
48
64
48
16
0
0
-32
-48
-48
-32
-48
-48
48
16
0
0
-16
-32
-32
-32
-48
-48
-32
-16
0
16
16
16
0
0
32
48
48
16
0
-16
-32
-32
-48
-32
-48
-48
-32
-16
0
16
16
16
16
16
32
64
64
32
16
0
-16
-32
-48
-48
-48
-48
-32
0
16
16
16
16
16
16
32
48
48
16
0
-16
-32
-32
-32
-32
-48
-48
-32
-16
0
16
16
16
16
16
32
48
48
16
0
-16
-32
-48
-48
-32
-48
-48
-32
-16
16
16
16
16
16
16
32
48
-32
-16
0
16
16
16
16
16
32
48
48
16
0
-16
-32
-48
-48
-32
-32
-48
-32
-16
0
16
32
16
16
16
32
32
32
0
-16
-16
-32
-32
-48
-48
-48
-48
-48
-32
0
16
16
16
16
16
16
48
48
16
0
0
-16
-32
-48
-32
-48
-48
-48
-32
-16
0
16
16
16
16
16
32
32
0
-16
-16
-32
-48
-48
-48
-48
-48
-32
-16
0
16
16
16
16
0
16
32
32
0
-16
-16
-32
-48
-48
-48
-48
-48
-48
-32
0
0
16
16
16
16
16
32
32
0
-16
-16
-32
-48
-48
-48
-48
-48
-48
-32
0
0
16
16
16
16
16
32
32
0
-16
-16
-32
-48
-48
-48
-48
-48
-48
-32
-16
0
16
16
16
16
16
32
-32
-32
0
16
16
16
16
16
16
32
32
0
-16
-32
-32
-48
-48
-48
-48
-48
-48
-32
0
16
16
16
16
16
16
32
32
16
-16
-16
-32
-48
-48
-48
-48
-48
-48
-32
-16
0
16
16
16
16
16
16
32
0
-16
-32
-32
-48
-48
-48
-48
-48
-48
-32
-16
0
16
16
16
16
16
32
32
0
-16
-16
-32
-48
-48
-48
-48
-48
-48
-32
-16
16
16
16
16
16
16
32
32
0
-16
-32
-32
-48
-48
-48
-48
-48
32
16
-16
-16
-32
-48
-48
-48
-48
-48
-48
-32
-16
0
16
16
16
16
16
32
32
16
-16
-16
-32
-48
-48
-48
-48
-48
-48
-32
-16
0
16
16
16
16
16
32
32
16
0
-16
-32
-48
-48
-48
-48
-48
-48
-48
-32
-16
0
16
16
16
16
32
32
16
-16
-16
-32
-32
-48
-48
-48
-48
-48
-32
-16
0
16
16
16
16
16
32
32
16
-16
-16
-32
-48
-48
-48
-48
-48
-48
-48
-16
0
16
16
16
32
16
32
-48
-48
-32
-16
0
16
16
16
16
32
32
16
0
-16
-16
-32
-48
-48
-48
-48
-48
-32
-16
0
0
16
16
16
16
16
32
16
-16
-16
-32
-48
-48
-48
-48
-48
-48
-48
-32
-16
0
16
16
16
16
16
32
32
0
-16
-16
-32
-48
-48
-32
-32
-48
-32
-16
0
0
16
16
16
16
16
32
16
-16
-16
-16
-32
-48
-48
-48
-48
-64
-48
-32
-16
0
16
16
16
16
16
32
32
0
-16
-16
-32
-48
-64
-48
-48
32
16
0
-16
-16
-32
-48
-48
-48
-48
-48
-48
-32
-16
0
16
32
32
32
32
32
32
0
-16
-16
-32
-48
-48
-48
-48
-48
-48
-32
-16
0
16
16
16
16
16
32
32
0
-16
-16
-32
-48
-48
-48
-48
-48
-48
-32
-16
0
16
16
16
16
16
32
32
0
-16
-16
-32
-48
-48
-48
-48
-48
-48
-32
-16
0
16
16
16
16
16
32
32
0
-16
-16
-32
-48
-48
-48
-48
-48
-48
-32
-16
0
16
16
32
16
16
32
32
0
-16
-16
-16
-32
-32
-32
-32
-48
-48
-32
-16
0
16
16
16
16
16
16
16
0
-16
-16
-32
-48
-48
-48
-48
-48
-48
-32
-16
0
16
16
16
16
16
32
32
0
-16
-16
-16
-48
-48
-48
-48
-48
-48
-32
-16
0
16
16
16
16
16
32
32
16
0
-16
-16
-48
-48
-48
-48
-48
-48
-32
-16
0
16
16
16
16
16
16
32
0
-16
-16
-32
-48
-48
-48
-48
-48
-48
-32
-16
0
16
16
16
16
16
-48
-48
-32
-16
0
16
16
32
32
16
32
32
16
-16
-16
-16
-48
-48
-48
-48
-48
-48
-32
-16
0
16
16
16
16
16
16
32
16
-16
-16
-16
-32
-48
-48
-48
-48
-48
-32
-16
0
16
16
16
16
16
32
32
16
-16
-16
-16
-32
-48
-48
-48
-48
-48
-32
-16
0
16
16
16
16
16
32
32
16
-16
-16
-16
-48
-48
-48
-48
-48
-48
-32
-16
0
16
16
16
32
16
32
32
32
0
-16
-16
-32
-48
-48
-32
-48
-48
-32
-16
0
16
32
32
32
32
32
32
16
0
-16
-16
-32
-48
-48
-32
-32
-32
-32
-16
0
16
16
32
32
16
32
32
16
0
-16
-16
-32
-48
-48
-48
-48
-48
-32
-16
0
16
32
32
32
16
-48
-48
-32
-32
0
16
16
16
16
16
32
32
32
0
-16
-16
-32
-48
-48
-48
-48
-48
-48
-32
0
0
16
16
16
16
16
32
16
0
-16
-16
-32
-32
-48
-48
-48
-48
-32
-16
0
0
16
16
16
16
16
32
16
0
-16
-16
-32
-48
-48
-48
-48
-48
-32
-32
0
16
16
32
32
32
32
48
32
0
-16
-16
-32
-48
-48
-48
-32
-48
-48
-32
0
0
16
16
16
16
16
32
32
0
-16
-16
-32
-48
-48
-48
-32
-32
-32
-16
0
16
32
32
32
32
32
32
32
16
0
0
-16
-32
-48
-48
-32
-48
-32
-32
0
16
32
32
32
32
32
32
32
16
0
-16
-16
-48
-48
-48
-32
-48
-48
-32
0
16
32
32
32
32
-48
-48
-32
-32
0
16
16
32
32
16
16
32
32
16
0
0
-16
-32
-48
-48
-32
-32
-32
-32
-16
0
16
16
16
16
16
32
32
16
0
0
-16
-32
-32
-32
-32
-32
-32
-16
0
16
32
32
32
32
16
32
32
16
-16
-16
-16
-32
-48
-48
-32
-32
-32
-16
0
16
32
32
32
32
16
32
32
16
-16
-16
-16
-32
-48
-48
-32
-48
-48
-32
-16
0
16
16
32
32
16
32
32
16
0
0
-16
-32
-32
-48
32
32
32
16
0
-16
-16
-32
-48
-48
-48
-48
-48
-32
-16
0
16
32
32
32
16
32
32
32
0
-16
-16
-32
-48
-48
-48
-48
-32
-32
-16
16
16
32
32
32
16
32
32
32
0
-16
-16
-32
-48
-48
16
32
32
32
0
0
-16
-32
-48
-48
-32
-48
-48
-32
-16
16
16
32
32
32
16
32
32
32
0
-16
-16
-32
-48
-48
-48
-48
-48
-32
-16
0
16
16
16
16
16
32
32
32
0
0
-16
-16
-32
-48
-48
-48
-48
-48
-16
0
16
16
32
32
32
32
48
32
0
0
-16
-32
-48
-48
-48
-48
-48
-48
-32
0
0
16
16
32
16
32
48
48
16
0
0
-16
-48
-48
-48
-48
-48
-32
-32
0
16
16
16
16
-32
-32
-48
-32
-32
-16
0
16
16
32
16
16
32
32
0
-16
-16
-32
-48
-48
-48
-48
-48
-48
-32
0
16
32
16
32
16
32
32
32
0
0
-16
-16
-48
-48
-48
-48
-48
-48
-32
-16
0
16
16
16
-48
-48
-48
-32
-16
0
16
32
32
32
32
16
32
32
0
-16
-16
-16
-48
-48
-32
-32
-48
-48
-32
-16
0
16
16
16
16
16
32
32
16
-16
-16
-32
-48
-48
-48
-48
-48
-48
-32
-16
0
16
32
32
32
16
32
32
16
0
0
-16
-32
-48
-48
-48
-48
-48
-32
0
16
16
32
32
16
16
32
48
16
0
0
-16
-32
-48
-48
-48
-48
-48
-32
-16
0
16
16
16
16
16
32
32
16
-16
-16
-16
-32
-48
32
16
32
32
16
-16
-16
-16
-32
-48
-48
-48
-48
-48
-32
-16
0
16
16
16
16
16
32
32
16
0
-16
-16
-32
-32
-32
-32
-48
-48
-32
-16
0
16
32
32
32
16
32
32
16
0
-16
-16
-32
-48
-48
-48
-48
-48
-32
-16
0
16
32
32
32
16
32
32
16
0
-16
-16
-32
-48
-48
-48
-48
-48
-32
-16
0
16
16
32
32
16
32
32
32
0
-16
-16
-32
-48
-48
-48
-48
-48
-32
-16
0
16
32
32
32
16
32
32
16
0
-16
-16
-32
-48
-48
-32
-32
-48
-32
-16
0
16
32
32
32
16
32
32
16
0
-16
-16
-32
-48
-48
-32
-32
-48
-32
-16
0
16
32
32
32
16
32
32
16
0
-16
-16
-32
-32
32
16
32
32
16
0
-16
-16
-16
-48
-48
-48
-48
-48
-32
-16
0
16
16
16
16
0
16
32
32
0
0
-16
-32
-32
-32
-32
-32
-32
-32
-16
16
16
32
32
32
16
16
32
16
-16
-32
-48
-64
-80
-80
-48
-32
-32
-16
-16
0
16
32
32
32
32
48
48
32
0
-16
-16
-16
-32
-32
-48
-64
-64
-48
-32
0
32
32
32
32
32
16
32
16
-16
-16
-16
-16
-32
-32
-16
-32
-32
-32
-16
0
16
16
16
-32
-16
-16
-32
-32
-32
0
16
16
16
16
16
16
32
32
0
-16
-32
-32
-48
-48
-48
-48
-64
-48
-48
-32
-16
0
16
16
16
0
16
16
-16
-16
-16
-32
-32
-32
-32
-32
-48
-48
-32
-16
-16
0
16
-48
-48
-48
-48
-48
-32
-16
-16
0
0
0
0
-16
16
16
0
-16
-16
-16
-32
-48
-48
-32
-32
-32
-16
-16
0
32
32
32
16
16
16
16
0
-16
-16
-32
-48
-48
-48
-32
-48
-48
-32
-16
0
16
16
32
16
16
32
32
16
-16
-16
-32
-48
-48
-48
-48
-48
-48
-32
-16
0
16
32
32
32
16
32
32
16
-16
-16
-32
-48
-48
-48
-48
-48
-48
-32
-16
0
16
16
16
16
16
16
32
32
16
0
-16
-32
32
32
16
32
48
32
0
-16
-16
-32
-48
-48
-64
-64
-64
-48
-16
0
16
16
16
16
16
32
48
32
0
-16
-16
-32
-48
-48
-48
-48
-48
-48
-32
0
0
16
16
32
16
32
48
32
0
0
-16
-32
-48
-48
-48
-32
-32
-16
-16
0
16
32
16
16
16
32
32
16
0
-16
-32
-32
-48
-48
-48
-48
-48
-32
-16
0
32
32
16
16
16
16
16
16
0
-16
-16
-32
-48
-32
-32
-48
-48
-32
-16
-16
0
0
-80
-80
-80
-64
-64
-16
16
16
48
64
64
48
48
48
48
32
0
-16
-16
-16
-32
-32
-48
-96
-112
-80
-48
-16
0
16
-16
-32
-32
32
64
48
16
16
32
16
-48
-96
-112
-112
-80
-32
16
32
32
32
0
-32
-48
-48
-48
-48
-48
-16
16
-16
-48
-112
-160
-144
-112
-48
32
32
0
-16
16
16
32
64
80
80
16
-32
-48
-96
-144
-128
-80
-48
-32
-16
0
16
80
112
96
80
64
48
16
-16
-64
-112
-64
0
-48
48
96
112
128
80
96
144
64
-80
-192
-208
-176
-144
16
80
16
-32
16
80
80
16
-16
-16
-32
-80
-96
-64
48
48
-16
-32
0
-48
-128
-160
-160
-160
-112
-80
-160
-304
-240
-112
80
208
208
48
-112
-176
-240
-240
-128
80
48
-224
-320
-176
48
272
368
224
64
0
-48
-48
-128
-112
-80
0
16
-32
-32
-48
-64
-80
-96
-224
-320
-336
-160
64
176
304
272
0
-288
-320
-160
32
176
144
96
-16
-80
-96
-112
-64
-96
-112
208
48
-64
-224
-464
-432
-240
-160
-64
80
272
224
16
0
144
208
96
-32
16
160
80
32
16
-32
-192
-256
-144
32
-80
-272
-480
-512
-336
-288
112
560
336
16
0
80
96
96
160
64
-64
-32
48
64
48
16
0
-32
-112
-256
-384
-336
-80
128
160
128
64
-48
-64
64
112
-32
-96
-128
32
0
-160
-48
112
-80
-80
192
288
128
-80
-192
-224
-128
-32
-80
-32
32
208
160
-32
-208
-272
-64
48
-112
48
288
32
-144
-144
32
-272
-256
-128
64
288
208
160
192
-32
-224
-128
112
48
-160
-80
16
-64
-384
-464
-80
576
560
352
256
144
80
-48
-224
-208
-48
0
-80
-80
32
16
-176
-240
-112
80
144
272
368
176
0
-192
-256
-144
192
176
32
0
112
144
64
-32
-128
-96
48
-64
-272
-320
-240
-128
128
240
240
176
176
176
256
112
-48
-96
-128
-160
-240
-352
-256
112
192
176
80
16
-64
-160
16
192
128
128
192
96
0
0
32
-32
-32
-48
-176
-240
-64
112
144
16
32
32
0
-64
-48
32
48
48
48
80
48
32
-128
-160
-128
-256
-80
192
320
64
-304
-384
-208
48
160
288
384
272
176
160
112
48
16
48
112
112
-112
-480
-464
144
336
96
-32
16
160
112
-48
-80
32
128
64
-16
112
0
-144
32
144
-208
-544
-496
0
432
400
192
128
64
0
-48
-64
-176
-176
-48
-32
192
400
336
128
-16
-64
0
32
-128
-128
-80
-16
64
144
192
32
-128
-336
-272
208
336
176
128
128
48
-32
-80
-96
-80
-112
-192
-48
32
160
272
304
144
32
-48
-144
-176
-128
48
160
144
96
128
160
112
48
32
-48
-144
-272
-432
-576
-256
304
368
-64
-128
128
400
336
160
96
32
48
112
64
16
16
128
112
64
-48
-112
-96
-96
-96
-48
64
32
-160
-176
-32
64
32
-128
-432
-512
-144
160
304
368
400
256
48
-32
-64
-48
-128
-208
-288
-336
-448
-96
512
608
400
256
128
16
-48
32
160
48
-48
-96
-80
-64
-48
-64
-288
272
176
112
96
128
96
64
0
-208
-240
-80
16
80
128
112
64
-112
-320
-224
-48
128
240
144
112
64
48
64
-32
-112
16
144
64
-192
-256
-96
240
336
96
-144
-240
-208
16
112
0
48
176
160
112
32
-176
-480
-448
-48
128
192
144
272
352
144
32
16
-128
-336
-288
16
-16
-96
-48
-32
144
144
224
272
176
32
-32
-64
-112
-144
-80
96
32
-128
-176
-128
-32
-16
96
64
-112
-48
112
272
128
-64
-48
64
128
64
-32
160
-32
-96
80
240
176
16
0
80
64
48
-32
-128
-208
-160
-96
-112
-240
-224
16
160
80
64
176
272
208
96
-80
-224
-160
-32
32
32
80
48
96
48
32
32
32
128
80
-144
-400
-432
-80
368
416
176
-256
-304
-16
176
96
0
16
-16
32
144
80
-48
-192
0
176
64
-80
-96
-48
16
144
144
-48
-144
-112
64
112
16
16
16
48
64
-80
-208
0
80
-144
-240
-16
112
112
160
80
32
32
16
16
-16
-176
-432
-432
-176
-336
-352
-144
112
80
-128
-176
-48
64
16
-16
128
272
304
192
112
80
-32
-192
-432
-624
-560
-144
48
64
432
464
288
208
192
176
128
64
16
0
-16
-32
-112
-208
-432
-304
-32
-32
-80
64
176
224
208
128
144
32
-240
-256
48
80
-176
-224
-176
-32
112
304
336
144
32
64
80
0
-80
-144
-80
48
32
32
80
80
48
16
-80
48
256
144
80
80
0
-64
-160
-320
-416
-288
96
400
224
0
-80
-48
128
208
112
0
-64
-96
128
176
0
-64
48
112
32
16
16
16
96
0
-80
-48
-48
-64
128
288
160
0
-128
-128
32
144
-160
-368
-176
128
160
224
224
144
64
96
80
-32
-64
16
96
192
80
16
16
64
112
128
16
0
112
64
64
32
-48
16
128
208
144
128
160
80
-16
-144
-192
-112
0
32
128
224
192
96
-48
-128
-64
112
240
128
16
-128
-144
-96
144
240
128
96
96
96
32
48
32
96
160
176
112
-32
-16
-80
-96
-32
112
176
16
-128
-48
144
208
64
-80
-208
-272
-240
-96
144
256
208
192
224
208
112
96
144
48
0
-32
-240
-384
-176
160
176
32
0
128
176
160
64
80
80
16
-176
-256
-48
256
224
144
32
-112
-64
80
112
-64
-80
-80
-64
-96
-128
-128
0
256
256
160
112
128
128
112
32
-16
0
32
-32
-144
-208
-224
-336
-304
-48
160
128
0
48
160
208
240
128
0
-112
-160
0
352
240
0
-64
32
112
112
112
16
-48
-32
-16
-32
-80
0
64
96
32
-160
-240
-32
224
336
192
48
48
80
-16
-112
-160
-96
96
112
80
16
-16
-16
-48
16
32
96
128
-32
-96
-192
-256
-96
112
288
160
0
-64
-96
-48
-80
-48
16
160
240
160
96
-32
-208
-288
-208
0
144
16
-80
48
192
128
32
64
160
80
-80
-80
0
32
-96
-112
-48
-48
-64
-160
-48
112
112
64
128
144
112
32
-48
0
80
64
0
-112
-192
-64
128
112
0
-64
-96
-64
80
80
64
48
-16
-128
-240
-176
144
176
-16
-160
-64
80
80
64
32
64
128
112
128
240
176
48
16
32
16
-112
-240
-208
-96
80
16
-96
-80
160
272
144
-112
-256
-96
80
96
80
112
16
-256
-448
-304
-32
176
144
144
176
-64
32
64
16
-48
-112
-208
-240
-96
80
144
176
160
16
-16
32
48
16
-272
-464
-128
304
240
0
-32
32
64
112
96
48
96
32
48
80
96
-16
-112
-48
0
16
-32
-112
-128
-16
64
-112
-288
-208
32
240
288
192
128
112
64
48
96
80
48
32
-48
-160
-192
-112
-16
-16
64
112
16
-64
-128
-240
-336
-192
144
400
336
224
144
112
64
-48
-224
-272
-64
32
112
160
48
-80
-176
-144
48
96
0
64
208
160
16
-112
16
416
352
240
128
48
80
144
144
80
16
-48
-96
-144
-208
-240
-96
176
144
64
96
16
-48
-64
-64
-128
-96
64
80
32
-16
96
176
208
128
16
16
16
0
-32
32
80
32
-32
-48
-80
-48
16
64
0
-96
-48
64
16
-64
-176
-112
48
160
144
80
96
64
-64
-80
16
160
160
48
-64
-32
16
96
96
-112
-336
-480
-336
-160
48
80
176
288
208
160
160
128
96
80
32
-16
-64
-64
-16
16
-32
-176
-368
-192
112
-112
-96
-96
-64
-64
32
192
192
128
16
0
32
32
0
-32
-96
-176
-80
96
96
0
-16
-64
-48
-96
-48
144
192
112
16
-16
-64
-96
-128
-112
0
112
128
112
80
-32
-96
-16
16
-128
-256
-144
-16
16
32
176
96
0
-48
-112
-16
96
96
-48
-48
48
-16
-80
-64
80
176
16
-80
-64
0
80
128
80
16
0
-32
-16
-80
-16
96
160
80
-48
-96
-64
64
0
-160
-208
-144
-16
-64
-128
-112
128
176
48
-80
-96
160
-144
32
128
176
208
112
64
0
-160
-256
-288
-288
-224
-96
208
240
96
96
96
32
0
48
32
-32
-80
-32
0
-96
-112
32
240
256
16
-80
-32
80
112
80
16
-48
-128
-144
-192
-192
-32
64
-64
-16
192
160
32
48
128
112
48
-48
-192
-240
-160
-208
-160
160
256
160
32
-80
-64
80
176
64
-64
-80
-48
-64
-192
-336
-288
64
80
48
96
64
80
96
128
96
32
48
128
144
80
-128
-480
-480
32
272
128
32
32
-32
-48
-96
32
48
-96
16
96
16
-16
-64
-32
48
-48
-160
-144
-16
80
0
-16
112
16
-16
-112
-128
-112
-128
-144
-272
-256
0
256
272
176
64
-32
16
160
144
0
-48
-16
80
128
32
-112
-288
-224
112
192
0
-64
-96
0
112
32
-64
-32
16
96
48
-48
-16
32
32
80
112
96
-48
-176
-208
-256
-240
-144
-80
64
192
176
176
208
176
64
-48
-48
0
32
64
16
-64
-64
-16
-16
0
16
-48
-112
-96
-48
-48
-112
0
-128
-16
112
128
80
32
0
-16
-64
-128
-176
-112
0
96
112
16
-48
-32
-96
-64
32
48
-32
-96
-16
96
96
48
32
32
48
16
-48
-16
16
16
96
48
-144
-240
-80
64
0
-96
-32
160
96
-16
16
96
80
96
80
-48
-144
-176
-144
-96
-32
0
-16
0
80
160
112
-16
-64
-64
-48
-32
-32
80
208
96
-16
-32
-32
-32
-80
-176
-160
-16
16
64
64
96
112
0
-80
-64
112
128
16
-16
-16
64
64
-16
-64
-128
144
80
-64
-96
-160
-128
0
16
32
64
32
16
32
16
-48
-48
16
48
64
16
-160
-160
-48
48
64
-32
-144
-208
0
224
176
-48
-64
80
96
-80
-144
-48
64
32
-240
-448
-256
176
208
0
0
208
176
48
64
128
64
-16
-64
-32
32
80
32
-16
0
-16
-16
-48
-80
-128
-96
-80
-160
-112
-32
0
-144
-80
64
-64
-240
-176
128
288
304
208
144
-48
-288
-272
0
112
128
96
64
80
16
0
0
32
48
0
-48
-48
-128
-96
32
32
-48
-320
-400
-304
0
272
400
240
-32
-240
-224
16
192
288
160
64
64
16
0
16
16
-48
-144
-192
-48
256
144
-64
16
16
-16
-48
-144
-112
0
-64
-96
-16
-32
0
96
144
128
80
-32
-208
-272
-176
-64
96
144
48
-48
32
48
-176
-496
-336
0
240
256
176
160
176
144
192
160
80
48
16
-16
-80
-112
-128
-112
-176
-288
-288
-192
48
128
64
96
48
-80
-128
-224
-208
16
144
32
-32
-32
48
80
-64
80
128
112
64
0
-112
-256
-288
-240
-192
48
160
176
160
144
96
112
96
32
0
0
-128
-160
-160
-256
-208
128
208
176
64
-48
-96
-96
-48
-32
16
48
48
112
128
96
-16
-128
-352
-512
-160
336
288
80
16
96
112
64
16
0
16
48
32
16
-32
-48
-64
-32
16
80
48
-64
-160
-176
-64
128
96
32
16
0
48
96
48
-32
-144
-208
-128
32
16
-80
-160
-64
208
192
80
80
64
16
-48
-160
-176
-32
144
144
96
-80
-64
-48
-64
-80
-16
32
32
0
0
0
-32
-16
64
64
32
16
-16
-16
48
16
-16
-32
-32
-80
-96
-80
32
128
112
80
48
0
-48
0
48
-48
-128
-80
32
16
-80
-48
0
-32
-32
-32
32
112
128
128
32
-80
-64
48
80
64
0
-48
-64
-96
-96
-64
-16
16
32
-16
-16
0
96
-16
-80
-64
-32
64
48
32
48
-80
-160
-112
-128
-224
-176
128
208
48
0
96
112
32
-16
-64
48
80
48
-16
-80
-144
-144
192
224
64
48
64
0
0
48
80
64
0
-16
-128
-320
-528
-368
32
288
320
80
-32
64
208
240
160
64
-16
-64
-64
-48
-16
0
-16
-16
16
32
0
-32
16
80
96
64
-16
-64
-96
-112
-96
-128
-192
-32
-32
-32
-96
-80
48
48
0
-48
-32
0
-80
-112
-48
64
128
32
-144
-160
-80
48
96
80
32
-32
16
96
80
16
-48
-80
-128
-224
-464
-512
-224
336
576
240
48
64
80
80
96
64
0
0
-32
-80
-64
-96
-144
-48
80
112
80
48
48
32
-16
0
64
64
16
0
-16
-32
-80
-128
-144
-96
-32
-16
48
80
96
64
32
0
-16
0
64
48
16
0
-16
-32
-48
-48
-32
-32
-48
-48
-16
32
64
32
0
16
0
16
16
-32
-48
16
80
80
48
48
32
16
48
32
0
-16
-32
-48
-48
-32
-32
-32
-32
-32
0
16
32
16
0
16
16
16
32
32
16
0
-16
-16
-32
-48
-32
-32
-32
-32
-16
0
0
0
-16
16
32
32
-32
-32
-16
0
32
16
16
16
0
16
32
32
0
-16
-16
-32
-48
-48
-48
-32
-48
-32
-32
0
16
16
16
16
0
16
32
32
0
-16
-16
-16
-32
-48
-32
-32
-32
-32
-16
0
16
16
16
16
0
0
16
16
0
-16
-16
-32
-48
-48
-48
-32
-32
-32
-16
0
16
16
16
16
16
16
32
32
16
-16
-16
-16
-32
-48
-48
-32
-32
-32
-32
0
16
16
16
16
16
16
32
32
16
-16
-16
-16
-32
-48
-32
-32
16
32
16
-16
-16
-32
-48
-48
-48
-48
-48
-48
-32
-16
0
16
16
16
16
0
16
16
16
-16
-16
-32
-48
-64
-64
-48
-48
-48
-48
-16
0
0
0
0
0
0
16
16
0
-16
-32
-32
-48
-64
-48
-48
0
16
0
-16
-32
-32
-48
-64
-64
-48
-48
-48
-48
-32
-16
0
0
0
0
0
16
16
0
-16
-32
-32
-48
-64
-64
-64
-64
-64
-48
-32
-16
0
0
16
0
0
16
16
0
-16
-32
-32
-48
-64
-64
-64
0
16
0
-16
-32
-32
-48
-64
-64
-64
-64
-64
-48
-32
-16
0
0
0
0
0
0
16
0
-16
-32
-32
-48
-64
-64
-64
-64
-64
-64
-48
-16
-16
0
0
0
0
0
16
16
-16
-32
-32
-48
-64
-64
-64
-64
-48
-48
-32
-16
0
0
16
16
0
0
16
16
-16
-16
-32
-32
-48
-48
-48
-48
-48
-48
-32
-16
-16
0
0
0
0
0
16
16
-16
-16
-32
-32
-64
-64
-64
-48
-64
-48
-32
-16
0
0
0
0
0
-48
-48
-48
-32
-16
0
0
0
0
0
0
16
16
0
-16
-32
-32
-48
-48
-48
-48
-48
-48
-32
-16
0
0
0
0
0
0
16
16
0
-16
-32
-32
-48
-48
-48
-48
-48
-48
-32
-16
0
0
16
16
16
0
16
16
0
-16
-32
-32
-48
-48
-48
-48
-48
-48
-32
-16
0
16
16
16
16
16
16
16
0
-16
-32
-32
-48
-64
-48
-48
-48
-48
-32
-16
0
16
16
16
16
16
16
32
16
0
-16
-16
-48
-48
-48
16
16
32
0
-16
-16
-32
-48
-48
-48
-48
-48
-48
-32
-16
0
16
16
16
16
16
16
32
0
-16
-32
-32
-48
-48
-48
-48
-48
-48
-32
-16
0
16
32
32
32
16
16
16
0
-16
-32
-32
-48
-64
-48
-48
-48
-48
-32
-16
0
0
16
16
16
0
16
16
0
-16
-32
-32
-48
-48
-48
-48
-48
-48
-48
-32
-16
0
16
16
16
0
16
16
0
-16
-16
-32
-48
-48
-48
-48
-48
-48
-48
-32
-16
0
16
16
16
0
16
16
0
-16
-32
-32
-48
-48
-48
-48
-48
-48
-48
-32
0
0
16
16
16
0
16
16
0
-16
-16
-32
-48
-48
-48
-48
-48
-32
-32
-16
0
0
16
0
0
0
16
16
0
-16
-32
-32
-48
-64
-64
-48
-48
-48
-48
-32
-16
0
0
16
16
16
16
32
16
-16
-16
-32
-48
-48
-64
-48
-48
-48
-48
-32
-16
0
0
16
16
0
16
16
0
-16
-16
-32
-32
-48
-48
-48
-48
-48
-48
-32
-16
0
0
0
16
-48
-48
-64
-48
-32
-16
0
16
16
16
0
16
16
16
-16
-32
-32
-48
-48
-64
-48
-48
-48
-48
-32
-16
0
16
16
16
0
0
16
16
-16
-16
-32
-32
-48
-48
-48
-48
-48
-48
-32
-16
0
0
0
16
0
16
16
16
-16
-16
-32
-32
-48
-48
-48
-48
-48
-48
-32
-16
0
16
16
16
0
16
16
16
-16
-32
-32
-48
-48
-48
-48
-48
-48
-48
-32
-16
0
0
0
0
0
0
16
16
-16
-16
-32
-32
-48
-48
0
0
16
16
-16
-16
-32
-32
-48
-48
-48
-48
-48
-48
-32
-16
0
0
0
16
0
0
16
16
0
-16
-16
-32
-48
-64
-64
-64
-64
-64
-48
-32
-16
0
0
16
0
0
16
16
-16
-32
-32
-48
-64
-64
-64
-48
-64
-48
-48
-32
-16
0
0
0
0
0
16
16
-16
-32
-32
-32
-64
-64
-64
-64
-64
-64
-48
-32
-16
0
0
16
16
16
16
16
0
-16
-32
-32
-48
-64
-64
-64
-64
-48
-48
-16
0
0
0
16
-48
-48
-48
-48
-48
-32
-16
0
0
0
0
0
16
16
0
-16
-32
-32
-48
-64
-64
-48
-48
-48
-32
-16
0
0
0
0
0
0
16
16
0
-16
-32
-32
-48
-48
-48
-48
-48
-48
-32
-16
-16
0
0
0
16
16
32
32
16
-16
-16
-32
-48
-64
-64
-64
-64
-64
-48
-32
-16
0
16
16
16
0
16
16
0
-16
-16
-32
-48
-64
-48
-48
-48
-48
-48
-32
-16
0
0
0
0
0
16
16
0
-16
-32
-32
-48
-64
0
0
16
16
0
-16
-32
-32
-48
-64
-64
-48
-64
-64
-48
-32
-16
0
16
16
16
0
16
32
16
-16
-16
-32
-48
-64
-64
-64
-64
-64
-48
-32
-16
0
16
16
16
0
16
16
16
-16
-16
-32
-48
-48
-64
-48
-48
-64
-48
-32
-16
0
16
16
16
16
16
32
16
-16
-16
-32
-48
-64
-48
-48
-48
-48
-48
-32
-16
0
0
0
0
0
16
16
16
-16
-16
-16
-32
-48
-48
-48
-48
-48
-48
-32
-16
0
16
16
-48
-48
-48
-48
-48
-32
-16
0
16
16
16
16
16
16
16
-16
-16
-16
-32
-48
-48
-48
-48
-48
-48
-32
-16
0
16
16
16
0
16
32
16
0
-16
-16
-32
-48
-48
-48
-48
-48
-48
-32
-16
0
16
16
16
16
16
32
16
0
-16
-16
-32
-48
-48
-32
-32
-32
-32
-16
0
16
16
16
16
16
16
32
16
0
-16
-16
-32
-48
-48
-48
-48
-48
-48
-32
-16
0
16
16
32
16
16
32
32
0
0
-16
-16
-48
16
16
16
32
32
16
0
-16
-16
-32
-48
-32
-32
-48
-32
-16
0
16
32
32
32
32
32
32
32
0
-16
-16
-16
-48
-48
-48
-48
-48
-48
-32
-16
0
16
16
16
16
16
32
32
16
0
0
-16
-32
-32
-32
-32
-48
-48
-32
-16
0
16
16
16
16
16
32
32
16
0
-16
-16
-32
-32
-32
-32
-48
-32
-32
-16
0
16
32
32
16
16
32
32
16
0
-16
-16
-48
-48
-64
-48
-48
-32
-16
0
16
16
0
-48
-48
-48
-48
-48
-32
-16
0
16
16
16
16
16
32
32
16
-16
-16
-16
-32
-48
-48
-32
-48
-48
-32
-16
0
16
16
32
32
16
32
48
16
0
-16
-16
-32
-32
-32
-32
-48
-48
-32
-16
0
16
16
-32
-32
-32
-32
-48
-32
-16
0
16
16
16
16
16
16
32
16
0
-16
-16
-32
-48
-48
-48
-48
-48
-32
-16
0
16
16
16
32
16
32
32
16
0
0
-16
-32
-48
-48
-48
-48
-48
-32
-16
0
16
16
-64
-64
-64
-64
-32
0
0
0
16
16
16
32
16
16
16
0
-32
-16
0
-16
-32
-32
-16
-16
-32
-32
-16
0
16
32
32
32
16
32
32
32
0
-16
-16
-32
-48
-48
-32
-32
-48
-32
-16
0
16
32
-48
-48
-48
-48
-48
-32
-16
-16
0
16
16
16
16
16
32
32
0
-16
-16
-32
-48
-48
-48
-48
-64
-64
-32
0
0
0
16
16
16
32
48
48
16
0
0
-16
-32
-32
-32
-32
-48
-48
-32
-16
16
32
48
48
32
32
32
32
0
-16
-16
-32
-48
-64
-64
-48
-48
-32
-16
0
32
32
32
16
16
16
32
32
0
-16
-16
-32
-32
-32
-32
-32
-32
-32
-16
0
16
16
16
16
16
16
16
16
0
-16
-16
-32
16
16
0
-16
-16
-32
-32
-32
-16
-32
-32
-32
-32
-48
-64
-64
-48
-32
-16
16
48
64
48
48
64
48
16
0
0
-16
-32
-48
-48
-64
-80
-80
-48
-32
-16
0
16
48
48
32
32
32
0
-16
-16
-16
-48
-64
-48
-32
-32
-16
16
16
32
32
32
16
16
16
32
16
16
0
-16
-16
-48
-48
-48
-48
-48
-64
-64
0
32
48
32
32
0
-32
-48
-48
-80
-96
-80
-16
0
0
0
0
0
0
-32
-64
-80
-80
-96
-80
-80
-96
-128
-128
-96
-64
-32
16
32
-16
-48
-64
-96
-96
-64
0
16
0
-32
-48
-64
-64
-112
-176
-208
-240
-192
-128
-16
80
128
160
144
48
16
32
32
-32
-96
-128
-144
-128
-64
0
48
80
64
32
0
0
-32
-64
-48
-64
-64
-48
-16
0
-16
-48
-80
-112
-144
-128
-32
16
-16
-32
-16
0
16
48
32
0
-32
-64
-48
-48
-128
-128
-112
-144
-176
-112
-32
0
64
16
-80
-128
-176
-160
-96
-32
-32
-16
-16
-32
-32
0
16
-64
-144
-32
32
-128
-224
-272
-256
-272
-288
-224
-112
-16
64
32
80
224
208
112
-16
-160
-192
-160
-64
80
48
-112
-240
-240
-160
-32
128
240
224
144
48
-16
-32
-96
-128
-144
-240
-288
-272
-224
-80
112
-192
-224
-272
-400
-464
-208
0
96
112
80
192
256
176
64
16
-32
-112
-208
-384
-512
-480
-288
32
144
208
272
256
48
-64
64
96
-16
-320
-624
-432
-16
160
0
-112
-32
160
224
224
192
240
144
-128
-368
-240
-96
-32
112
64
16
48
0
-160
-336
-208
48
-160
-736
-704
80
544
416
336
240
112
64
80
64
0
-32
-64
-176
-304
-336
-128
208
416
240
32
0
80
80
16
-96
-96
-144
-256
-240
-112
-272
-464
-352
160
320
160
-32
-80
-16
-64
-48
80
208
32
-32
128
224
64
-16
16
48
-48
-240
-240
-80
-80
-160
16
160
80
-48
-256
-176
80
208
112
160
208
176
112
-32
0
80
112
32
-80
-112
0
32
32
16
-16
-80
48
48
-240
-464
32
160
192
144
16
-16
-16
0
48
64
-48
-176
-144
80
112
-160
-256
-64
80
64
-32
-80
-64
0
160
240
48
-128
-64
32
-160
-304
-32
192
288
304
224
128
32
-112
-160
-144
-192
-144
16
128
16
128
176
80
0
32
96
80
208
176
32
-64
-96
-128
-272
-320
-16
240
160
64
80
80
48
64
160
144
64
-144
-352
-208
176
208
-128
-288
-176
160
256
176
144
64
48
64
64
64
64
112
96
0
-128
-224
-208
16
160
256
144
48
64
32
-48
-96
-64
0
-144
-224
-144
128
192
144
64
0
96
176
128
64
32
48
0
-256
-464
-352
-192
-64
64
80
128
-80
-384
-384
0
336
592
432
112
48
112
128
80
48
-48
-128
-96
0
32
48
-48
-160
-176
-128
-32
80
48
112
96
16
-48
-32
32
32
0
144
192
96
48
0
-112
-224
-176
-16
64
64
112
96
112
-16
-96
-48
-96
-336
-480
-272
128
208
176
96
176
160
160
160
48
48
-48
-224
-368
-320
-48
-320
-608
-464
-96
112
128
128
64
112
48
16
32
-64
-224
-112
240
320
192
96
32
48
48
16
-16
-32
-96
-112
-16
-16
64
208
224
64
-64
-48
-32
-48
0
-80
-224
-96
-64
0
64
128
128
0
-16
80
96
-32
-48
-128
-224
-112
112
160
160
176
96
-32
48
80
0
-112
-160
0
96
-32
-160
-160
48
224
80
-176
-176
32
176
144
48
48
96
112
128
144
64
32
32
-16
-48
-128
-128
0
48
-32
-32
-32
-80
-80
16
48
-48
-288
-256
-32
192
240
112
-48
-80
16
176
208
64
-16
-80
-80
-16
-64
-112
-112
-160
-224
-96
176
288
0
-80
192
272
48
-112
-128
-80
-32
-64
-96
-64
112
176
160
176
96
-16
-48
-208
-352
-224
-32
160
144
224
224
96
-16
-32
16
80
192
112
-48
-208
-288
-224
-112
32
64
-176
-224
80
288
288
208
96
0
32
32
-128
-272
-112
-16
32
112
32
-32
-80
-176
-288
-384
-160
224
400
352
256
-32
-256
-144
64
240
144
64
-32
-208
-224
-144
16
32
80
64
-64
16
224
128
-48
-48
16
32
-16
-112
-240
-96
-16
80
32
-32
-32
-80
-32
128
224
176
80
32
-16
-48
-80
-16
64
112
0
-32
-128
-160
-96
16
16
16
96
32
64
32
48
48
16
-48
-32
0
16
-48
-128
-144
-288
-304
-144
80
144
208
176
16
0
-16
-48
-128
-320
-352
-32
336
288
144
96
80
64
64
32
-48
-64
-128
-144
64
144
32
-32
0
48
0
-96
-112
-16
0
-208
-144
96
64
48
112
144
128
128
112
96
48
-16
-48
-32
-16
-80
-160
-144
-96
-112
16
160
112
16
-32
-64
-240
-256
-64
112
96
48
-32
-80
16
48
-32
-64
-64
-112
-128
64
208
160
96
96
32
-64
-112
32
32
0
32
32
-64
-176
-192
-64
144
48
-16
-48
-64
-144
-144
64
160
160
80
16
-16
-128
-144
-224
-496
-752
-480
256
592
384
128
96
96
128
80
-16
-128
-128
-32
144
144
-16
-48
0
112
112
96
64
-64
-160
-192
-192
-240
-240
-176
0
208
224
208
144
80
64
64
80
-16
-112
-96
-80
-80
16
64
144
128
16
-80
-112
-16
-48
-144
-192
-80
80
-16
-64
64
80
112
112
0
-128
-144
-80
16
48
-80
-16
-16
-32
16
32
48
-96
-272
-272
-112
112
0
-208
-64
240
256
128
112
96
64
48
48
64
-32
-160
-144
-224
-400
-304
-64
112
192
256
160
0
-48
-16
32
80
-48
-80
0
48
128
48
-32
-16
48
80
64
0
-48
-48
-224
-352
-256
96
176
112
144
256
224
112
16
32
32
0
-48
-64
-32
-112
-144
-144
-144
16
160
16
-128
-176
-96
80
208
176
0
-128
-128
-80
64
144
32
-64
-64
48
96
0
0
96
112
0
-96
-128
-80
-48
-48
-192
0
96
144
144
112
32
96
176
0
-208
-176
16
48
-48
-32
0
48
64
64
96
-16
-64
-32
-16
-32
32
96
96
-16
-80
-128
-80
-64
-16
-16
0
80
32
0
64
48
0
32
16
-64
-240
-208
96
208
128
32
-160
-208
-112
-80
-192
-192
-80
-96
-64
96
112
160
144
128
112
48
32
64
64
80
64
-48
-112
-16
48
16
-32
-80
-80
-272
-432
-192
272
208
64
128
144
16
-96
-64
16
-16
-80
-160
-64
0
96
64
-64
80
-16
-16
-32
-80
-32
-32
-32
-48
-176
-256
-64
128
208
304
192
96
32
0
-32
-64
-160
-272
-192
-144
-192
-16
144
128
128
128
112
64
-32
-64
-32
0
-112
-368
-352
-128
16
240
256
128
144
96
0
-16
16
32
16
32
32
32
-32
-16
32
96
80
48
16
-80
-192
-256
-160
-112
-80
-80
16
128
160
48
-80
-48
-16
-80
-96
-144
-272
-208
16
240
224
160
96
-16
-240
-368
-224
112
288
80
-144
-192
32
96
80
144
96
112
80
48
16
32
80
128
64
16
64
48
-16
-64
-112
-160
-192
-208
-112
128
112
-32
-80
-48
112
128
48
-16
-32
16
80
32
-48
0
80
96
-16
-144
-208
-256
-192
-112
48
192
160
160
96
48
80
96
32
-32
-16
-16
0
32
-16
-64
-16
32
-16
-48
-32
32
80
96
80
0
0
48
64
64
48
-64
-144
-192
-192
-144
-16
96
48
0
-64
-48
-64
-80
-48
80
80
16
96
192
128
-16
-80
-16
-32
-128
-128
16
-96
-64
80
96
64
0
-16
-80
-224
-368
-272
80
256
192
64
-16
-32
-32
-32
96
112
16
-32
0
0
-64
-80
0
48
-16
16
48
-48
-96
48
96
96
64
16
-32
80
112
32
-32
-64
-64
-112
-144
-160
-48
-48
0
48
64
32
0
64
96
64
0
-112
-256
-48
176
128
0
-16
-96
-160
-64
32
64
32
-32
-80
-16
48
128
112
96
96
64
0
-32
-48
-32
-64
-208
-336
-208
-48
128
128
-32
-96
-16
112
128
16
-96
-16
-96
-80
16
96
64
-32
-96
-32
16
-16
48
96
32
-96
-96
-48
-16
-64
-96
-64
-64
-48
112
128
80
48
32
-48
-112
-160
-224
-192
-48
48
0
-16
-32
-336
-496
-112
320
256
128
96
192
208
128
96
80
64
48
0
-64
-64
-128
-160
-144
0
80
-16
-112
-96
-48
32
48
-32
-80
16
32
112
96
48
-80
-192
-160
0
144
48
-128
-272
-112
80
64
48
32
48
16
32
16
-16
-64
-176
-64
112
144
-16
-64
-48
16
64
-16
-48
-32
-32
32
96
64
0
-48
-64
-48
-32
16
0
16
48
48
0
-96
-128
16
48
-32
-128
-192
-32
160
96
32
16
-16
32
16
-32
-64
-80
-112
-64
64
112
128
80
-48
-160
-160
32
96
48
-48
-96
0
112
112
80
32
-16
-16
48
128
64
-112
-160
-80
-64
-48
-80
-144
-96
-16
-112
-112
0
64
160
80
0
16
64
80
32
48
32
32
-16
-192
-288
-192
-32
0
0
0
160
64
32
112
96
64
64
48
16
-16
16
0
32
0
-64
-112
-80
0
16
0
-48
-16
-32
0
48
-16
-160
-256
-176
144
240
64
-80
-32
0
-64
-160
-176
-32
48
-16
-80
16
128
144
48
-16
64
96
48
0
32
16
-48
-80
-176
-208
-96
-192
-128
64
160
112
144
128
64
32
-32
-144
-224
-128
-48
32
32
80
112
96
16
-64
-96
-160
-176
-48
-16
-96
-48
160
240
64
0
0
0
-32
-112
-80
32
144
176
96
0
-16
-16
-48
-48
-80
-96
-32
-32
-32
-80
-64
-32
-80
-160
-96
112
240
176
64
-32
-80
-112
-80
-48
0
-48
-80
-96
-112
-176
-80
-16
-48
0
128
208
144
160
128
0
0
16
48
-48
-240
-320
-272
-96
-128
-192
-16
96
128
160
160
96
-16
-16
-240
-192
-112
-128
-112
16
176
192
80
16
32
16
-80
-160
-96
16
16
-96
-160
-48
80
32
-48
0
128
112
32
-32
-32
80
-16
-272
-384
-240
176
368
240
112
80
48
16
0
-16
0
0
-16
-64
-112
-64
-96
-192
-144
96
288
128
-16
-48
-32
16
48
16
32
0
-48
-112
-224
-288
-176
-64
48
96
144
48
-64
-160
-144
48
160
112
0
0
64
0
-16
16
16
-48
-208
-208
-32
32
112
112
96
80
48
16
-16
32
48
-48
-160
-80
32
112
32
-128
-144
-80
-48
16
64
48
-48
-160
-64
96
224
288
224
176
64
-16
0
0
-64
-96
-80
-16
-16
-48
-96
-96
-16
64
80
-32
-160
-96
96
192
176
96
-32
-80
-64
-32
-32
-64
-96
96
80
32
-16
-48
-48
-48
-48
-32
-48
-64
-48
-32
16
64
80
64
48
16
32
80
64
0
-48
-48
-48
-48
-64
-64
-64
-64
-16
0
32
64
80
48
16
-16
32
80
64
16
-32
-48
-48
-48
-32
-32
-32
64
64
16
-32
-48
-48
-48
-32
-32
-32
-32
-32
-16
16
32
48
48
48
32
32
64
48
0
-32
-32
-32
-48
-32
-32
-32
-32
-32
-16
16
32
48
48
48
32
32
64
48
0
-32
-32
-32
-32
-32
-32
-32
-32
-32
-16
16
32
48
48
32
16
16
48
48
16
-16
-32
-32
-32
-32
-32
-32
-32
-32
-16
0
32
48
48
32
32
32
48
48
0
-32
-32
-16
-32
-32
-32
-32
-32
-32
-16
16
32
48
48
48
32
32
-32
-32
-16
0
16
32
32
32
32
16
48
32
16
-16
-32
-32
-32
-32
-32
-32
-48
-48
-32
0
16
32
32
32
16
16
48
48
16
-16
-32
-32
-32
-48
-48
-48
-48
-48
-32
-16
16
32
32
32
16
16
-48
-48
-48
-16
0
16
32
32
16
16
32
32
0
-16
-32
-32
-48
-48
-48
-48
-48
-48
-32
-16
0
16
16
16
16
16
32
32
16
-16
-32
-32
-32
-48
-48
-48
-48
-48
-48
-32
0
16
16
16
16
16
32
32
16
-16
-16
-32
-32
-48
-48
-48
-48
-48
-32
-16
0
16
16
16
16
16
32
32
16
-16
-32
-32
-32
-48
-48
-48
-48
-48
-32
-16
0
16
16
16
16
16
32
32
16
-16
-16
-16
-32
-48
-48
-32
-48
-48
-48
-32
-16
0
16
16
16
16
16
32
16
-16
-16
-32
-32
-48
-48
-48
-48
-48
-48
-32
0
16
32
32
32
16
32
32
16
-16
-16
-32
-32
-48
-48
-48
-48
-48
-48
-32
0
16
16
16
16
16
16
16
16
-16
-32
-32
-32
-48
-48
-48
-48
-64
-48
-32
-16
0
16
16
16
16
16
32
16
-16
-16
-32
-32
-48
-48
-48
-48
-48
-48
-32
-16
0
16
16
16
0
16
16
16
-16
-16
-32
-32
-48
-48
-48
16
16
16
-16
-32
-32
-32
-48
-64
-48
-48
-48
-48
-32
-16
0
16
16
0
0
0
16
16
0
-16
-32
-32
-48
-64
-64
-64
-64
-64
-48
-16
0
16
16
16
16
16
16
16
0
-16
-32
-32
-48
-64
-64
-48
-64
-48
-48
-16
0
16
16
16
16
16
16
16
0
-16
-32
-32
-48
-64
-48
-48
-64
-64
-48
-16
0
16
16
16
16
16
16
16
0
-16
-32
-32
-48
-48
-48
-48
-48
-48
-32
-16
0
16
16
16
16
-48
-64
-64
-48
-32
0
16
16
16
16
16
16
16
0
-16
-32
-32
-48
-64
-64
-64
-64
-48
-48
-16
0
16
16
16
16
0
16
16
0
-16
-32
-32
-48
-64
-64
-64
-64
-64
-48
-32
-16
0
16
16
16
0
16
16
0
-16
-16
-32
-48
-48
-48
-48
-48
-48
-48
-32
0
0
16
16
16
16
32
32
16
0
-16
-32
-48
-64
-64
-64
-64
-64
-48
-32
-16
0
16
16
16
16
16
32
16
-16
-16
-32
-48
-64
-64
16
16
32
16
-16
-16
-32
-48
-64
-64
-48
-48
-48
-32
-16
0
0
16
16
16
0
16
16
16
-16
-32
-32
-48
-64
-64
-48
-48
-48
-48
-32
0
16
16
16
16
16
16
32
16
-16
-16
-32
-48
-64
-64
-64
-64
-64
-48
-32
-16
0
16
16
16
16
16
32
16
0
-16
-16
-32
-48
-64
-48
-48
-48
-48
-32
-16
0
16
16
16
0
16
32
16
-16
-16
-32
-48
-48
-64
-48
-48
-48
-48
-32
-16
0
16
16
16
-48
-48
-64
-48
-32
-16
0
16
16
16
0
16
16
16
-16
-16
-32
-32
-48
-64
-64
-64
-64
-48
-32
-16
0
16
16
16
16
16
16
16
-16
-16
-32
-32
-64
-64
-48
-48
-48
-48
-32
-16
0
0
16
16
16
16
32
32
0
-16
-16
-32
-48
-64
-64
-64
-64
-64
-48
-32
-16
0
0
16
16
16
16
16
-16
-32
-32
-48
-64
-64
-64
-64
-64
-48
-32
-16
0
16
16
16
16
16
16
16
0
-16
-32
-32
-48
-64
16
16
32
32
0
-16
-16
-32
-48
-64
-48
-48
-64
-64
-48
-32
0
0
0
0
0
0
16
16
0
-16
-32
-32
-48
-64
-48
-48
-48
-48
-48
-32
0
16
16
16
16
16
16
32
0
-16
-16
-32
-48
-48
-48
-48
-48
-48
-48
-32
0
0
16
16
16
0
16
16
0
-16
-16
-32
-48
-48
-48
-32
-48
-48
-32
-16
-16
0
16
16
16
16
16
32
16
-16
-16
-32
-48
-48
-64
-48
-48
-48
-48
-32
-16
0
16
16
-48
-48
-48
-48
-48
-32
-16
0
16
16
16
16
16
16
0
-16
-32
-32
-48
-48
-48
-48
-48
-48
-32
-16
0
16
16
16
16
16
16
16
0
-16
-16
-16
-32
-48
-48
-48
-48
-64
-48
-32
-16
0
16
16
16
0
16
16
0
-16
-32
-32
-48
-48
-48
-48
-48
-48
-32
-16
0
16
16
16
16
16
16
32
16
-16
-16
-32
-48
-48
-48
-48
-48
-48
-48
-32
0
16
16
16
16
16
16
32
16
-16
-16
-32
-48
-48
16
16
16
32
16
-16
-16
-32
-32
-48
-48
-48
-48
-48
-48
-32
0
16
16
16
16
16
16
32
16
-16
-16
-32
-48
-48
-64
-48
-48
-48
-48
-32
-16
0
16
16
16
16
16
32
16
-16
-16
-32
-32
-48
-64
-48
-48
-48
-48
-32
0
0
16
16
16
16
16
32
16
0
-16
-16
-32
-48
-32
-32
-32
-48
-48
-32
-16
0
16
16
16
0
16
16
16
-16
-16
-32
-32
-48
-64
-48
-48
-48
-48
-32
-16
0
16
16
-48
-48
-48
-48
-48
-32
-16
0
16
16
16
16
16
32
32
16
0
-16
-16
-48
-48
-48
-48
-48
-48
-32
-16
0
16
16
32
16
16
16
16
0
-16
-32
-32
-48
-48
-48
-48
-48
-48
-32
-16
0
16
16
16
16
16
32
32
0
-16
-16
-32
-48
-48
-48
-48
-48
-48
-32
-16
0
16
16
16
16
16
16
16
0
-16
-16
-32
-48
-48
-48
-48
-48
-48
-32
-16
0
16
16
16
16
16
32
32
0
-16
-16
-32
-48
16
16
16
32
32
0
-16
-16
-32
-48
-48
-48
-48
-48
-48
-48
-16
0
16
16
16
16
16
16
32
0
-16
-16
-32
-48
-48
-48
-48
-48
-48
-32
-16
0
16
16
16
16
16
32
32
16
-16
-16
-16
-32
-48
-48
-32
-48
-48
-32
-16
0
16
16
16
16
16
16
32
0
-16
-16
-32
-48
-48
-48
-48
-48
-48
-48
-32
0
16
16
16
16
16
32
32
16
0
-16
-16
-48
-48
-48
-48
-48
-48
-32
-16
0
0
16
-48
-48
-48
-48
-48
-48
-32
-16
0
16
16
16
16
16
32
16
-16
-16
-16
-32
-48
-48
-48
-48
-48
-32
-16
0
16
16
16
16
16
16
32
16
-16
-16
-16
-32
-48
-48
-48
-48
-48
-32
-16
0
16
16
32
32
16
32
32
16
-16
-16
-16
-32
-48
-48
-48
-48
-48
-48
-32
0
16
16
16
16
16
16
32
16
0
-16
-16
-32
-48
-48
-48
-48
-48
-48
-32
0
16
16
16
16
16
16
32
16
0
-16
-16
-32
16
16
16
16
32
32
0
-16
-16
-32
-48
-48
-48
-48
-48
-48
-32
-16
0
16
16
16
16
16
32
32
0
-16
-16
-32
-48
-48
-48
-48
-48
-48
-32
0
0
16
16
16
16
16
32
16
0
-16
-16
-32
-48
-48
-48
-48
-48
-48
-32
-16
0
16
16
16
16
16
32
32
0
-16
-16
-32
-48
-48
-48
-32
-48
-48
-32
-16
0
16
16
16
16
16
16
16
0
-16
-16
-32
-48
-48
-48
-48
-48
-48
-32
-16
0
16
16
16
16
16
32
32
0
-16
-16
-32
-48
-48
-48
-48
-48
-48
-32
-16
0
16
16
16
16
16
32
32
0
-16
-16
-32
-48
-48
-48
-48
-48
-48
-32
-16
0
16
16
32
16
16
32
32
0
-16
-16
-32
16
16
16
16
32
48
16
0
-16
-32
-48
-64
-64
-48
-48
-48
-32
0
16
16
16
16
16
32
64
48
0
-16
-16
-32
-64
-64
-64
-64
-48
-48
-64
-48
-48
-16
16
32
16
-16
-16
-32
-64
-64
-16
16
48
32
32
-16
-32
-32
-32
-32
-16
0
0
-16
-32
-32
-48
-48
-16
0
0
16
16
-16
-48
-80
-80
-64
-32
-16
16
32
0
-16
-16
-32
-80
-128
-192
-160
-80
-32
48
144
112
48
0
-32
-80
-112
-96
-64
-80
-48
0
0
-32
-64
-96
-80
-32
16
64
80
48
0
-32
-32
-16
-32
-64
-32
0
0
-48
-80
-80
-112
-96
-96
-64
-16
0
48
96
96
96
80
32
0
-16
-96
-176
-176
-144
-112
-80
0
64
32
-32
-32
-192
-272
-208
-64
80
192
128
16
-80
-128
-128
-176
-144
-128
-208
-144
-80
-48
48
112
112
96
32
-32
-112
-128
-80
0
64
0
-112
-144
-112
-64
16
96
96
80
-48
-320
-528
-576
-320
64
112
-16
-208
-208
-112
80
256
144
0
-80
-80
-176
-144
-48
32
128
160
160
48
-224
-496
-560
-288
-112
-160
-144
-64
80
320
272
208
144
32
-80
-112
-176
-192
-176
48
96
-112
-368
-576
-592
-208
208
368
272
112
32
0
-16
16
0
-96
-256
-80
-80
-112
-96
-16
320
320
32
-16
32
128
48
48
32
32
0
16
16
0
-32
-64
-48
-16
-32
-144
-336
-288
-96
-64
-192
-112
96
144
112
96
64
64
96
96
16
-64
-112
-160
-112
-96
-64
96
208
112
64
16
48
-32
-208
-288
-272
-176
-96
16
272
320
128
64
0
-96
-112
-80
-32
48
176
192
80
-16
-64
-32
-32
0
16
32
0
-112
-112
-240
-256
-144
-80
64
144
128
32
-48
32
48
-64
-96
-32
80
48
16
144
128
48
-48
0
112
96
-96
-240
-256
16
176
32
-144
32
144
96
-16
32
96
-32
-112
-160
-128
-64
-64
-48
-80
16
112
192
-64
-80
128
272
144
-48
-80
-32
-32
-16
-48
-240
-304
96
320
240
224
128
80
0
-160
-16
192
304
176
-16
-256
-304
-80
144
224
192
144
80
64
0
-96
-192
-240
-336
-464
-272
128
192
-32
-48
256
336
288
176
160
96
16
-16
-144
-288
-224
-64
48
80
144
192
64
-48
-32
64
32
-80
-224
-224
96
144
-112
-240
-112
144
160
-32
-192
-144
112
256
160
160
160
144
96
32
-160
-400
-384
-208
0
208
-48
-400
-336
64
352
240
64
-48
0
112
128
160
160
144
80
64
0
-224
-368
-336
-112
32
0
-176
-336
-160
-16
-400
-512
-240
192
272
112
96
64
-32
-272
-288
160
384
208
-96
-192
-112
16
64
80
16
0
112
192
80
32
-32
-32
0
16
-96
-416
-432
-192
64
192
224
240
208
112
144
160
48
0
-16
0
-64
-112
-144
-128
-16
-32
64
144
96
-16
-32
16
80
64
-48
-112
-160
-64
64
144
128
112
128
64
32
16
16
64
48
32
32
80
128
96
16
-96
-112
-48
-16
-128
-384
-256
160
224
0
-64
32
-96
-240
-32
208
224
192
128
192
128
-32
-128
80
384
176
-144
-160
64
192
16
-80
0
64
96
96
96
32
-16
64
128
144
-16
-304
-448
-192
-16
80
0
32
32
-48
32
208
256
224
144
16
-64
-48
-16
0
80
192
176
64
-48
-64
-32
-64
-272
-240
32
64
32
144
208
176
64
0
-32
96
224
128
-16
-16
80
32
-112
-240
-128
48
48
-96
-208
-80
128
128
144
80
-48
-80
112
352
352
160
16
-128
-304
-240
-64
64
64
144
208
16
-144
-128
-128
-96
64
176
208
112
96
80
16
64
128
192
48
-128
-80
0
48
-80
-192
-176
-176
-112
0
80
240
352
272
112
48
32
32
16
-128
-128
96
176
80
-144
-208
-64
192
288
240
80
-96
-160
-144
-112
-80
64
256
256
176
48
48
48
-64
-144
-32
144
128
144
80
-64
-160
-80
80
80
96
80
-48
-176
-240
-48
144
0
-64
32
64
-32
16
144
160
160
112
64
-16
64
160
16
-48
-48
32
144
96
-64
-176
-128
-192
-432
160
144
96
80
32
0
-16
-96
-208
-256
-272
-448
-368
16
528
672
352
176
32
-16
16
80
-48
-224
-176
80
192
112
0
48
96
32
-80
-32
128
128
64
16
-16
-112
-192
-160
-64
-16
-16
32
-48
-48
16
176
240
256
176
64
16
-112
-208
-112
0
-96
-240
-496
-512
-96
352
336
288
192
80
32
0
-48
-64
32
64
-64
0
80
176
208
192
160
128
-64
-400
-544
-224
192
304
208
64
48
96
144
96
48
80
48
-96
-176
48
96
128
96
32
-16
0
-176
-304
-112
-32
16
144
80
-64
-32
48
-48
-208
-144
0
64
80
208
208
96
96
144
16
-112
-192
-96
160
128
-80
-80
32
80
112
80
32
-80
-256
-176
-32
-96
-304
-96
256
320
208
160
144
96
-32
-160
-176
-48
32
16
-64
-48
-80
-64
-32
32
192
288
288
112
64
32
-128
-256
-208
-48
64
0
-32
48
112
96
64
-32
-192
-128
48
144
128
-16
-336
-336
-160
-128
-224
-112
-176
-112
-48
224
48
-80
-240
-224
-192
-240
-160
32
240
112
-32
32
176
144
-16
-144
-80
80
144
128
64
-144
-336
-320
-160
-80
128
160
80
48
96
112
96
-16
-48
16
160
96
-16
16
80
32
-96
-128
-16
112
128
48
-48
-48
80
16
144
192
64
-64
-64
-80
-160
-240
-160
64
176
176
112
64
48
0
0
-32
32
32
-112
0
80
16
-160
-256
-32
80
32
0
32
64
128
160
48
0
32
32
32
112
160
64
-48
-64
-48
-96
-112
-160
-176
-80
-16
-48
-112
-128
-64
112
272
192
192
160
112
64
-16
-112
-160
-272
-304
-272
32
208
32
0
128
176
128
96
-32
-32
0
48
16
-16
0
112
112
0
-96
-80
-80
-176
-176
-80
-64
-192
-224
64
144
64
-176
-176
80
208
176
64
-96
-64
96
160
-32
-64
16
80
-32
-144
-128
32
64
0
-48
-16
80
96
32
64
96
96
112
48
-32
-32
-16
32
16
-48
-80
-80
-144
-176
-160
-176
-224
-176
32
160
192
224
96
0
-16
64
96
32
-16
32
0
-16
-16
0
-16
0
32
-48
-256
-304
-16
352
240
96
-32
-128
-96
48
-32
-128
-64
-32
0
48
16
-80
32
80
32
48
-32
-112
-96
32
112
80
-64
-32
96
64
-32
-80
-48
-16
32
16
-96
-144
-128
-112
-32
-64
-176
-96
128
320
256
160
80
48
-16
-48
-48
0
64
112
64
-80
-64
0
0
0
0
64
96
16
-16
0
16
16
48
-16
-48
-128
-80
-96
-80
-112
-176
-208
-112
16
32
-16
80
48
-16
-48
-112
0
128
176
176
96
-64
-336
-480
-96
336
160
-128
-64
144
160
96
112
128
112
80
0
-80
-96
-32
-16
-48
-64
-32
-48
-32
64
80
-16
-96
-32
80
64
16
-32
-144
-144
-32
32
224
192
-256
-144
224
432
400
224
128
0
-64
32
112
48
-64
-96
-144
32
192
32
-64
-80
-96
-48
64
-80
-336
-144
112
208
128
-16
48
240
272
160
64
32
-80
-224
-256
-80
-16
-48
128
240
192
16
-224
-512
-464
-32
-48
-272
-144
-16
-96
16
64
48
-16
80
144
240
304
208
80
16
16
80
48
-48
-80
16
32
-64
-80
32
96
0
-144
-176
-80
48
48
64
32
-96
-112
-64
96
192
112
48
96
112
-32
-176
-176
-160
-288
-224
-112
96
-32
64
128
112
48
0
16
64
128
128
160
112
32
-48
-112
-48
-16
0
-32
-48
16
48
48
0
-112
-128
-48
96
128
176
80
64
48
0
-64
-112
-96
-16
-16
0
0
-144
-64
112
160
80
48
-32
-16
64
-16
-144
-176
-48
96
224
224
208
144
48
0
0
-96
-192
-176
-80
16
-16
64
80
-64
-192
-160
-32
-48
-48
144
160
144
256
160
16
-96
-112
-16
-32
-80
-32
48
32
32
112
128
96
64
32
-16
-240
-384
-192
128
176
-144
-256
-112
32
48
32
80
96
64
144
128
80
80
32
-16
16
64
64
-48
-192
-208
-32
80
128
16
-80
-112
-128
-112
80
256
80
-160
-240
-160
16
176
128
0
-64
80
160
0
-304
-560
-336
128
112
32
0
-96
-208
-176
0
-160
-480
-336
16
224
144
160
176
128
48
48
112
144
48
-128
-176
-96
-96
-96
-144
-96
-64
-32
80
160
160
176
160
144
128
16
48
128
128
96
64
0
-48
-96
-176
-112
-16
-64
-128
-80
-80
-128
-128
-64
-64
0
144
224
224
176
144
48
-48
-64
-48
-48
48
80
80
32
16
0
-128
-112
128
272
80
-64
-112
-96
-144
-160
32
96
128
128
64
16
16
0
32
64
96
32
-112
-288
-336
96
-32
-16
160
176
80
32
-96
-80
128
288
80
-192
-208
-192
-176
-80
224
336
128
16
-32
0
48
64
48
0
-144
-64
160
64
-48
-48
96
112
32
64
16
-256
-448
-336
-64
176
160
32
-32
-32
16
16
96
96
-128
-352
-208
192
304
224
144
112
64
32
0
48
0
-48
-16
112
112
80
16
-48
-16
32
-32
0
32
-16
-64
-16
0
0
-96
-224
-304
-176
64
32
-80
48
128
128
0
0
64
176
176
64
-16
16
32
-32
48
0
-48
-192
-176
0
0
80
144
128
16
-96
-128
-112
-112
-80
160
208
128
112
144
208
96
16
0
0
16
48
32
-48
-144
-160
-160
-176
-240
-144
32
208
272
112
112
208
144
-16
-160
-160
-48
-80
-176
-96
48
96
0
32
96
112
32
-96
0
176
160
80
96
-48
-272
-416
-352
0
112
192
176
64
-16
-80
-80
128
240
48
-64
-112
16
112
128
96
-80
-160
-112
-48
0
-48
-16
128
224
224
160
128
80
32
48
-256
-96
64
160
128
128
112
80
64
48
0
-64
-80
16
112
112
48
16
0
-16
-48
-48
-32
32
64
64
48
16
16
16
-16
-64
-32
64
112
80
48
16
-16
-48
-80
-80
-16
32
32
16
-32
-64
0
48
128
176
80
-16
-80
-48
48
80
48
0
-32
-16
16
48
64
64
48
48
32
32
64
32
0
-16
-48
-32
-16
-16
-16
-16
-16
-16
16
48
48
48
64
64
32
32
48
64
32
16
16
32
0
-16
-32
-32
-48
-48
-16
32
48
48
48
32
16
32
64
48
32
32
16
16
0
-16
-32
-48
-48
-48
-16
16
16
48
64
64
48
32
48
64
32
16
16
16
0
-16
-32
-32
-48
-48
-16
32
32
32
48
48
32
32
-48
-48
-16
32
48
64
48
48
48
48
64
64
32
-16
-16
-16
-16
-16
-16
-32
-48
-48
-16
32
48
48
48
48
32
32
48
64
32
0
0
0
-16
-16
-32
-32
-48
-48
-16
16
32
48
32
32
32
32
48
48
32
0
0
0
-16
-32
-48
-48
-48
-48
-16
16
32
32
32
48
32
32
48
48
32
0
0
0
-16
-32
-32
-32
-48
-48
-32
0
16
32
32
32
16
16
32
48
32
0
-16
-16
-32
-48
-32
-32
32
48
16
0
-16
-16
-32
-48
-48
-48
-64
-48
-32
0
16
32
32
32
32
16
32
48
16
-16
-16
-16
-32
-64
-64
-64
-64
-48
-32
-16
16
32
32
32
32
32
32
48
16
0
0
0
-16
-32
-48
-32
-48
-48
-32
-16
0
16
32
32
16
16
16
32
16
-16
-16
-16
-32
-48
-48
-48
-64
-64
-48
-16
0
16
16
16
16
16
32
32
16
-16
-16
-16
-32
-48
-64
-48
-48
-48
-32
-16
0
16
16
16
16
16
16
16
16
-16
-16
-16
-32
-48
-64
-64
-64
-64
-48
-32
-16
0
16
16
16
16
16
32
16
-16
-16
-32
-32
-48
-64
-64
-64
-64
-48
-32
0
0
16
16
16
0
16
32
16
-16
-16
-16
-32
-48
-48
-48
-48
-48
-48
-32
-16
0
16
16
16
16
16
32
16
0
-16
-16
-32
-48
-48
-48
-48
-64
-48
-32
0
16
16
16
16
16
16
32
16
0
-16
-16
-32
-48
-48
-48
-48
-64
-48
-32
-16
0
16
16
16
16
-48
-48
-48
-32
-16
0
16
16
16
16
16
32
16
0
-16
-16
-32
-48
-48
-48
-48
-48
-48
-32
-16
0
16
16
16
16
16
32
16
0
-16
-16
-32
-48
-48
-48
-48
-48
-48
-32
-16
0
16
16
16
16
16
32
32
0
-16
-16
-16
-48
-48
-48
-48
-64
-48
-32
-16
0
16
16
16
16
16
32
32
0
-16
-16
-16
-48
-48
-48
-48
-48
-32
-32
0
0
16
16
16
16
16
16
32
0
-16
-32
-32
-48
-64
-48
16
16
32
0
-16
-16
-32
-48
-48
-48
-48
-48
-48
-32
-16
0
16
16
16
16
16
16
32
0
-16
-16
-16
-48
-48
-48
-48
-48
-48
-32
-16
0
16
16
16
16
16
16
32
16
0
-16
-16
-32
-48
-48
-48
-48
-48
-32
-16
0
16
16
16
16
16
16
16
0
-16
-16
-16
-48
-48
-64
-48
-64
-48
-32
-16
0
16
16
16
16
16
32
32
16
-16
-16
-16
-32
-32
-32
-32
-48
-48
-32
-16
0
16
16
16
16
-48
-48
-48
-32
-16
0
16
16
16
16
16
16
16
16
-16
-16
-32
-32
-48
-48
-48
-48
-64
-48
-32
0
16
16
16
16
16
16
32
16
-16
-16
-16
-32
-48
-48
-48
-48
-48
-32
-32
0
16
16
16
16
-32
-48
-48
-48
-32
-16
0
16
16
16
16
16
32
16
0
-16
-16
-32
-48
-48
-48
-48
-48
-48
-32
0
16
16
16
16
16
16
32
16
0
-16
-16
-32
-48
-48
-48
-48
-48
-48
-32
-16
0
16
16
16
16
32
32
32
0
-16
-16
-32
-48
-48
-48
-48
-48
-48
-32
-16
0
16
16
16
16
16
32
16
0
-16
-16
-32
-48
-48
-48
-48
-48
-48
-32
0
16
16
16
16
16
16
32
16
0
-16
-16
-32
-32
-32
16
16
32
32
0
-16
-16
-16
-32
-48
-32
-32
-48
-32
-32
-16
0
16
16
16
16
16
16
16
0
-16
-16
-32
-48
-48
-48
-48
-48
-48
-32
0
0
16
16
32
32
32
32
32
16
0
-16
-32
-48
-48
-48
-48
-48
-48
-32
-16
16
16
16
16
16
16
32
32
0
-16
-16
-32
-48
-48
-48
-48
-48
-32
-32
-16
0
16
16
16
16
16
32
32
0
0
-16
-16
-48
-48
-48
-48
-48
-48
-32
-16
16
16
32
16
-48
-48
-48
-48
-32
-16
0
16
16
16
16
0
16
16
0
-16
-16
-32
-48
-48
-48
-48
-48
-48
-32
-16
0
16
16
16
16
16
32
32
0
-16
-16
-16
-48
-48
-48
-48
-48
-48
-32
-16
0
16
16
16
16
0
16
32
0
-16
-16
-32
-48
-48
-48
-48
-48
-48
-32
-16
0
16
16
16
16
16
16
32
16
-16
-16
-32
-48
-64
-48
-48
-48
-48
-32
-16
0
16
16
16
16
16
16
16
0
-16
-16
-32
-48
-48
16
16
32
32
16
-16
-16
-16
-32
-48
-48
-48
-48
-48
-32
-16
0
16
16
16
16
16
32
32
16
-16
-16
-16
-32
-48
-48
-48
-48
-48
-32
-16
0
16
16
16
16
16
16
32
16
-16
-16
-16
-32
-48
-48
-48
-48
-48
-32
-16
0
16
16
16
16
16
16
32
16
0
-16
-16
-32
-48
-48
-48
-48
-48
-32
-16
0
16
16
16
16
0
16
16
16
-16
-16
-16
-32
-48
-48
-48
-48
-48
-32
-16
0
16
16
16
16
16
16
32
16
0
-16
-16
-32
-48
-48
-48
-48
-48
-48
-32
0
0
16
16
16
16
16
16
16
0
-16
-16
-32
-48
-48
-48
-48
-48
-48
-32
0
16
16
16
16
16
16
32
16
0
-16
-16
-16
-32
-32
-32
-32
-48
-32
-32
-16
0
16
16
16
16
16
32
32
0
-16
-16
-32
-48
-48
-48
-48
-48
-48
-32
-16
0
16
16
16
16
16
32
16
0
-16
-16
-32
-48
-48
-48
-48
-48
-48
-32
-16
0
16
16
-48
-48
-48
-48
-48
-32
-16
0
16
16
16
16
16
32
32
0
-16
-16
-16
-48
-48
-48
-32
-48
-48
-32
-16
0
16
16
16
16
16
32
32
0
-16
-16
-32
-48
-48
-48
-48
-48
-48
-32
0
16
32
32
-64
-48
-48
-48
-48
-32
-16
0
16
16
16
16
16
16
16
0
-16
-16
-32
-48
-48
-48
-48
-48
-48
-32
-16
0
16
16
16
16
16
16
16
0
-16
-16
-16
-32
-48
-48
-48
-48
-48
-32
-16
0
16
16
16
16
16
16
16
0
-16
-16
-32
-48
-48
-48
-48
-48
-48
-32
-16
0
16
16
16
16
16
16
32
16
-16
-16
-16
-48
-48
-48
-48
-48
-48
-32
-16
0
16
16
16
16
16
16
32
16
-16
-16
-16
-48
16
16
16
16
32
16
-16
-16
-16
-32
-48
-48
-48
-48
-48
-32
-32
0
16
16
16
16
16
32
32
16
0
-16
-16
-32
-48
-32
-32
-32
-32
-32
-16
0
16
16
16
16
16
16
32
16
0
-16
-16
-32
-48
-48
-48
-48
-48
-32
-16
0
16
16
16
16
16
32
32
16
0
-16
-16
-32
-48
-48
-48
-48
-48
-32
-32
0
16
16
16
16
16
32
32
32
0
-16
-16
-32
-48
-48
-48
-48
-48
-48
-32
0
16
16
0
-16
0
0
16
32
32
16
0
-32
-64
-80
-96
-112
-128
-112
-64
-16
16
64
80
64
48
48
32
16
-32
-64
-64
-80
-64
-48
-32
-80
-144
-128
-96
-64
-32
0
32
48
16
0
-32
-96
-128
-112
-96
-80
48
0
-48
-96
-96
-32
-64
-96
-96
-112
-160
-144
-16
80
64
-16
-96
-96
-64
-16
-64
-208
-336
-352
-256
-32
240
288
176
80
-48
-192
-288
-240
-128
16
64
0
-64
-64
-32
-48
-112
-144
-144
-144
-128
0
32
-64
-80
32
32
32
0
-16
80
80
-16
-160
-240
-192
-128
-16
144
128
16
-48
-64
-48
16
0
-128
-176
-160
-128
-192
-256
-128
-48
-64
16
16
48
112
112
-128
-304
-352
-256
-48
112
112
16
-48
-96
-176
-240
-176
-96
0
96
272
192
96
32
-80
-144
-160
-128
-48
-32
0
-16
16
-144
-384
-384
-272
-96
80
144
80
-16
-64
-32
-224
-288
-64
-64
-48
-160
-128
80
224
224
128
128
160
-48
-320
-272
0
128
0
-80
-112
-336
-384
-80
128
112
-16
16
80
128
176
160
64
-32
-208
-336
-352
-256
-48
80
-128
-144
112
240
112
48
128
16
0
16
128
128
-112
-336
-336
-176
-64
-304
-512
-336
192
304
192
176
64
-208
-352
-208
32
336
224
-240
-240
16
-32
0
-112
-128
-96
16
16
48
112
-48
-272
-208
16
-96
-256
0
256
144
-48
16
176
320
240
64
-16
-64
-48
-160
-240
-224
-272
-304
-176
240
208
16
112
208
192
16
-64
-32
32
-48
-352
-544
-96
416
416
208
80
96
96
48
96
0
-176
-368
-352
-400
-320
-192
144
432
432
320
272
96
32
64
64
-32
-272
-336
16
272
0
-176
-144
80
80
32
16
80
16
-176
-192
-48
16
128
48
-288
-368
-16
352
256
-112
-128
128
320
96
-64
-80
-96
-128
-272
-176
0
80
112
32
-128
-64
96
320
384
144
16
16
64
48
-64
-48
-48
-48
-96
-48
48
64
-32
-16
160
256
96
0
48
112
16
-96
-144
-256
-192
-32
64
64
144
224
48
-80
-192
-128
64
144
144
160
224
112
-192
-704
-624
-128
464
544
272
160
112
112
112
80
0
-96
-128
-32
80
16
0
-16
-32
64
64
-144
-144
16
16
96
144
32
-16
80
128
-80
-224
-128
-96
-112
-16
272
320
64
0
-32
-112
-32
80
-16
-96
-144
-80
176
272
192
0
-32
-32
-16
32
-16
-96
-80
-128
-240
-304
-64
96
208
272
336
224
48
0
-48
-128
-128
32
32
-192
-352
-144
192
256
112
16
48
112
144
144
0
-32
128
112
-48
-320
-512
-384
48
256
304
208
144
32
-64
-80
-192
-192
-64
192
144
176
320
176
-32
-112
32
128
80
64
-32
-64
-16
-16
-48
-32
64
128
96
-128
-512
-576
-288
-96
112
480
464
240
112
96
64
16
64
160
192
0
-128
-32
64
16
-80
16
160
176
128
112
64
-32
-112
-32
128
192
64
0
0
80
48
-160
-272
-208
-16
16
-32
16
96
48
-96
-192
-16
272
96
-192
-112
64
0
0
160
144
80
16
16
-80
-32
112
176
192
144
48
0
-80
-224
-240
-128
-32
32
128
224
112
-16
-32
-16
-32
-112
-176
-64
128
224
144
32
-16
112
240
224
80
-16
-48
-64
-48
-128
-160
-32
-16
-128
-64
48
-16
16
128
208
208
240
80
64
48
32
0
-80
-160
-160
-64
48
-80
-288
-304
-112
48
208
272
288
176
128
96
32
80
128
0
-48
32
96
80
-16
-96
-176
-336
-208
192
352
224
-80
-224
-48
80
32
-32
80
-16
-112
96
160
32
0
48
32
-16
128
144
128
128
64
-32
-112
-16
96
32
-128
-336
-544
-400
176
544
432
256
160
80
64
0
-128
-96
32
16
96
48
-16
-32
-144
-176
0
144
48
-16
32
-32
-48
128
96
-144
-208
32
208
224
-48
-208
-96
96
144
64
176
224
128
32
-32
-192
-224
-128
48
-16
-112
0
48
96
32
-96
-128
32
240
272
80
-96
-224
-272
-48
192
256
224
144
144
96
0
-80
-96
0
48
48
48
80
80
-128
-416
-288
-224
-368
-352
-192
224
240
304
288
240
192
0
-112
-64
48
144
144
192
160
48
0
0
96
176
144
16
-64
-64
-96
-144
-144
-48
0
-48
-16
48
80
16
-80
-256
-448
-224
64
16
-96
-32
32
96
160
224
240
192
80
32
32
80
112
80
96
128
80
-48
-128
-224
-224
48
208
96
80
-32
-112
-16
48
16
-16
-80
-128
-128
-48
-64
-144
128
352
224
0
-112
-32
0
32
-16
-112
-96
-160
-256
-384
-192
144
368
384
320
208
160
160
112
16
-160
176
240
128
-48
-96
48
96
32
0
48
64
16
-64
-112
-16
0
-112
-304
-336
-288
-160
128
400
384
176
-256
-416
-128
-32
64
272
352
224
96
80
96
64
0
-32
32
128
96
48
48
48
48
80
80
80
16
-64
-128
-192
-240
-240
-176
-80
32
224
224
64
-64
-16
96
32
64
64
-96
-144
-64
144
144
-80
-272
-224
16
-16
-336
-336
-16
288
304
176
112
64
96
128
48
-16
16
-64
-64
-16
-16
-16
-80
-144
0
80
-16
304
272
144
80
80
80
48
-48
-160
-256
-16
272
240
128
112
128
160
112
48
32
-32
-128
-240
-320
-272
-96
-192
-208
-80
16
80
160
288
192
-48
-192
-48
176
160
64
32
16
48
16
16
-16
-80
-112
-144
-128
-112
64
192
32
-336
-432
-176
208
256
288
208
80
0
-32
0
-32
0
0
16
48
32
32
-48
-96
-48
-32
-32
16
144
96
32
32
-32
-112
-160
-112
80
112
128
96
32
-48
-80
64
128
128
176
128
32
-96
128
-16
-128
-64
32
96
96
48
32
0
-64
-64
-112
-160
-208
-160
16
96
160
160
112
32
-16
48
96
48
16
0
-112
-208
-160
16
64
-48
-208
-320
-240
-32
224
208
176
64
-32
0
32
-16
0
128
128
-64
-256
-240
-16
160
176
64
-80
-224
-160
32
128
-16
-112
-64
0
64
144
16
-16
-16
-64
-80
16
112
64
-192
-368
-192
96
256
256
208
176
128
0
-160
-128
-144
-160
-256
-112
176
144
-16
-112
-144
-16
128
192
144
0
112
16
-320
-400
-160
192
192
-192
-384
-112
128
112
-80
-176
-128
256
352
208
-16
-208
-208
-128
112
320
272
112
48
-16
-32
-32
32
-48
-128
-144
-192
-176
-288
-368
-112
304
208
-144
-224
48
256
240
112
32
64
128
-144
-160
16
208
256
144
32
-64
-128
-64
48
224
144
-80
-176
-128
48
144
128
32
-48
-208
-192
-64
0
-80
-64
-32
-176
-160
112
272
160
80
96
128
64
-16
-112
-336
-512
-224
192
-80
-528
-240
336
480
272
16
-208
-240
80
320
224
112
192
176
48
-96
-96
-96
-224
-176
-64
-16
-64
-256
-464
-368
144
384
272
32
48
224
288
64
-64
-176
-320
-352
-192
-144
-240
-176
96
144
112
160
-48
-192
-144
96
80
-80
80
304
192
-208
48
208
112
48
64
-64
-176
-48
0
-48
-80
-224
-208
16
32
-64
-176
-304
-288
0
176
160
80
208
272
208
112
-48
-192
-304
-176
32
0
-256
-208
144
224
112
64
-128
-352
-192
128
256
192
64
-112
-160
-272
-128
16
256
192
-16
-64
-16
-48
16
96
112
64
-128
-288
-256
-96
-16
-16
-96
-144
-16
224
208
80
64
80
-16
-80
-32
16
-112
-240
-256
-272
-256
-32
208
224
16
-96
0
32
-32
-288
-480
-384
64
320
176
64
16
-96
-240
-176
112
192
32
-16
16
80
48
64
80
48
-80
-176
-48
32
112
80
-96
-64
48
-48
-240
-240
-176
-160
32
192
144
96
80
80
128
160
96
80
80
64
0
-16
-16
-144
-208
-96
0
-96
-144
-80
-80
-144
-160
0
176
304
192
32
-176
-304
-192
-16
-128
-304
-144
144
256
272
80
64
48
96
144
160
48
0
16
32
16
16
16
0
32
16
16
-32
-128
-112
-176
-240
-224
-128
48
144
256
208
64
16
48
48
-272
-32
32
48
16
16
16
80
64
16
32
32
64
0
-96
-256
-448
-384
-80
336
400
80
-64
-16
96
128
96
0
-192
-320
-448
-560
-304
272
640
528
304
160
112
112
128
80
-48
-144
-80
32
32
-48
-48
-64
-288
0
272
208
80
144
224
64
-80
-48
64
80
-80
-176
-208
-368
-544
-80
384
368
32
32
208
160
0
-64
-64
-80
-96
-80
0
64
176
224
160
80
48
96
112
16
-224
-544
-496
-16
256
128
16
-96
-112
-224
-320
-240
-16
144
192
160
-64
96
400
336
208
112
-32
-224
-208
-80
-32
-288
-384
-320
-240
-96
16
160
272
288
224
192
64
-64
16
32
-64
-64
0
16
32
48
-16
-32
-64
-160
0
160
208
64
-288
-432
-240
48
80
80
64
-96
-160
-32
80
96
48
0
-32
48
80
32
-48
-112
-128
-128
-192
-160
16
96
16
48
144
176
144
64
16
-16
-112
-240
-192
16
96
96
-96
-336
-384
-96
-48
-240
-176
208
416
208
64
-16
-112
-80
-128
32
176
176
-32
-272
-336
-80
272
400
208
32
-80
-208
-144
-16
80
64
-32
-96
-128
-48
-32
-176
-208
-160
-160
-144
320
528
304
144
-48
-352
-336
-112
48
-64
-176
-112
-80
64
192
96
-32
-256
-160
176
448
256
144
112
48
-48
-64
-16
-32
-64
-64
-96
-176
-192
-96
-176
-64
352
288
112
-48
-144
-80
96
160
-80
-352
-576
-368
-80
288
320
-16
-112
0
16
128
304
240
160
64
0
48
64
-16
-112
-128
-32
48
-16
-192
-224
-80
112
144
48
16
32
112
176
96
-80
-224
-208
-64
32
-176
-160
-32
-128
-144
-240
-336
-304
-112
384
480
352
208
80
-16
48
128
96
-32
-144
-64
-16
-112
-112
-16
112
176
144
16
-288
-480
-240
144
320
256
128
16
160
48
-16
-16
-64
-32
-80
-192
-304
-304
48
288
272
192
144
80
16
0
16
80
96
48
-48
-64
-16
80
48
-32
-144
-336
-320
-48
112
192
160
48
0
16
-16
0
-64
-224
-320
-320
-64
256
384
240
112
96
176
112
16
-48
-64
32
160
128
112
96
0
-80
-144
-96
-80
-64
-32
-32
-32
16
64
80
80
64
-32
-80
-32
64
128
128
0
-48
-48
-48
-32
-48
-64
-48
-64
-16
48
80
80
-80
-272
-176
32
160
112
16
32
48
48
32
16
32
48
48
80
64
0
-48
-32
-16
-32
-80
-80
-48
-32
0
32
48
48
32
16
48
48
48
64
48
-32
-160
-224
-128
32
16
-64
-80
-112
-128
-64
96
160
80
48
80
48
-32
-32
16
48
48
-16
-32
-64
-128
-112
-48
-48
-80
-32
144
128
64
48
64
64
48
64
48
0
-48
-48
-16
-48
-80
-64
-32
-16
-16
-32
-32
16
32
48
48
48
48
48
48
0
-48
-32
-16
-64
-80
-80
-64
-32
0
0
0
0
16
16
32
48
32
48
32
-16
-48
-32
-16
-48
-80
-80
-48
-32
-16
-16
0
0
0
0
16
32
16
32
32
-16
-48
-48
-32
-64
-96
-80
-64
-32
-16
0
0
0
0
0
16
32
16
32
0
16
16
16
16
32
48
48
48
48
48
32
0
0
0
-32
-64
-48
-32
-16
0
0
0
16
16
32
48
48
48
48
48
16
-16
0
0
-32
-48
-48
-32
-16
0
0
16
16
32
32
48
48
48
48
-16
-16
-16
0
0
16
32
32
32
32
32
16
-16
-16
-16
-48
-64
-64
-48
-32
-32
-16
-16
0
16
16
32
32
32
32
48
16
-16
-16
-16
-48
-64
-64
-48
-48
-32
-32
-16
-16
0
16
16
16
16
16
32
16
-32
-32
-16
-32
-64
-64
-48
-48
-32
-32
-32
-16
0
16
16
16
16
16
16
0
-32
-32
-32
-48
-64
-64
-64
-48
-32
-32
-32
-16
0
16
16
16
16
16
16
0
-32
-32
-32
-48
-64
-64
-64
-48
16
16
-16
-32
-32
-32
-64
-64
-48
-48
-32
-32
-32
-16
0
16
16
16
16
16
16
16
-16
-16
-16
-32
-64
-64
-48
-48
-32
-32
-32
-16
0
0
16
16
16
16
16
16
-16
-16
-16
-16
-48
-48
-48
-32
-48
-48
-32
-32
-16
0
16
16
16
16
16
16
-16
-32
-32
-48
-64
-64
-48
-48
-48
-48
-48
-32
-16
0
16
16
16
16
16
16
-16
-16
-32
-32
-64
-64
-64
-48
-48
-48
-32
-16
0
0
16
16
16
16
-48
-48
-32
-16
0
16
16
16
16
0
16
16
0
-32
-32
-32
-64
-64
-64
-48
-48
-48
-32
-16
0
0
16
16
16
0
16
16
-16
-32
-32
-32
-64
-64
-64
-48
-48
-48
-48
-16
0
16
16
16
16
16
16
16
0
-16
-16
-32
-48
-64
-64
-48
-48
-48
-48
-32
-16
0
16
16
16
16
16
16
0
-16
-16
-32
-48
-64
-64
-48
-48
-48
-48
-32
0
0
16
16
16
16
32
32
0
-16
-16
-32
-48
-64
-48
-48
16
16
0
-16
-16
-32
-48
-48
-48
-48
-48
-48
-48
-32
0
0
16
16
16
16
16
16
0
-16
-32
-32
-48
-64
-64
-48
-48
-48
-48
-32
0
16
16
16
16
16
16
32
16
0
-16
-16
-32
-48
-48
-48
16
32
16
-16
-16
-32
-48
-48
-48
-48
-32
-48
-32
-32
-16
0
16
16
16
16
32
32
32
0
0
-16
-32
-64
-64
-48
-48
-48
-48
-32
-16
0
16
16
16
16
16
32
16
-16
-16
-16
-32
-48
-48
-48
-48
-48
-48
-32
0
0
16
16
16
16
16
32
16
-16
-16
-16
-32
-48
-48
-48
-48
-48
-48
-32
0
0
16
16
16
16
32
32
32
0
-16
-16
-32
-48
-48
-48
-48
-48
-48
-32
-16
0
16
16
16
16
-32
-48
-48
-32
-16
0
16
16
16
16
16
16
32
0
0
-16
-16
-32
-48
-48
-48
-48
-32
-16
0
16
32
32
32
32
16
32
32
16
-16
-16
-32
-48
-48
-48
-48
-48
-48
-32
-16
0
16
16
16
16
0
16
16
0
-16
-16
-16
-32
-48
-48
-48
-48
-48
-32
-16
0
16
16
32
16
16
32
32
16
-16
-16
-16
-32
-48
-48
-48
-48
-48
-32
-16
0
16
32
32
32
32
32
48
16
0
-16
-16
-32
-32
-32
16
32
32
16
-16
-16
-16
-32
-48
-48
-48
-48
-48
-32
-16
0
16
32
32
32
32
32
48
16
0
-16
-16
-32
-48
-48
-48
-48
-48
-32
-16
0
16
16
16
16
16
16
32
16
0
-16
-16
-32
-48
-32
-32
-48
-48
-32
-16
0
16
16
16
16
16
32
32
16
0
-16
-16
-32
-48
-48
-32
-48
-48
-32
-16
0
16
16
16
16
16
16
32
16
0
-16
-16
-32
-48
-48
-32
-32
-48
-32
-16
0
16
32
32
32
16
32
32
16
0
0
0
-32
-48
-48
-48
-48
-48
-48
-32
0
16
16
16
16
16
16
16
16
0
-16
-16
-32
-48
-48
-48
-48
-48
-48
-32
-16
0
16
16
16
16
16
32
16
0
-16
-16
-32
-48
-48
16
16
32
16
0
-16
-16
-32
-48
-48
-32
-32
-48
-32
-16
0
16
16
16
16
16
16
32
32
0
0
-16
-32
-48
-48
-48
-32
-48
-32
-32
0
16
16
32
32
16
32
32
16
0
-16
-16
-32
-48
-48
16
16
32
32
0
-16
-16
-16
-48
-48
-32
-32
-48
-48
-32
-16
0
16
16
32
16
16
32
32
0
-16
-16
-16
-32
-48
-32
-32
-48
-48
-32
0
16
32
32
32
16
16
16
16
-16
-16
-32
-32
-48
-48
-48
-48
-48
-48
-32
-16
0
16
16
16
16
16
32
32
0
-16
-16
-32
-48
-48
-48
-48
-48
-48
-32
-16
0
16
16
16
16
16
32
32
0
-16
-16
-32
-48
-48
-48
-32
-48
-48
-32
-16
0
16
16
16
16
0
16
32
0
-16
-16
-16
-32
-48
-48
-32
-48
-48
-32
-16
0
0
16
16
16
16
16
32
0
-16
-16
-32
-48
-48
-48
-48
-48
-48
-32
-16
0
16
16
16
16
16
32
32
16
-16
-16
-32
-48
-48
-48
-48
-48
-48
-32
-16
0
16
16
16
16
16
16
32
16
0
-16
-16
-32
-48
-48
-48
-48
-48
-48
-16
0
0
16
16
16
16
16
16
0
-16
-16
-32
-48
-48
-48
-48
-48
-48
-32
-16
0
16
16
16
-48
-48
-48
-48
-32
-16
0
0
16
16
16
16
16
32
16
0
0
-16
-32
-48
-48
-48
-48
-48
-32
-16
0
16
16
16
16
16
16
32
16
-16
-16
-16
-32
-48
-48
-48
-48
-48
-48
-32
0
16
32
32
32
32
32
32
32
0
-16
-16
-32
-48
-48
-48
-48
-48
-48
-32
-16
0
16
16
16
16
16
32
16
0
-16
-16
-32
-48
-48
-32
-32
-48
-32
-32
0
16
16
16
16
16
32
32
32
0
-16
-16
-32
-48
-48
-48
-48
-48
-48
-32
0
16
16
16
16
16
16
32
16
-16
-16
-16
-32
-48
-48
-48
-48
-48
-32
-32
0
16
16
16
16
16
16
32
16
0
-16
-16
-32
-48
-48
-48
-48
-48
-32
-16
0
16
16
16
-48
-48
-48
-48
-48
-32
0
16
32
16
16
16
16
16
16
-16
-32
-32
-48
-32
0
-16
-32
-32
-32
-16
-16
-32
-48
-48
-32
-32
0
48
48
16
0
-32
-48
-64
-64
-48
-64
-80
-96
-112
-96
-32
32
48
16
16
16
48
48
16
16
16
0
-48
-80
-96
-80
-64
-64
-80
-48
0
48
64
32
-16
-16
-16
-16
-48
-48
-16
0
0
16
16
-16
-16
0
0
-32
-64
-80
-112
-96
-16
80
80
48
16
-16
-80
-144
-128
0
112
96
48
0
-112
-160
-112
-144
-240
-288
-176
-80
-32
80
128
64
-16
16
64
48
16
96
96
-80
-208
-224
-64
176
192
64
32
16
-112
-224
-240
-176
-112
-32
0
-80
-112
-128
-80
-16
-16
0
16
-160
-128
-32
64
128
-16
-176
-240
-96
96
160
176
112
32
-96
-64
-80
-176
-80
-64
-160
-272
-240
-96
32
-32
-224
-240
-176
16
208
288
288
208
176
96
0
-80
-96
-96
-128
-240
-336
-304
-176
16
-32
-256
-272
-96
-80
0
48
144
144
-48
-256
-240
32
32
0
112
112
128
160
16
-176
-320
-352
-240
-256
-144
-64
-256
-432
-288
-32
176
272
288
240
64
-32
-16
-48
-80
-144
-128
0
224
128
-96
-128
-48
-96
-112
16
160
64
-80
-256
-480
-528
-208
16
-112
-336
-336
-16
336
400
192
144
176
160
64
-224
-432
-288
-128
-80
-288
-304
-48
224
240
240
128
112
112
128
48
-16
-64
-192
-272
-304
-208
-96
-64
16
112
48
-144
-256
-384
-288
-16
384
352
112
112
-112
-208
-368
-336
-64
192
176
16
-176
-272
-144
96
384
368
208
32
-128
-128
-64
-48
-48
-160
-176
-48
64
240
256
144
64
16
-48
0
48
80
32
-32
-176
-240
-336
-288
-304
-352
-176
160
480
288
64
-48
-32
-32
32
176
256
256
96
-16
-192
-288
-160
16
64
64
-48
-64
-144
-80
32
80
-48
-160
-208
0
176
128
-96
-144
48
240
160
-64
-64
0
-144
-64
80
176
64
-32
-48
-64
-80
-144
-352
-288
96
400
432
192
0
80
144
16
0
112
64
96
80
-96
-240
-352
-240
48
0
-112
32
144
160
144
176
80
16
-16
-112
-64
176
304
16
-256
-416
-384
-80
208
208
176
144
96
-32
-208
-272
-64
192
176
272
288
208
96
16
-64
0
48
-16
-192
-288
-320
-384
-144
48
48
-208
-32
160
288
272
320
336
192
144
96
-48
-208
-352
-416
-128
192
64
-128
-304
-192
144
464
448
128
-112
-192
16
64
16
32
0
-48
80
112
160
128
32
0
16
-16
-112
-96
32
32
-48
-160
-96
160
176
-48
-160
16
80
-32
-272
-192
144
224
80
16
32
80
-96
-352
-192
176
192
96
112
208
208
16
-128
-64
96
80
-96
-96
-64
-16
80
176
48
-16
48
-48
-144
0
192
288
160
64
-240
-160
112
48
-96
-32
-48
-16
144
368
272
64
-48
-32
48
64
-224
-560
-400
112
560
496
80
-16
128
128
96
64
32
-80
-160
-208
-320
-368
-304
-32
384
496
352
224
144
96
0
-80
-48
-64
-240
-352
-224
0
80
-32
-64
48
144
224
272
208
208
128
48
0
-112
-352
-720
-688
-176
384
320
48
128
320
304
192
96
80
96
128
128
16
-112
-176
-240
-208
-80
-176
-160
0
-160
-464
-352
64
432
368
144
32
64
272
272
96
48
64
-48
-160
-128
16
0
-160
-64
96
112
48
-80
-80
32
144
112
0
-32
48
16
-64
0
96
256
208
0
-272
-352
-128
176
-96
-368
-64
160
32
-32
80
208
128
48
112
144
-16
-32
96
144
0
-96
-48
-48
-64
-64
-80
-144
-208
-160
-128
32
144
176
112
144
160
128
64
-80
-64
-32
-192
-256
-48
192
240
80
-48
-64
-32
-96
-144
-96
112
96
-80
-128
-64
96
192
224
96
48
160
112
32
32
48
48
0
0
32
-32
-112
-80
-32
-384
-896
-640
208
400
144
112
128
32
112
224
160
-48
-224
-128
32
48
16
64
208
224
112
48
80
176
112
-16
-176
-208
-176
-160
-112
96
112
64
64
16
-64
-416
-704
-400
320
608
336
144
96
-80
-208
-272
-272
-96
384
432
64
-16
0
-112
-176
-112
16
16
-272
-656
-336
192
352
352
368
320
208
160
96
-32
-32
-64
-112
-128
-80
0
0
0
96
144
0
-160
-160
48
160
64
-32
-32
-48
-96
-48
-80
-48
-128
-304
-240
-176
-128
-48
208
448
208
-64
-128
-32
224
208
64
-192
-224
-32
256
288
272
144
32
-48
-128
-256
-416
-560
-368
-80
144
16
-80
176
304
320
256
272
224
176
80
-16
-48
-64
-48
-80
-192
-176
16
128
-32
-16
16
80
176
32
-224
-272
-32
208
176
32
16
48
-80
-192
-256
-192
80
256
160
0
-32
-32
-16
112
80
-112
-160
-64
32
-96
-192
-240
-16
96
0
0
112
192
-32
-320
-224
-80
80
128
64
32
80
64
32
-96
-224
-320
-192
-32
-64
-160
-144
-32
48
0
-96
-160
-112
-176
-128
80
240
192
112
128
160
80
-32
-32
96
192
112
0
-16
80
128
112
96
144
144
32
-32
32
16
-96
-208
-256
-128
0
0
-16
0
-80
-320
-352
-128
128
192
272
272
-16
-288
-240
80
320
224
128
32
32
16
-48
-48
32
128
112
-16
-128
-112
0
112
96
64
80
-64
-208
-368
-416
-288
-32
192
272
224
96
96
176
192
176
64
16
48
128
48
-80
176
240
208
176
96
-16
-96
-176
-112
-48
-64
-48
48
144
112
64
0
-96
-224
-288
-224
-16
128
128
-32
80
272
224
32
-96
-192
-160
-16
0
-32
48
-48
-256
-112
160
272
160
96
144
112
64
16
-16
-48
-32
-96
-208
-288
-128
80
192
96
-32
-64
-64
-32
64
80
16
144
176
80
16
32
32
-96
-128
-48
-16
-128
-256
-240
-128
64
64
128
128
112
160
112
112
112
144
128
96
48
-32
-112
-176
-272
-320
-224
-128
16
128
-96
-128
-144
-128
-144
-160
-304
-208
160
144
96
48
64
160
80
-144
-112
64
48
-160
-96
-16
-48
-144
-16
240
272
144
-16
-176
-432
-512
-272
64
240
240
288
80
-80
32
176
80
96
144
96
32
16
-112
-272
-320
-368
-336
-160
272
448
256
-48
-144
0
192
256
144
48
32
-32
-80
-16
64
16
-64
-208
-416
-464
-208
96
320
176
-176
-320
48
320
304
16
-224
-208
-16
112
192
80
-112
-144
32
224
192
0
-160
-144
-128
0
160
16
48
32
64
96
48
-96
-272
-304
-48
80
32
-144
-96
32
32
96
-32
-144
96
272
176
-64
-160
-112
-256
-368
-192
80
224
192
32
16
-112
-160
-64
144
96
32
144
128
0
-80
-80
160
208
112
32
-32
-32
-64
-160
-128
16
96
16
-96
-160
-208
-240
-64
-16
-32
32
128
192
256
256
176
-160
-480
-304
128
256
160
112
80
-64
-144
-48
-48
-176
-256
-192
-144
-64
176
400
288
96
0
-32
-64
-176
-208
-144
-96
-224
-224
-96
112
272
320
256
208
144
160
144
80
-16
-48
-48
-128
-176
-128
-64
-16
32
112
208
48
-144
-160
-160
-80
-48
-192
-32
208
96
112
176
48
-128
-160
-32
80
64
32
-32
-80
-16
0
-304
-592
-128
416
304
112
64
384
256
32
32
64
32
80
208
176
96
48
-48
-288
-368
-144
-80
-16
112
80
-112
-336
-208
176
400
176
48
112
144
64
-96
-64
96
144
-16
-80
16
0
32
32
-160
-128
144
224
144
96
16
0
-64
-208
-240
-160
-208
-288
-272
-160
0
224
320
176
96
32
-80
16
128
128
-16
-48
-48
-48
-64
-128
-176
0
272
160
-16
-48
64
112
80
96
96
32
-32
-80
-128
-80
-32
-16
-112
-128
-16
0
-144
-224
-160
-192
-128
160
256
-32
-32
-32
-48
-96
-240
-304
-160
-48
64
128
96
96
64
0
-96
-64
-48
-240
-544
-416
-64
96
160
128
128
224
192
144
48
64
128
112
80
80
64
16
16
32
16
16
-16
0
-16
-64
-112
-112
-48
0
16
16
-16
-32
-48
-32
-48
-16
16
-16
-80
-96
-112
-96
-32
80
80
64
80
80
48
16
0
0
-16
-32
-48
-80
-96
-80
-16
80
80
48
32
32
16
16
32
32
16
0
0
-16
-32
-32
-32
-16
-16
-48
-64
-16
16
16
0
16
16
16
32
48
32
16
0
0
-32
-32
-32
-16
-16
-32
-32
0
16
16
16
16
16
16
32
32
16
16
0
-16
-32
-32
-32
-16
-16
-32
-32
-16
16
16
32
48
32
0
16
32
16
0
-16
-16
-16
-32
-16
-16
-16
-32
-32
-16
0
16
32
48
32
16
16
32
16
0
0
0
-32
-32
-32
-16
-16
-32
-32
0
16
32
32
32
16
0
16
32
16
0
0
-16
-32
-32
-16
-16
0
-16
-32
0
0
0
-32
-32
-32
-16
-16
-16
-32
0
16
32
32
32
32
16
16
32
16
0
0
-16
-32
-32
-32
-32
-32
-32
-32
-16
16
16
32
32
32
16
16
32
16
0
-16
-16
-32
-32
-32
-16
-16
-32
-32
0
16
32
32
32
32
16
16
32
16
0
-16
-16
-32
-32
-32
-32
-32
-32
-32
-16
0
16
32
32
32
0
16
32
16
0
-16
-16
-32
-32
-32
-32
-32
-48
-32
-16
0
16
32
32
16
0
16
32
16
0
-16
-16
-32
-32
-32
-32
-32
-32
-48
-16
0
16
16
32
16
0
16
32
16
0
-16
-16
-32
-48
-48
-32
-32
-48
-48
-16
0
16
32
32
32
16
32
48
32
0
-16
-16
-32
-48
-48
-48
-48
-48
-48
-16
-16
-32
-48
-48
-48
-32
-32
-48
-48
-32
0
16
16
16
16
0
16
16
16
-16
-32
-32
-48
-64
-64
-48
-48
-64
-48
-32
-16
0
0
0
0
0
0
16
0
-32
-32
-32
-48
-64
-64
-48
-48
-64
-64
-48
-16
0
16
16
16
0
16
16
16
-16
-32
-32
-48
-64
-64
-64
-48
-64
-64
-48
-16
0
0
0
0
0
0
16
16
-16
-32
-32
-32
-48
-64
-48
-48
-64
-64
-48
-16
-16
0
0
0
0
0
16
16
-48
-16
0
0
0
0
0
0
16
16
-16
-16
-32
-32
-48
-48
-48
-48
-64
-64
-48
-16
0
0
0
0
0
0
16
16
0
-16
-16
-32
-48
-48
-48
-48
-64
-48
-32
-16
0
0
16
16
0
0
16
16
-48
-16
0
16
16
16
0
0
16
16
-16
-32
-32
-32
-48
-48
-48
-48
-48
-48
-32
-16
0
0
0
0
0
0
16
16
-16
-32
-32
-32
-48
-48
-48
-48
-48
-48
-32
-16
0
16
16
16
16
0
16
16
-16
-16
-32
-32
-48
-64
-48
-48
-48
-48
-32
-16
0
16
16
0
0
0
16
16
-16
-32
-32
-32
-48
-48
-48
-48
-48
-48
-32
-16
0
0
0
0
0
0
16
16
0
-16
-32
-32
-48
-48
-48
-48
-64
-64
-48
-16
0
0
16
16
16
0
16
16
0
-16
-32
-32
-48
-48
-48
-48
-48
-48
-48
-32
-16
0
16
16
0
0
16
16
0
-16
-16
-32
-48
-48
-48
-48
-48
-48
-48
-32
-16
0
16
16
0
0
16
32
-48
-32
-16
0
16
16
16
0
16
16
0
-16
-16
-32
-48
-48
-48
-48
-48
-48
-32
-32
0
0
16
16
0
0
16
16
0
-16
-32
-32
-48
-64
-64
-48
-48
-48
-48
-32
-16
0
16
16
0
0
16
16
0
-16
-16
-32
-48
-48
-48
-48
-48
-48
-32
-16
0
0
16
16
16
0
16
16
0
-16
-32
-32
-48
-48
-48
-48
-48
-48
-48
-32
0
16
16
16
16
16
16
16
0
-32
-32
-32
-48
-64
-64
-48
-48
-48
-48
-32
-16
0
16
16
0
0
0
16
0
-16
-32
-32
-48
-64
-64
-48
-48
-64
-48
-32
-16
0
16
16
16
0
16
16
16
-16
-16
-16
-48
-48
-48
-48
-48
-48
-48
-32
-16
0
16
16
16
0
16
16
16
-16
-16
-16
-32
-48
-48
-48
-48
-48
-48
-32
-16
0
16
0
16
0
16
16
0
-16
-16
-16
-32
-48
-48
-48
-48
-48
-48
-32
-16
0
16
16
16
0
16
16
16
-16
-16
-16
-32
-48
-48
-48
-48
-48
16
-16
-16
-16
-32
-48
-48
-48
-48
-48
-48
-32
-16
0
16
16
16
0
16
16
16
0
-16
-32
-32
-48
-48
-48
-48
-48
-32
-16
0
16
16
16
16
0
16
16
16
-16
-16
-32
-32
-48
-48
-48
-48
-48
-48
-32
-16
0
16
16
32
16
16
32
16
-16
-16
-16
-32
-48
-48
-48
-48
-48
-48
-32
-16
0
0
16
16
16
16
16
16
-16
-16
-16
-32
-48
-48
-48
-48
-48
-48
-32
-16
0
16
16
16
16
16
16
-48
-32
-16
0
16
16
16
0
0
16
16
0
-16
-16
-32
-48
-48
-48
-48
-48
-48
-32
-16
0
16
16
16
16
16
32
32
0
-16
-16
-16
-48
-48
-48
-48
-48
-48
-48
-16
0
0
0
0
0
16
32
32
0
0
-16
-32
-48
-48
-48
-48
-48
-48
-32
-16
0
0
16
16
0
0
16
16
0
-16
-16
-32
-48
-48
-48
-48
-48
-48
-32
-16
0
16
16
16
16
16
16
16
0
-16
-32
-32
-48
-48
-48
-48
-48
16
0
-16
-16
-32
-48
-48
-48
-48
-48
-48
-32
-16
0
0
16
16
0
0
16
16
0
-16
-16
-16
-48
-48
-48
-48
-48
-64
-48
-48
-32
-16
-16
0
0
0
16
32
16
0
0
-16
-16
-32
-32
-16
-32
-32
-32
-16
0
16
16
16
16
16
16
16
0
-16
-16
-16
-32
-48
-48
-48
-48
-32
-32
-16
0
16
16
16
16
0
16
16
16
-16
-16
-16
-32
-48
-48
-48
-48
-48
-48
-32
-16
0
16
16
16
0
16
-48
-32
-16
0
16
16
16
16
0
16
16
0
-16
-16
-16
-32
-48
-48
-48
-48
-48
-32
-16
0
0
16
0
0
0
0
16
0
-16
-16
-16
-32
-48
-48
-48
-48
-48
-32
-16
0
16
16
16
32
16
16
-48
-48
-32
-16
0
16
16
16
16
16
16
16
-16
-16
-16
-32
-48
-48
-32
-32
-32
-32
-16
0
0
16
16
16
0
16
16
16
0
-16
-16
-32
-48
-48
-48
-48
-48
-48
-32
-16
0
0
0
16
0
16
16
16
-16
-16
-32
-32
-48
-48
-48
-48
-48
-32
-32
-16
0
16
16
16
16
16
16
16
-16
-16
-32
-32
-48
-48
-48
-48
-48
-32
-32
-16
0
16
16
16
16
16
32
16
0
-16
-16
-32
-48
-48
-48
-48
16
16
-16
-16
-16
-32
-48
-48
-48
-48
-48
-48
-32
-16
0
16
16
16
16
16
16
16
0
-16
-16
-32
-48
-48
-48
-48
-48
-48
-32
-16
0
16
16
16
16
16
32
32
0
-16
-16
-16
-48
-48
-48
-48
-48
-48
-32
-16
0
32
32
32
32
16
32
32
0
-16
-16
-32
-48
-64
-64
-64
-48
-48
-32
16
16
16
16
16
16
16
32
32
16
-16
-16
-16
-32
-32
-32
-32
-48
-32
-32
-16
0
16
16
16
16
16
32
32
16
0
-16
-16
-32
-48
-48
-48
-32
-32
-32
-16
0
0
0
0
0
0
16
16
0
-16
-16
-16
-48
-48
-48
-48
-48
-48
-32
-16
0
16
16
16
16
16
16
16
0
-16
-16
-16
-32
-48
-48
-48
0
16
0
-16
-16
-16
-32
-32
-32
-32
-32
-48
-48
-16
0
16
16
16
32
16
16
32
16
-16
-32
-32
-64
-64
-64
-64
-48
-16
-16
-16
0
0
16
16
16
16
32
32
16
-16
-32
-32
-32
-32
-32
-32
32
32
16
0
-16
-16
-32
-48
-48
-48
-48
-48
-32
-16
0
16
16
-16
-16
-32
-32
-16
-32
-48
-32
-16
-16
0
0
0
-32
-64
-80
-64
-48
-48
-32
-16
-16
-32
-48
16
32
-16
-32
-80
-112
-144
-144
-80
-48
-32
0
16
32
32
32
16
-16
-48
-48
-48
-48
-64
-48
-16
0
-16
-16
-48
-32
0
16
32
64
48
16
16
16
16
48
96
96
32
0
0
-48
-64
-32
-48
-96
-112
-128
-128
-112
-48
-48
-80
-64
-80
-144
32
112
112
96
96
48
64
32
48
16
-16
32
32
32
-32
-112
-128
-128
-64
-80
-160
-192
-80
16
-16
-176
-256
-288
-320
-224
-96
16
96
144
128
80
32
16
-16
0
0
128
176
64
-64
-160
-240
-128
0
16
-80
-112
-272
-224
-144
0
176
176
128
112
64
-48
-176
-160
-80
-16
32
-32
-176
-288
-336
-144
256
448
304
192
64
-48
-48
-80
-128
-160
-176
-288
-368
-352
-32
320
368
304
224
128
0
-16
0
-80
-80
-128
-208
48
-48
-64
64
48
-16
-32
-16
48
16
32
48
0
-80
0
160
224
128
96
128
128
128
96
0
-128
-240
-464
-736
-800
-496
-48
16
-80
256
400
224
128
240
240
192
96
48
48
-64
-192
-336
-464
-320
0
288
224
112
80
80
128
176
144
0
-160
-320
-208
-32
0
48
112
176
32
-48
0
-16
-96
-96
-320
-720
-672
32
608
464
208
144
112
112
48
0
-48
-16
48
32
-32
-144
-240
-336
-160
0
16
-48
-32
128
48
-112
-144
-64
-160
0
160
80
-112
-48
144
48
-176
-256
-16
208
240
272
144
-144
-400
-384
-64
128
128
-32
-176
-160
80
304
176
64
80
112
32
-144
-96
16
128
64
0
32
0
0
0
64
80
80
80
48
-16
-48
-96
-224
-304
-176
208
384
160
32
-48
-80
-16
80
64
32
0
-128
-224
-144
96
16
-192
-32
160
256
176
112
32
-32
-32
-16
16
-80
-128
-48
64
112
112
32
16
64
32
16
16
0
-96
0
160
0
-304
-528
-288
144
256
128
128
128
16
-144
-160
-80
0
128
160
-32
-208
-32
144
144
16
-96
-176
-144
64
144
0
-96
-112
16
208
352
288
240
176
64
-32
-144
-144
-160
-96
16
96
80
-32
-176
-144
48
96
16
48
64
-384
-512
-320
80
288
224
208
80
96
224
208
128
112
48
-80
-208
-128
96
112
-48
-144
-128
-176
-224
-176
0
80
112
80
32
176
176
128
32
-80
-16
144
192
144
-32
-176
-256
-272
-224
-256
-128
192
368
320
112
96
160
256
144
-32
-48
-64
-128
-256
-144
32
96
0
-16
48
-48
-256
-80
144
320
288
176
64
-48
-224
-208
-48
112
192
224
112
32
80
-96
-272
-272
-80
144
16
32
-48
-144
-112
-96
16
80
176
80
-64
-48
-32
80
256
160
64
32
16
80
16
16
48
0
-80
-32
80
-16
-256
-368
-448
-336
-64
208
272
224
96
144
80
64
112
128
112
0
48
112
160
128
16
-64
0
112
80
-48
-224
-336
-160
-112
-240
-192
-32
288
336
240
224
224
144
16
16
16
32
80
160
240
112
16
0
16
16
32
32
0
-64
-96
-112
-208
-240
-160
-48
32
-128
-48
160
352
368
240
96
0
-32
-16
-16
16
-80
-240
-144
64
160
64
96
144
64
16
-240
-16
80
32
-64
96
208
256
144
80
64
112
144
96
16
-16
48
64
48
32
16
32
-48
-160
-128
32
80
48
64
48
-32
-128
-176
-224
-160
-96
-64
-16
32
-32
112
240
256
112
32
32
80
144
144
16
-112
-160
-48
160
208
112
96
80
48
16
16
-32
-80
-16
48
-16
-112
-96
64
160
144
128
144
96
0
0
32
80
16
-176
-272
-128
96
176
112
64
48
32
16
-80
-176
-208
-96
-32
-64
16
32
-16
-48
16
-48
-160
-176
-112
-208
-256
48
224
272
176
48
80
32
-48
-80
16
176
160
16
16
0
-80
-224
-400
-336
48
288
288
160
112
96
80
64
0
0
48
96
48
0
-160
-304
-288
-80
48
16
-16
64
64
48
64
0
32
32
64
96
32
16
-80
-112
144
304
48
-128
0
176
112
48
16
-16
-48
-48
-16
-48
-80
-48
-64
-144
-256
-208
-112
-48
80
48
16
-32
80
192
160
48
0
64
64
16
-64
-96
-80
0
80
96
96
64
-16
-64
-80
-112
-144
-96
-112
-96
-80
48
208
144
80
64
16
-48
-144
-144
-64
0
32
64
96
48
48
80
112
48
32
-96
-208
-208
-96
112
112
-16
-96
-32
80
112
144
112
48
0
-80
-64
16
48
32
16
64
112
32
0
16
16
16
-96
-224
-160
32
112
32
0
48
64
16
16
48
64
32
-16
-16
0
-96
-112
0
80
96
-16
-64
-32
-80
-192
-144
-64
16
48
32
80
96
96
80
64
64
0
-16
16
16
80
64
0
-64
-48
0
16
32
64
48
16
-16
-16
-80
-80
-80
-64
-16
-32
-48
-16
32
32
-112
-176
-96
-32
16
80
128
96
80
128
144
96
-48
-208
-256
-208
-80
-16
48
96
144
80
0
-64
0
80
48
-32
-48
-64
-96
-80
32
48
48
0
-48
-64
-64
48
48
48
48
64
96
80
16
-80
-160
-80
-32
-32
48
80
16
-64
-160
-176
-16
144
80
64
80
80
80
64
64
64
0
-64
-96
-80
-48
-32
-64
-80
-32
48
96
32
0
32
-16
-112
-160
-96
32
112
32
-64
-64
-16
-64
32
144
112
16
-144
-256
-128
112
176
128
48
16
0
0
-32
-128
-192
-192
-48
128
112
64
64
64
-48
-240
-176
32
176
144
48
48
64
32
0
16
32
96
80
48
64
48
16
32
-16
-48
-48
-160
-192
-96
0
80
80
112
112
64
32
16
0
16
32
0
-80
-176
-128
-32
-80
-128
-160
-96
-80
-32
160
144
64
48
64
64
32
-48
-64
-32
32
0
-32
-48
-16
-16
-16
-16
-80
-112
-32
80
80
-16
-96
-48
64
64
0
-32
-32
-96
-96
-32
16
0
48
32
16
16
32
16
16
32
-48
-96
0
80
-16
-64
16
48
16
-80
-144
-80
-16
64
80
48
16
-16
0
80
32
64
0
-80
-64
0
0
16
64
128
96
48
16
0
0
0
-32
-64
-96
-128
-112
-64
-32
-64
-112
-48
16
48
48
112
80
0
-16
48
32
-64
-96
-48
16
32
-16
-112
-176
-80
80
112
48
0
-96
-208
-112
16
128
80
16
64
48
-32
-80
-112
-64
-16
16
-48
-64
-48
32
80
112
80
0
0
48
-16
-144
-192
-128
32
96
128
48
-16
-16
-16
-48
-48
-32
32
32
16
0
0
-80
-112
-80
-80
-32
96
64
32
-16
-16
0
48
48
16
-96
-160
-160
-80
-32
-32
-16
0
-32
-80
-112
-16
48
144
128
80
-32
-128
-64
64
96
0
-112
-96
-112
-176
-176
-192
-112
0
0
-96
-112
-32
128
176
96
32
-80
-112
-64
-32
-64
-256
-272
-96
-160
-400
-336
-192
32
256
320
176
-144
-464
-608
-448
128
608
384
224
160
224
48
-288
-368
-288
-272
-416
-608
-368
160
432
576
432
240
208
144
32
-32
-240
-480
-384
-64
192
192
144
128
160
208
128
48
32
-16
-80
-64
-48
-80
-160
-128
-176
-176
-160
-160
-176
-160
-176
-208
-32
192
368
208
0
-176
-160
112
288
192
64
48
32
-32
-64
-176
-288
-320
-144
16
48
0
16
64
48
16
-80
-80
80
64
16
-272
-608
96
144
112
128
96
32
-32
-80
-96
-112
-48
112
48
-192
-208
-32
96
128
32
-160
-272
-240
-80
80
80
-112
-128
48
160
224
96
-128
-208
0
128
112
16
-112
-224
-208
0
112
160
192
160
112
64
32
32
48
-48
-208
-368
-288
-112
32
64
144
176
16
-32
-16
0
-32
-48
-48
32
48
112
144
112
32
-32
-80
-64
-16
64
48
0
0
0
-16
-32
32
96
16
-64
-64
-32
-80
-224
-192
-96
48
-16
-80
-16
0
32
0
64
112
160
144
80
48
48
48
48
80
32
-48
-48
-64
-32
-48
-112
-144
-112
-64
-48
64
112
-16
-96
32
128
32
-64
-64
-96
-80
64
64
32
48
48
-16
-16
48
80
32
-32
-80
-48
0
0
0
-80
-176
112
64
80
32
-64
-80
-128
-160
-16
208
256
112
16
-16
0
-16
-16
16
48
32
16
0
-16
-16
0
32
48
16
-32
-96
-160
-96
0
32
0
-16
16
-32
-80
0
32
16
-144
-208
-32
80
192
176
80
112
80
32
0
-32
-16
-80
-160
-192
-176
16
96
80
48
48
96
128
96
-64
-80
0
-16
-80
-96
-32
64
0
-16
32
48
32
-16
-32
-16
0
-16
-32
-16
32
0
-16
32
16
-112
-160
-64
0
32
48
48
32
-32
-80
-192
-208
-96
48
-16
-176
-224
-128
-16
112
176
64
128
160
16
-80
-32
-144
-240
-144
16
80
32
16
48
32
-32
-32
96
96
16
-16
80
112
-32
-80
0
96
128
48
-16
0
-16
-64
-64
-80
-64
-32
-224
-256
-240
-96
96
240
192
80
-16
-32
32
112
96
32
0
48
96
48
-32
-64
0
0
-112
-144
-112
-16
32
80
80
16
-48
-80
-160
-208
-144
32
192
48
-80
16
64
48
32
48
96
96
-16
-96
-112
-96
-80
-32
-32
32
0
-144
-176
-80
176
240
128
80
32
-160
-320
-384
-208
48
176
144
144
128
128
112
-16
-16
80
160
128
48
32
-16
-16
-16
-16
-16
-16
16
32
0
-16
0
48
48
32
48
32
16
16
0
32
32
32
48
32
48
48
32
16
0
-16
-16
-32
-16
-16
-32
-32
-16
16
0
0
-16
0
16
16
32
48
48
32
0
-32
-48
-32
-16
-16
0
0
0
16
0
16
16
32
32
32
32
32
32
16
0
0
-16
-16
-16
-16
-16
-16
-16
16
16
0
0
16
48
32
32
48
32
0
-16
-16
-32
-32
-32
-32
-32
-32
-16
0
0
0
-16
16
32
16
32
32
16
0
0
-16
-32
-48
-48
-32
-32
-32
-16
0
16
16
0
32
48
32
32
32
16
0
-16
-16
-32
-48
-32
-32
-32
-32
-16
0
0
0
0
16
32
16
32
32
16
0
0
-16
-32
-32
-32
-32
-32
-32
-16
0
0
0
0
16
32
16
32
32
16
0
-16
16
16
16
32
16
32
32
16
0
-16
-16
-32
-32
-32
-32
-32
-32
-16
0
0
0
16
16
32
16
16
32
16
0
-16
-16
-32
-32
-32
-32
-32
-32
-16
0
16
16
16
32
32
16
32
32
16
0
0
0
-16
-32
-32
-16
-32
-32
-32
0
0
16
16
16
32
16
32
32
16
0
0
-16
-32
-32
-32
-16
-16
-16
-16
0
16
16
16
32
32
16
32
32
16
0
-16
-16
-32
-48
-48
-48
-48
-32
-32
-16
0
-32
-32
-48
-48
-48
-48
-48
-32
-32
-16
-16
-16
0
0
0
0
16
16
-16
-16
-32
-32
-48
-48
-48
-48
-48
-48
-32
-16
-16
0
0
16
0
0
16
0
-16
-32
-32
-48
-48
-48
-48
-48
-48
-48
-32
-16
0
0
16
16
16
16
16
16
-16
-32
-32
-32
-48
-48
-48
-48
-48
-32
-32
-16
0
16
16
32
16
0
16
16
-16
-16
-32
-32
-48
-48
-48
-48
-48
-48
-32
-16
0
0
16
16
0
16
16
16
-16
-32
0
0
16
16
0
0
16
16
-16
-16
-32
-32
-48
-48
-48
-48
-48
-48
-32
-16
-16
0
16
16
0
16
16
16
0
-16
-16
-32
-48
-48
-32
-32
-48
-48
-32
-16
0
0
16
16
16
16
16
16
0
-16
-16
-32
-32
-48
-32
-48
-48
-48
-32
-16
0
0
16
16
16
0
16
16
0
-16
-16
-16
-32
-32
-32
-32
-32
-32
-32
-16
0
16
16
16
16
16
16
16
0
-16
-16
-16
-48
-48
-48
-32
-48
-32
-32
-16
0
16
16
16
16
16
16
16
0
-16
-16
-32
-32
-48
-48
-48
-48
-48
-32
-16
0
16
16
32
16
16
16
16
0
-16
-16
-32
-32
-48
-48
-48
-48
-48
-32
-16
0
16
16
16
16
16
32
32
16
0
0
16
32
32
32
32
32
48
16
0
0
-16
-32
-32
-32
-32
-32
-32
-32
-16
0
16
16
16
16
16
32
32
16
0
-16
-16
-32
-48
-32
-32
-32
-32
-32
-16
0
16
32
32
16
16
32
32
16
0
0
16
16
16
16
16
16
32
16
-16
-16
-16
-32
-32
-32
-32
-32
-32
-32
-16
0
0
16
16
16
16
32
32
16
0
-16
-16
-32
-48
-32
-32
-32
-32
-32
-16
0
16
16
16
0
-16
0
0
0
-16
-16
16
0
-16
-32
-48
-48
-64
-32
-16
16
16
16
0
0
0
16
16
0
-16
-16
-16
-48
-64
-80
-80
-96
-80
-48
0
32
32
32
48
48
32
48
48
32
16
0
0
-16
-32
-32
-32
-32
-32
-32
-16
-16
-16
-32
-32
-32
-32
-48
-48
-32
-32
0
0
16
16
16
16
16
32
16
0
-16
-16
-32
-48
-48
-48
-32
-48
-32
-16
0
16
16
16
32
16
32
32
16
-16
-16
-16
-16
-32
-32
-32
-32
-48
-32
-16
0
16
16
16
16
16
16
32
16
0
-16
-16
-32
-48
-48
-32
-32
-32
-32
-16
0
16
16
16
16
16
16
32
16
0
-16
-16
-32
-32
-32
-32
-32
-32
-32
-32
-16
0
16
16
16
16
16
32
16
0
0
16
16
16
16
16
16
32
32
0
0
-16
-16
-32
-32
-32
-16
-32
-32
-16
0
16
16
16
16
16
16
32
32
0
0
-16
-16
-32
-32
-32
-32
-32
-32
-16
0
16
32
32
32
16
16
32
32
0
0
-16
-16
-32
-32
-32
-32
-32
-32
-32
-16
0
16
16
16
16
16
32
32
0
0
-16
-16
-32
-32
-32
-32
-32
-32
-32
-16
0
16
16
16
16
16
32
32
16
0
0
-16
-32
-32
-32
-48
-48
-64
-48
0
0
-16
-32
-32
-32
-32
-32
-32
-32
0
16
16
16
16
16
16
32
32
0
-16
-16
-16
-32
-48
-32
-32
-32
-32
-32
-16
0
16
16
32
32
32
48
48
16
0
-16
-16
-32
-32
-48
-32
-32
-32
-32
0
-16
-16
-32
-32
-32
-16
-32
-32
-16
-16
0
16
16
16
16
16
16
16
0
-16
-16
-16
-32
-48
-48
-32
-48
-48
-32
-16
0
16
16
16
16
16
16
16
0
-16
-16
-16
-32
-32
-32
-32
-48
-48
-32
-16
0
16
16
16
16
16
32
32
16
0
-16
-16
-32
-32
-32
-32
-32
-48
-32
-16
0
16
32
32
32
16
16
32
0
-16
-16
-16
-32
-48
-48
-32
-48
-48
-32
-16
0
16
16
16
16
16
16
16
0
-16
0
16
32
32
32
16
32
32
16
0
-16
-16
-32
-48
-48
-48
-48
-48
-48
-32
-16
0
16
16
16
0
16
16
16
-16
-16
-16
-32
-48
-48
-32
-32
-48
-32
-16
0
16
16
16
16
16
16
16
16
0
-16
-16
-32
-32
-32
-32
-32
-32
-32
-16
0
16
32
32
32
16
32
32
32
0
0
0
-16
-32
-32
-16
-32
-32
-16
-16
0
16
32
32
32
16
32
32
32
0
0
0
0
-16
-16
-16
-16
-32
-16
0
0
-16
-16
-32
-32
-32
-32
-32
-16
0
16
16
32
32
16
16
16
32
16
0
-16
-16
-16
-32
-32
-32
-32
-48
-32
-16
0
16
16
16
32
16
32
32
32
0
0
-16
-16
-32
-32
-32
-32
-32
-32
-32
-16
0
16
16
16
16
16
32
16
0
-16
-16
-16
-32
-32
-32
-32
-32
-32
-32
-16
0
16
16
16
16
16
16
16
-16
-16
-16
-32
-48
-48
-48
-48
-48
-48
-32
-16
0
16
16
16
16
16
32
16
-32
-16
-16
0
0
0
0
0
16
16
0
0
-16
-32
-48
-64
-64
-80
-80
-80
-80
-64
-64
-48
-32
-16
-16
16
64
80
48
32
48
16
0
-16
-16
-16
-32
-32
-16
0
16
32
16
16
0
16
16
16
0
0
0
0
-16
-16
-32
-32
-48
-48
-32
-16
0
32
32
32
16
0
-32
-32
-64
-96
-96
-80
-48
-16
-16
-48
-48
-48
-32
-32
-48
-64
-80
-64
-112
-112
-64
0
48
64
80
64
-48
-112
-128
-128
-112
-48
48
144
160
144
112
80
80
32
0
-16
-64
-64
-48
0
0
-16
0
0
-32
-16
-32
-16
-16
0
32
48
48
32
48
48
32
0
-16
-48
-80
-112
-112
-112
-128
-128
-64
16
48
48
32
32
16
32
64
80
-64
-64
-80
-32
0
-16
0
32
48
32
0
-32
-48
-32
16
32
32
32
16
-16
-32
-48
-96
-112
-112
-128
-128
-48
64
96
80
80
16
-64
-96
-80
-48
32
48
-16
-64
-96
-80
-96
-96
-48
-16
0
48
112
96
48
64
48
-16
-64
-144
-192
-208
-160
-112
-16
48
-16
-128
-160
-176
-96
0
32
32
-16
-96
-64
-48
-64
-32
16
-64
-128
-96
-16
96
192
160
112
0
-80
-128
-96
-32
16
-16
-64
-112
-112
-80
-128
-240
-336
-144
-32
-16
-64
-48
-96
-48
96
112
80
48
-16
-144
-112
0
-32
-160
-368
-432
-320
-96
64
240
128
-64
-80
-48
64
96
64
0
-32
16
-80
-128
-16
48
64
48
80
32
-32
32
32
0
-112
-336
-384
-208
176
128
240
96
16
64
128
128
48
-112
-320
-432
-336
0
64
-112
-160
-80
32
96
32
32
-48
-288
-400
-224
-48
224
464
384
112
16
32
64
80
192
192
80
0
-64
-80
-96
-96
-80
-48
-96
-224
-352
-336
-128
0
-128
-240
-272
-16
80
0
-64
-48
0
112
48
-64
-96
-112
-144
-32
144
48
-224
-288
-208
-128
-128
-144
112
224
144
-32
-128
0
224
160
-64
-32
112
-64
-160
-176
-176
-112
0
96
160
144
-48
-96
-80
-160
-48
176
128
-128
-48
144
176
64
32
-16
0
-16
-32
-80
-112
-160
-48
96
80
32
0
-144
-80
112
-16
-96
-144
-240
-336
-208
-32
224
256
48
32
96
128
80
-80
-80
0
32
0
-80
-64
-64
-16
48
-80
-304
-288
-128
16
-16
-160
-288
-208
-32
-16
-176
-208
-112
-48
-32
-64
0
208
272
192
112
32
-80
-192
-272
-352
-192
80
96
48
224
288
144
64
80
32
-32
-80
-96
-144
-80
80
64
48
0
-80
-144
-192
-112
48
112
96
16
0
0
-112
-176
-80
-80
-144
-144
-16
144
176
112
48
-16
-272
-592
-544
-96
272
80
112
288
320
176
64
0
32
0
-80
-128
-208
-304
-320
-128
32
96
32
-48
-16
128
160
144
128
48
-64
-112
-112
-288
-384
-32
-176
-16
192
304
176
144
112
80
96
96
48
16
-32
-144
-272
-80
208
144
0
-80
-64
-16
-48
-64
-16
32
96
32
-32
-32
32
0
-160
-160
48
160
0
-96
-16
-16
-160
-336
-272
48
96
112
176
192
16
-64
32
144
192
16
-160
-208
-48
176
112
-32
-48
0
48
32
-96
-208
-128
-96
-128
-16
64
112
64
-96
-128
176
320
192
48
-32
-112
-128
-64
-48
64
128
96
80
96
80
48
64
48
32
32
-48
-112
-192
-288
-240
64
96
16
32
48
16
-16
0
0
-64
-144
-176
-80
0
-16
-96
-160
96
352
320
160
48
16
16
16
-112
-144
-96
80
48
-48
0
16
-32
0
48
64
80
80
-80
-272
-176
-48
-64
-432
-592
-144
416
464
240
160
176
144
128
96
48
16
0
16
80
128
48
-16
-16
0
-32
-144
-272
-288
-144
96
112
160
192
16
-160
-192
-48
80
80
-96
-240
-144
80
304
320
240
144
-64
-272
-352
-80
128
48
-32
48
192
272
192
96
64
80
48
32
48
0
-192
-320
-192
-320
-608
-416
112
400
320
208
64
48
112
96
32
-80
-208
-272
-208
16
208
352
192
128
48
-16
-32
-32
-16
-16
-128
-48
144
96
176
192
80
-16
-64
-80
-128
-160
-192
-112
-160
-160
-64
0
80
16
80
144
176
144
32
-16
-16
-32
-64
-80
32
32
-160
-240
-32
176
176
96
64
48
16
-32
32
96
64
48
48
48
16
16
112
16
-64
32
128
112
0
-144
-64
112
16
-256
-352
0
224
224
96
64
64
80
96
64
0
0
80
16
-112
-160
-96
16
-80
0
80
48
-16
-16
48
32
-32
32
80
-64
-144
0
176
208
160
160
112
32
32
-16
-144
-128
-80
-112
-112
-16
64
80
96
48
-16
32
-96
-16
32
48
32
-32
32
128
160
96
32
32
96
144
112
16
-64
-160
-320
-368
-192
16
112
64
112
112
64
48
-16
-48
128
256
96
64
64
80
64
-16
-48
-16
-32
-80
-80
-96
-96
-48
64
64
80
64
96
64
-32
-144
-112
-80
16
64
64
-80
-160
-48
64
64
80
128
128
176
160
128
48
-112
-256
-160
32
32
16
32
32
80
80
32
-16
32
80
0
-16
64
160
16
-160
-64
80
128
-16
-272
-240
48
112
32
-48
128
80
-160
-224
0
176
208
128
16
-64
-48
16
-64
-128
0
144
272
96
-32
32
16
-16
64
-192
-464
-336
0
320
224
48
64
16
-48
0
128
192
112
32
16
64
48
-32
-32
-16
-32
-64
-144
-64
32
160
208
240
256
160
96
64
-16
-48
-16
-16
-112
-160
-96
-16
-16
-128
-144
48
144
96
64
32
64
112
80
-64
-192
-160
-16
64
0
-16
-80
-112
-80
-64
-48
-32
64
192
112
0
48
160
176
32
-160
-336
-288
-48
16
-96
-48
96
240
288
176
64
16
48
32
64
48
-16
16
32
-48
-48
-32
-64
-112
-64
-64
-272
-384
-240
-144
-32
64
240
256
208
192
192
64
0
-48
-32
0
48
-64
-176
-128
64
112
64
48
0
-64
0
-96
-80
16
112
80
96
80
0
-64
-80
-224
-496
-544
-288
176
416
304
176
16
-112
-64
64
192
112
32
48
0
48
96
96
80
128
112
64
-64
-160
-128
-16
48
32
-16
-64
-80
16
64
48
16
-48
-64
-96
-112
32
128
112
96
80
64
48
32
32
64
80
-16
-80
-48
-48
-192
-320
-320
-176
0
176
240
256
208
128
64
64
16
-144
-240
-80
176
256
160
48
-16
-16
-16
-16
-48
-96
-96
0
112
96
32
16
48
0
16
80
0
-144
-192
-48
0
-80
-112
-96
-160
-160
-112
-32
-64
32
224
272
112
48
48
112
128
96
32
-128
-144
0
96
96
64
80
64
-16
-32
16
80
64
0
16
80
48
-32
-96
-160
-208
-112
-16
-48
-64
-16
-224
-400
-176
224
400
288
176
160
80
64
48
-112
-224
-48
192
112
-32
-48
-48
-64
-112
-32
96
144
32
-96
-80
32
48
96
160
112
0
-112
-256
-304
-112
128
144
112
64
80
96
112
64
0
-16
-16
-32
-112
-128
48
32
0
128
48
-96
-352
-448
-336
-48
112
128
160
288
240
96
-32
-64
0
-16
-64
48
112
-64
-80
48
176
112
80
64
48
96
64
-16
-112
-240
-336
-176
16
-48
-176
-32
208
96
-96
-48
32
32
-48
-64
32
192
144
16
64
160
144
144
128
96
96
80
32
0
64
96
80
112
128
112
64
32
-16
-112
-288
-544
-528
32
400
352
192
16
-112
-144
-96
48
160
176
144
160
64
-304
-592
-352
96
288
320
-48
-128
-272
-224
0
96
-224
-528
-256
256
480
304
48
-32
-80
-64
-32
-32
-16
-32
-240
-240
128
320
208
-80
-352
-288
-16
128
16
-96
32
112
160
128
-32
-64
64
224
160
48
16
16
-32
-96
-128
-32
32
-16
-64
-96
-96
-128
-128
-112
-16
32
-112
-240
-144
48
96
32
-80
-208
-272
-64
144
176
64
0
-32
-224
-512
-432
-64
256
272
224
160
96
16
-32
0
80
96
-16
-112
-128
-112
-96
-144
-192
-96
-48
-256
-432
-128
208
16
64
48
-128
-368
-288
32
128
-16
-64
-112
-144
-112
112
192
80
-160
-496
-672
-448
-96
144
336
384
304
112
-96
-64
48
0
-176
-160
-48
-16
-80
16
16
-16
32
160
176
-64
-288
-320
-288
-144
16
256
240
96
32
32
16
-96
-64
144
288
208
48
48
80
16
16
32
-16
0
16
64
32
-32
-80
-336
-880
-896
32
432
80
-96
80
288
272
176
112
32
0
16
-48
-80
-64
32
16
-16
16
48
16
112
256
128
-16
-64
-32
0
-16
-32
-32
-112
-192
-304
-592
-656
-304
128
400
160
80
112
160
80
-176
-160
144
192
-80
-304
-208
64
208
256
144
160
176
144
128
192
160
48
0
-16
-32
-192
-400
-320
-64
0
-96
-16
32
-144
-208
-320
-96
-80
-112
-176
-352
-384
-64
144
192
96
144
192
112
144
128
64
-160
-320
-192
96
128
-112
-304
-320
-272
80
320
272
160
0
-128
-144
-128
128
240
176
16
-112
-240
-288
-288
-256
-336
-256
-128
-16
48
-48
272
416
240
0
96
320
256
192
128
16
-48
-64
-64
-32
-16
0
-32
-112
-96
16
64
80
-16
16
64
96
48
0
-80
-416
-656
-448
-304
-192
48
496
416
16
-144
16
224
160
80
48
32
-80
-96
-16
176
304
176
64
192
128
128
160
144
64
0
-16
-48
-64
-32
-16
-64
-96
-128
-80
-16
16
-112
-208
-112
64
48
32
80
160
64
-64
-48
-144
-320
-416
-208
240
304
192
48
48
48
32
-48
16
96
48
-32
16
80
-32
-160
-48
16
144
96
0
-32
-80
-192
-208
-80
80
0
-208
-288
-160
-16
48
112
112
64
-144
-64
112
192
144
16
-80
-48
0
0
16
64
96
112
48
-16
-64
-32
32
0
-128
-192
-176
-208
-112
-64
-144
-48
48
96
96
128
80
-128
-736
-864
-320
400
592
528
256
176
128
-32
-96
-32
-32
-64
-16
-48
-256
-400
-192
96
256
304
176
-48
-112
-112
-96
-112
-384
-480
-192
224
384
144
-176
-272
-80
160
272
272
208
128
-96
-176
80
176
112
112
112
48
-80
-176
-240
-208
-112
-64
-112
-48
96
80
-80
-304
-176
240
368
288
128
48
-32
-64
-96
-64
-80
-112
-112
-48
-80
-96
0
16
32
128
160
176
144
32
-128
-288
-512
-496
-128
0
-96
-48
64
192
256
-208
-208
0
64
-80
-208
-80
0
16
96
160
32
-32
80
96
-144
-416
-272
80
224
256
272
144
32
-64
-112
-144
32
96
48
-112
-192
-32
192
208
-48
-128
-48
32
32
80
176
64
-192
-384
-272
64
96
-32
-96
0
112
144
144
144
160
128
80
64
-16
-32
16
64
-64
-96
-64
-64
-48
-16
16
32
16
0
48
64
32
48
64
32
-48
-160
-176
-80
-64
-80
-64
-32
-16
0
16
-16
-48
0
-16
-80
-192
-48
208
336
112
16
64
96
-16
-128
-208
-192
-64
64
96
112
64
48
48
80
112
96
64
-16
-64
-32
0
-64
-160
-112
-64
-64
-64
-256
-400
-400
-176
160
320
336
208
160
128
48
-16
0
64
48
-96
-144
-48
0
0
16
64
-64
-128
-16
64
112
48
-16
16
16
32
64
48
32
32
80
80
80
32
0
-16
16
48
32
-48
-96
-112
-112
-80
-32
0
32
32
16
32
48
64
32
16
0
0
0
0
-16
-48
-96
-144
-160
-80
0
64
112
64
32
48
48
48
48
32
-16
-48
-48
-16
-16
-112
-128
-16
0
-32
-16
-16
-16
0
-32
-64
32
80
32
-16
0
32
80
80
48
-16
-32
-32
-48
-48
-16
16
32
16
16
48
32
-16
-64
-80
-96
-64
16
16
0
32
48
48
48
16
0
-32
-32
-16
-16
-48
-64
-48
-48
-48
-32
0
16
16
0
16
32
32
16
0
0
-16
-32
-16
-16
-32
-48
-32
-32
-32
-16
0
16
16
16
32
48
48
32
16
0
-16
16
32
16
48
64
80
64
48
32
0
-16
-32
-48
-80
-96
-96
-80
-64
-48
-32
0
16
16
48
64
80
64
48
32
0
-16
-32
-48
-80
-80
-80
-80
-64
-48
-16
16
16
32
48
64
80
64
48
32
16
-16
-16
-32
-64
-96
-112
-112
-112
-96
-64
-16
0
16
32
48
80
64
64
32
0
-48
-48
-48
-48
-48
-48
-64
-48
-32
-16
0
16
32
32
64
64
48
16
0
-16
-32
-32
-32
-64
-80
-80
-80
-64
-48
-16
0
16
16
32
48
64
48
48
16
0
-16
-32
-32
-64
-80
-80
-80
-64
-32
-16
0
16
16
32
48
64
48
32
16
0
-16
-32
-32
-48
-64
-64
-64
-48
-32
-16
-16
0
0
16
32
48
48
32
0
0
-16
-32
-32
-64
-80
-80
-80
-64
-48
-32
-16
0
0
16
32
48
32
16
0
-16
-32
-48
-64
-80
-96
-96
-96
-80
-48
-32
-32
-16
-16
0
16
32
16
0
0
-16
-32
-48
-64
-80
-96
-96
-96
-80
-64
-48
-32
-48
-48
-48
-64
-64
-64
-48
-32
-16
-16
0
0
0
16
32
16
16
0
-16
-32
-32
-32
-48
-64
-64
-64
-48
-32
-16
0
16
16
16
16
32
16
16
0
-16
-32
-48
-48
-48
-64
-64
-64
-48
-32
-16
-16
-32
-32
-32
-48
-64
-64
-48
-32
-16
-16
0
0
0
16
32
16
16
0
0
-16
-32
-32
-32
-48
-64
-64
-48
-32
-16
-16
-16
-16
0
0
16
16
16
0
0
-16
-16
-32
-32
-32
-48
-48
-48
-32
-16
-16
-32
-32
-32
-32
-48
-48
-32
-32
-16
-16
-16
0
0
16
32
16
16
0
0
-16
-16
-32
-32
-32
-48
-48
-48
-32
-16
-16
0
0
0
16
16
16
16
0
0
-16
-16
-32
-32
-32
-32
-48
-32
-16
-16
-16
0
0
0
16
32
16
16
16
16
0
-16
-32
-32
-32
-48
-48
-32
-16
-16
0
0
0
0
16
16
16
16
0
16
0
-16
-16
-16
-32
-32
-48
-48
-32
-16
-16
0
0
0
0
16
16
0
0
0
-16
-32
-32
-32
-32
-48
-48
-48
-32
-16
-16
0
0
0
0
32
32
16
16
16
0
-16
-16
-16
-16
-32
-48
-48
-32
-16
0
0
16
0
16
32
16
16
16
16
0
-16
-32
-32
-32
-48
-48
-32
-16
-16
-16
-16
-32
-32
-32
-48
-48
-48
-32
-16
-16
-16
-16
-16
0
16
16
0
0
0
-16
-32
-32
-32
-32
-32
-48
-48
-32
-16
-16
0
0
-16
0
16
16
16
0
0
-16
-16
-32
-32
-32
-32
-48
-48
-32
-16
-16
-16
-16
-16
0
16
16
16
0
0
0
-16
-32
-16
-16
-32
-48
-48
-32
-16
-16
0
0
0
0
16
16
0
0
0
0
-16
-32
-32
-32
-48
-48
-48
-32
-16
0
0
0
0
0
16
16
0
0
0
0
-16
-32
-32
-32
-48
-48
-48
-32
-32
-16
-16
-16
-16
-16
0
16
0
0
0
-16
-32
-32
-32
-32
-48
-48
-48
-32
-32
-32
-16
-16
-16
-16
0
0
0
0
0
-16
-32
-32
-32
-32
-48
-48
-48
-32
-32
-16
-16
-16
-16
-16
0
16
0
0
0
-16
-32
-32
-32
-32
-48
-48
-48
-32
-16
-16
-16
-16
-16
-16
0
0
0
0
0
0
-16
-32
-32
-32
-32
-48
-48
-32
-32
-16
-16
-16
-16
-16
0
0
0
0
0
-16
-16
0
0
-16
0
16
0
16
0
0
-16
-16
-32
-16
-32
-32
-32
-32
-16
-16
-16
-16
-16
-16
0
16
16
0
0
0
-16
-16
-16
-16
-16
-32
-32
-16
-16
-16
0
0
0
-16
0
16
0
0
0
0
-16
-16
-32
-16
-16
-32
-32
-16
-16
-16
-16
0
0
0
0
16
0
0
0
0
-16
-16
-16
-16
-32
-32
-32
-16
0
0
0
0
0
0
0
16
16
0
0
0
-16
-16
-16
-16
-16
-32
-32
-16
-16
16
0
-16
-16
-16
-16
-32
-32
-16
-16
0
0
0
0
0
0
16
16
0
0
0
-16
-16
-16
-16
-16
-16
-32
-16
-16
-16
0
0
0
0
0
16
16
16
16
0
-16
-16
-16
0
-16
-16
-32
-16
-16
0
0
0
0
0
0
16
16
16
16
16
0
-16
-16
-16
-16
-16
-32
-16
0
0
-16
0
0
0
0
16
16
16
16
16
0
-16
-16
-16
-16
-32
-32
-16
-16
-16
0
0
0
0
0
16
16
16
16
0
0
0
0
0
0
16
16
0
0
0
-16
-16
-16
-16
-16
-16
-32
-16
-16
0
0
0
0
0
0
16
16
16
16
16
0
-16
-16
-16
0
-16
-32
-16
-16
0
0
0
0
0
0
16
16
16
16
16
0
-16
-16
-16
-16
-32
-48
-32
-16
0
0
0
0
0
0
16
16
0
0
0
0
-16
-16
-16
-16
-16
-32
-16
-16
-16
-16
0
0
0
0
16
0
0
0
16
0
-16
-32
-16
-16
-16
-32
-32
-16
0
0
-16
-16
-16
-16
-16
-32
-32
-16
0
0
0
0
-16
0
16
16
0
0
0
0
-16
-16
-16
-16
-16
-32
-32
-16
-16
-16
0
0
-16
-16
0
16
0
0
0
0
-16
-32
-16
-16
-32
-32
-32
-16
0
0
-16
-16
-16
-16
-32
-32
-32
-16
-16
-16
-16
0
-16
-16
0
16
16
16
16
0
-16
-16
-16
-16
-16
-32
-32
-16
-16
-16
0
0
0
-16
0
16
0
16
16
0
-16
-16
-16
-16
-16
-32
-32
-16
-16
-16
-16
0
0
0
0
16
0
0
0
0
-16
-16
-16
-16
-32
-32
-32
-16
0
-16
-16
0
0
0
0
16
0
0
0
0
-16
-16
-16
-16
-16
-32
-32
-16
-16
-16
0
0
0
0
0
16
0
0
-16
-16
0
0
0
-16
0
16
0
0
0
0
-16
-16
-16
-16
-16
-32
-32
-16
-16
-16
-16
-16
-16
0
16
16
16
16
16
16
-16
-16
-16
-16
-16
-32
-32
-16
-16
-16
-16
0
0
-16
-16
0
0
0
16
16
-16
-16
-16
-16
-16
-32
-32
-32
-16
-16
0
0
0
-16
0
16
16
0
0
0
-16
-32
-32
-16
-16
-32
-32
-32
-16
0
0
0
0
-16
0
16
16
16
0
0
-16
-16
-32
-16
-16
-32
-32
-16
0
0
-16
-16
-16
-16
-16
-32
-32
-16
-16
-16
0
0
0
-16
0
0
0
0
0
0
-16
-16
-32
-16
-16
-32
-32
-16
-16
-16
-16
0
0
-16
0
16
0
-16
-16
0
-16
-16
-16
-16
-16
-16
-16
-16
-16
-16
0
0
0
0
0
0
0
0
0
0
-16
-16
-16
-16
-16
-32
-32
-16
-16
0
0
0
0
-16
-16
0
0
0
0
0
-16
-16
-16
-16
-16
-32
-32
-16
-16
-16
-16
0
0
0
0
0
0
0
-16
0
0
0
0
-16
-16
0
0
0
0
0
-16
-16
-32
-16
-16
-16
-32
-32
-16
-16
-16
-16
-16
-16
-16
0
0
0
0
0
-16
-16
-16
-16
-16
-32
-32
-32
-16
0
-16
-16
0
-16
-16
0
16
0
-16
-16
-16
0
0
-16
0
0
0
0
0
0
-16
-16
-32
-16
-16
-32
-32
-32
-32
-16
-16
-16
0
0
0
0
0
-16
0
0
0
-16
-32
-32
-16
-32
-32
-32
-16
-16
0
0
0
-16
0
0
0
0
-32
-16
-16
-16
-16
-16
-32
-16
16
16
16
16
0
-16
-16
-16
-16
-32
-32
-32
-16
-16
-16
-16
-16
-16
-16
0
0
-16
0
0
-16
-32
-32
-32
-16
-16
-32
-32
-32
-16
-16
-16
0
-16
-16
-16
0
-16
-16
-16
-16
-16
-16
-16
-16
-32
-32
-32
-32
-16
-16
-16
-16
-16
-16
0
16
0
0
0
0
-16
-32
-32
-16
-32
-32
-32
-16
-16
-16
-16
0
-16
-16
0
0
0
0
0
-16
-16
-32
-16
-16
-32
-32
-32
-32
-16
-16
-16
-16
-16
-16
0
0
0
0
0
0
0
-16
-16
-16
-16
-32
-32
-16
-16
0
0
0
0
0
0
16
0
0
0
16
0
-16
-16
-16
-16
-32
-32
-16
-16
-16
-16
0
0
-16
-16
0
0
-32
-16
-16
-16
0
0
-16
0
16
0
0
0
0
-16
-16
-16
-16
-16
-32
-32
-32
-16
-16
-16
0
0
-16
0
0
0
16
16
0
-16
-16
-16
-16
-16
-32
-32
-16
-16
-16
0
0
0
0
0
16
0
0
0
0
-16
-32
-32
-32
-16
-32
-32
-16
-16
0
0
0
0
0
0
16
0
0
0
0
-16
-32
-32
-16
-16
-32
-32
-32
-16
0
0
0
0
-16
0
0
0
0
0
0
-16
-32
-16
-16
-16
-16
-32
0
0
16
0
-16
-16
-16
-16
-16
-32
-32
-16
0
0
0
0
-16
0
16
0
0
0
0
0
-16
-16
-16
-16
-32
-32
-32
-16
0
-16
0
0
0
0
16
16
0
0
0
-16
-16
-16
-16
-16
-32
-32
0
0
0
-16
-16
-16
-16
-16
-32
-32
-32
-16
-16
-16
-16
0
-16
0
0
0
0
0
16
0
-16
-16
-16
-16
-16
-32
-16
-16
-16
0
0
0
-16
0
0
16
0
0
0
0
-16
-16
-16
-16
-16
-32
-32
-16
-16
0
0
16
0
0
16
16
0
16
16
0
-16
-16
-16
-16
-16
-32
-32
-16
0
0
0
0
0
0
16
16
0
0
0
-16
-16
-16
0
0
-16
-32
-16
0
0
0
0
0
-16
0
0
16
0
0
0
0
-16
-16
-16
-16
-16
-32
-16
-16
0
0
0
0
0
0
0
0
0
0
0
0
-16
-16
-16
-16
-16
-32
-32
-16
-16
-16
0
0
0
0
0
16
0
0
0
0
-16
-16
-16
-16
-16
-32
-16
-16
0
-16
0
0
0
0
0
16
0
0
0
-16
-16
-16
-16
0
-16
-16
-16
-16
0
0
0
0
0
0
0
16
0
0
0
0
-16
-16
0
0
-16
-32
-32
-16
-16
0
0
0
0
0
0
16
0
0
0
0
-16
-16
-16
-16
-16
-16
-16
-16
0
0
0
0
0
-16
0
16
0
0
16
0
-16
-16
-16
-16
-16
-16
-16
0
0
0
0
0
0
0
0
0
0
0
16
0
-16
-16
-16
-16
-16
-16
-16
-16
0
0
0
0
0
0
16
16
16
0
0
0
-16
-16
-16
-16
-16
-32
-32
-16
-16
0
0
0
0
-16
0
0
0
0
0
0
-16
-16
-16
-16
-16
-16
-16
0
0
0
0
0
0
0
0
16
0
0
0
0
-16
-16
-16
-16
-16
-32
-32
-16
-16
-16
0
0
0
-16
0
16
0
0
16
16
0
-16
-16
-16
-16
-16
-16
-16
-16
0
0
0
0
0
0
16
0
0
0
0
-16
-16
-16
0
-16
-16
-32
-16
-16
0
0
0
0
-16
0
16
0
0
0
0
-16
-16
-16
0
-16
-16
-32
-16
0
0
0
0
0
0
0
16
0
0
0
0
-16
-16
-16
-16
-16
-32
-32
-16
0
0
0
0
0
-16
0
16
0
16
0
0
-16
-16
-16
-16
-16
-32
-32
-16
-16
0
0
0
0
-16
0
16
0
0
0
0
-16
-16
-16
-16
-16
-16
-32
-16
-16
0
0
0
0
0
0
16
0
0
0
0
-16
-32
-32
-16
-16
-32
-32
-16
0
0
0
0
0
-16
0
16
0
0
0
0
-16
-16
-16
-16
-16
-32
-32
-32
-16
0
0
0
0
-16
0
16
0
0
0
0
0
-16
-16
-16
-16
-32
-32
-16
-16
-16
-16
-16
-16
-16
-16
0
0
0
0
0
-16
-16
-16
-16
-16
-32
-32
-16
-16
0
-16
0
0
-16
0
16
0
0
0
0
0
-16
-16
-16
-16
-32
-32
-16
-16
0
0
0
0
-16
0
16
0
0
0
0
-16
-16
-16
0
-16
-16
-32
-16
-16
0
0
0
0
-16
0
16
16
0
0
0
0
-16
-16
-16
-16
-32
-32
-16
-16
0
0
0
0
0
0
16
0
0
0
16
0
-16
-16
0
-16
-16
-32
-16
-16
-16
0
0
0
0
0
16
-32
-32
-16
0
0
0
0
0
0
0
0
0
0
0
0
-16
-16
-16
-16
-16
-32
-32
-16
-16
-16
-16
0
-16
0
16
16
0
0
0
-16
-16
-16
-16
-16
-32
-32
-32
-16
-16
-16
0
0
-16
-16
0
16
16
16
0
0
-16
-32
-16
-16
-16
-32
-32
-16
-16
-16
-16
0
-16
0
0
16
0
0
0
0
-16
-16
-16
-16
-32
-32
-32
-16
-16
-16
0
0
-16
0
0
0
0
-16
0
-16
-16
-16
-16
-16
-32
-32
-32
-16
-16
-16
0
0
0
0
0
16
0
0
0
0
-16
-16
-16
-16
-16
-32
-32
-16
-16
0
0
0
-16
-16
0
16
0
0
0
0
-16
-16
-16
-16
-16
-32
-32
-32
-16
-16
0
0
0
0
16
16
0
0
0
0
-16
-32
-32
-16
-16
-32
-32
-16
0
0
0
0
-16
-16
0
16
0
0
0
0
-16
-32
-16
-16
-16
-32
-32
-16
-16
-16
0
0
0
0
0
16
0
0
0
0
-16
-16
-16
-16
-16
-32
-32
-16
-16
0
0
0
-16
-16
0
0
0
0
0
-16
-16
-32
-32
-16
-32
-32
-32
-16
-16
0
0
0
-16
-16
0
16
0
0
0
-16
-16
-16
-16
0
-16
-32
-32
-16
-16
-16
-16
0
-16
-16
0
16
0
0
0
-16
-16
-16
-16
-16
-16
-32
-32
-16
-16
-16
0
0
-16
-16
0
16
0
0
0
0
-16
-32
-32
-32
-32
-32
-32
-16
-16
-16
0
0
0
0
0
16
0
0
0
0
-16
-16
-16
-16
-16
-32
-32
-16
0
0
0
0
-16
-16
-16
0
0
0
0
0
-16
-16
-16
-16
-16
-32
-32
-16
-16
-16
-16
0
-16
-16
0
0
0
0
0
0
-16
-32
-16
-16
-16
-32
-32
-32
-16
-16
0
0
0
0
0
16
0
0
0
0
-16
-16
-16
-16
-16
-32
-32
-16
-16
-16
-16
0
-16
-16
-16
0
0
0
0
0
-16
-16
-16
-16
-32
-32
-32
-16
-16
-16
-16
0
0
-16
0
0
0
0
0
0
-16
-16
-16
-16
-16
-32
-32
-16
-16
-16
-16
0
0
-16
0
0
0
0
0
0
0
-16
-16
-16
-16
-32
-32
-16
-16
-16
0
0
0
-16
-16
0
0
0
0
0
-16
-16
-16
-16
-16
-32
-32
-32
-16
-16
-16
0
0
0
0
