32
-16
-80
-128
-144
-144
-240
-736
-1024
-544
-224
0
176
352
400
416
464
656
608
160
32
-16
-64
-128
-128
-144
-224
-720
-1024
-560
-224
-16
176
352
400
432
464
656
624
160
32
-16
-80
-128
-144
-144
-224
-704
-1040
-576
-224
-16
176
352
400
432
464
656
640
176
48
-16
-64
-128
-128
-128
-208
-672
-1040
-592
-240
-16
160
352
400
432
464
640
640
192
48
-16
-64
-128
-128
-144
-208
-656
-1040
-624
-256
-32
160
352
400
432
464
640
656
208
48
-16
-64
-128
-128
-144
-192
-640
-1040
-624
-256
-32
160
352
400
432
464
640
672
208
48
-16
-64
-128
-128
-144
-192
-624
-1040
-656
-272
-48
144
336
384
432
448
624
672
224
48
0
-48
-128
-128
-144
-192
-608
-1040
-672
-272
-48
128
336
384
432
448
608
672
240
48
-16
-48
-112
-128
-144
-176
-592
-1040
-688
-288
-64
128
320
384
432
448
608
688
256
48
0
-48
-112
-128
-144
-176
-576
-1040
-704
-304
-64
112
320
384
432
432
592
688
256
48
0
-48
-112
-128
-144
-176
-560
-1040
-720
-304
-64
112
320
368
416
432
592
704
272
48
0
-48
-112
-128
-144
-176
-544
-1040
-752
-320
-80
96
304
368
416
432
576
704
288
64
0
-48
-112
-128
-144
-176
-528
-1040
-768
-320
-80
96
304
368
416
432
576
704
304
64
0
-48
-112
-128
-144
-160
-512
-1040
-784
-336
-96
80
288
368
416
416
560
704
320
64
0
-48
-112
-144
-144
-160
-480
-1024
-800
-336
-96
80
304
368
416
416
560
704
320
64
-16
-64
-128
-144
-160
-176
-480
-1024
-832
-336
-96
96
304
384
432
432
560
720
352
64
-16
-64
-128
-144
-160
-176
-464
-1008
-832
-352
-96
80
304
384
432
432
560
720
352
64
0
-64
-128
-144
-160
-176
-448
-992
-864
-352
-96
96
304
384
432
432
560
720
384
64
0
-48
-112
-144
-144
-160
-432
-976
-864
-368
-112
80
288
384
432
432
544
720
400
80
0
-48
-112
-144
-144
-160
-416
-976
-896
-384
-112
80
288
384
432
432
544
720
416
80
0
-48
-112
-144
-144
-160
-400
-960
-912
-384
-128
64
272
384
432
432
544
720
432
80
0
-48
-112
-144
-144
-160
-384
-944
-928
-400
-144
64
272
384
432
432
528
720
448
80
16
-48
-96
-144
-144
-144
-368
-928
-928
-416
-144
48
256
384
432
432
528
704
464
96
16
-48
-112
-144
-144
-160
-352
-912
-960
-432
-144
48
256
384
416
432
528
720
480
96
16
-48
-96
-144
-144
-144
-336
-896
-960
-432
-144
48
256
384
432
432
512
704
496
96
16
-32
-96
-144
-144
-144
-320
-880
-976
-448
-160
48
240
384
416
432
512
704
512
112
16
-32
-96
-128
-144
-144
-304
-864
-976
-464
-176
32
240
368
416
432
512
704
528
112
32
-32
-80
-128
-144
-144
-304
-848
-992
-480
-176
32
224
368
416
432
496
688
544
128
32
-32
-80
-128
-144
-144
-288
-816
-1008
-496
-192
0
192
352
400
416
480
688
560
128
32
-16
-80
-128
-128
-128
-272
-800
-1008
-512
-208
0
192
352
384
416
480
672
576
144
32
-16
-64
-128
-128
-144
-256
-800
-1024
-528
-224
0
192
352
384
416
480
672
592
144
32
-16
-80
-128
-128
-144
-256
-768
-1040
-544
-224
-16
176
352
400
416
480
672
608
160
32
-16
-64
-128
-128
-144
-240
-752
-1040
-560
-224
-16
176
352
400
416
480
672
624
160
48
-16
-64
-128
-128
-144
-240
-736
-1040
-576
-240
-16
176
352
400
432
464
656
640
176
48
-16
-64
-128
-128
-128
-224
-704
-1040
-592
-240
-16
160
352
400
432
464
656
640
192
48
-16
-64
-128
-128
-144
-224
-688
-1040
-592
-240
-16
160
352
400
432
464
656
656
192
48
-16
-64
-128
-128
-144
-208
-672
-1040
-624
-256
-32
160
352
400
432
464
640
672
208
48
-16
-64
-128
-128
-144
-208
-656
-1056
-640
-256
-32
144
352
400
432
464
640
672
224
48
-16
-64
-128
-128
-144
-208
-640
-1056
-656
-272
-48
144
336
384
432
448
624
672
224
48
-16
-64
-128
-144
-144
-192
-624
-1056
-672
-272
-48
144
336
384
432
448
624
688
240
48
-16
-64
-128
-128
-144
-192
-608
-1040
-688
-288
-48
128
336
384
432
448
624
704
256
48
0
-48
-128
-128
-144
-192
-592
-1040
-704
-288
-64
128
336
384
432
448
608
704
272
48
-16
-48
-112
-128
-144
-176
-560
-1040
-720
-304
-64
112
320
384
432
448
608
704
272
48
0
-48
-128
-128
-144
-176
-544
-1040
-752
-304
-80
112
320
384
432
448
592
720
304
48
0
-48
-112
-128
-144
-176
-528
-1040
-768
-320
-80
96
320
384
432
448
592
720
320
64
0
-48
-112
-144
-144
-176
-512
-1040
-800
-336
-96
96
320
384
448
448
592
736
336
64
0
-48
-112
-128
-144
-176
-496
-1024
-800
-336
-96
96
304
384
432
432
576
736
352
64
0
-48
-112
-128
-144
-160
-480
-1008
-832
-352
-96
96
304
384
432
448
576
736
368
80
16
-32
-96
-128
-144
-160
-464
-1008
-848
-352
-112
80
304
384
448
448
576
736
384
80
16
-32
-96
-128
-144
-160
-448
-992
-864
-352
-112
80
288
384
432
432
576
736
400
80
16
-32
-96
-128
-128
-144
-416
-976
-880
-368
-128
80
288
384
432
432
560
736
416
96
16
-32
-96
-128
-128
-144
-400
-976
-896
-384
-128
64
288
384
432
448
560
736
448
96
16
-32
-96
-128
-128
-144
-384
-960
-912
-400
-128
64
288
384
432
448
544
736
464
96
16
-32
-96
-128
-128
-144
-384
-944
-928
-400
-128
64
272
384
432
448
560
736
480
96
16
-32
-96
-128
-144
-144
-368
-928
-944
-416
-144
64
272
384
432
448
544
736
496
112
32
-32
-96
-128
-128
-144
-352
-912
-944
-416
-144
48
256
384
432
448
544
736
512
112
32
-32
-96
-128
-144
-144
-336
-896
-976
-432
-160
48
256
384
432
448
528
736
528
112
16
-32
-96
-128
-144
-144
-320
-880
-976
-448
-176
32
256
384
432
448
528
720
544
112
32
-32
-80
-128
-144
-144
-320
-864
-992
-464
-176
32
240
384
432
448
528
720
560
128
32
-32
-80
-128
-144
-144
-304
-848
-992
-464
-176
32
240
384
432
448
528
720
576
128
32
-32
-80
-128
-128
-144
-288
-832
-1008
-480
-176
32
240
384
432
448
512
704
592
144
32
-32
-80
-128
-144
-144
-288
-816
-1024
-496
-176
32
240
400
432
448
512
704
608
144
32
-16
-80
-128
-128
-144
-272
-800
-1024
-512
-192
32
240
400
432
464
512
704
624
160
32
-16
-80
-128
-128
-144
-256
-768
-1040
-528
-192
32
224
400
432
464
512
688
640
176
48
-16
-64
-128
-128
-144
-240
-752
-1040
-544
-192
32
224
384
432
464
496
688
640
176
48
-16
-64
-128
-128
-128
-240
-736
-1040
-560
-208
16
208
384
432
464
496
688
672
192
48
-16
-64
-112
-128
-128
-224
-720
-1056
-592
-224
0
192
384
416
448
496
672
672
208
48
-16
-64
-112
-128
-144
-224
-704
-1072
-624
-240
0
176
384
416
464
496
672
688
224
48
-16
-64
-128
-128
-144
-208
-688
-1072
-640
-240
-16
176
368
416
464
480
656
704
224
64
0
-48
-112
-128
-144
-208
-672
-1072
-656
-256
-32
160
368
416
448
480
656
704
240
48
0
-48
-112
-128
-144
-208
-640
-1072
-688
-272
-48
144
352
400
448
464
640
720
256
64
0
-48
-112
-128
-128
-192
-624
-1072
-704
-288
-48
128
352
400
448
464
640
720
272
64
0
-48
-112
-128
-128
-192
-608
-1072
-736
-304
-64
128
336
384
448
464
624
720
288
64
0
-48
-112
-128
-144
-176
-592
-1072
-752
-304
-64
128
336
400
448
448
624
720
288
64
0
-48
-112
-128
-144
-192
-576
-1072
-752
-304
-64
128
336
400
448
464
624
736
304
64
0
-48
-112
-128
-144
-176
-544
-1056
-768
-320
-80
112
336
400
448
448
608
736
320
64
0
-48
-112
-128
-144
-176
-528
-1056
-800
-320
-96
96
320
384
448
448
608
752
352
80
16
-32
-112
-128
-128
-160
-512
-1040
-832
-336
-96
96
320
384
448
448
592
752
368
80
16
-32
-112
-128
-144
-160
-496
-1040
-832
-352
-96
96
320
400
448
448
592
752
368
80
16
-32
-112
-128
-144
-160
-480
-1024
-848
-352
-96
96
320
400
464
464
592
752
400
80
16
-32
-112
-128
-144
-160
-464
-1024
-864
-352
-96
112
336
416
464
464
592
768
416
80
16
-32
-96
-128
-128
-160
-448
-1008
-880
-352
-96
112
320
416
464
464
592
768
432
96
16
-32
-96
-128
-128
-144
-416
-992
-896
-368
-112
96
304
416
464
464
576
768
448
96
32
-32
-96
-128
-128
-144
-416
-976
-928
-384
-128
80
288
400
448
448
560
752
464
112
32
-32
-96
-128
-128
-144
-400
-960
-944
-416
-144
64
272
384
448
448
560
752
496
112
32
-32
-96
-128
-144
-144
-384
-944
-960
-416
-160
64
272
400
448
448
560
752
496
112
32
-32
-80
-128
-128
-144
-368
-944
-976
-432
-144
64
272
400
448
448
544
752
528
112
32
-16
-80
-128
-128
-144
-352
-928
-992
-448
-176
48
256
384
432
448
544
752
544
128
32
-16
-80
-128
-128
-144
-336
-912
-1008
-464
-176
48
256
384
432
448
544
736
560
128
32
-16
-80
-128
-128
-144
-320
-896
-1024
-480
-176
32
240
400
432
448
528
736
576
128
32
-16
-80
-128
-144
-144
-320
-880
-1024
-496
-208
16
224
384
432
448
528
720
592
144
32
-16
-80
-128
-128
-144
-304
-848
-1040
-512
-192
16
224
384
432
448
528
720
608
144
32
-16
-80
-128
-144
-144
-288
-832
-1056
-528
-208
16
224
384
432
448
512
720
624
160
32
-16
-80
-128
-128
-144
-272
-816
-1072
-544
-224
16
208
384
432
448
512
720
640
176
48
-16
-64
-128
-128
-144
-272
-800
-1072
-560
-224
0
208
384
432
464
512
704
656
176
48
-16
-64
-112
-128
-144
-256
-784
-1088
-576
-224
0
208
384
432
464
512
704
672
192
48
-16
-64
-128
-128
-144
-240
-752
-1072
-592
-240
0
192
384
432
464
512
704
688
208
48
-16
-64
-112
-128
-144
-240
-736
-1072
-608
-240
0
192
384
432
464
496
688
704
208
48
0
-64
-112
-128
-144
-224
-720
-1088
-624
-240
-16
176
384
432
464
496
688
704
224
64
0
-48
-112
-128
-144
-224
-688
-1088
-656
-256
-16
176
368
416
464
496
672
720
240
64
0
-48
-112
-128
-144
-208
-672
-1088
-672
-272
-32
160
368
416
464
480
672
720
240
64
0
-48
-112
-128
-144
-208
-656
-1088
-688
-272
-32
160
368
416
464
480
672
736
272
64
0
-48
-112
-128
-144
-208
-640
-1088
-720
-288
-48
144
368
416
464
480
656
752
288
64
0
-48
-112
-128
-144
-208
-624
-1088
-736
-288
-48
144
352
416
464
480
656
752
304
64
0
-48
-112
-128
-144
-192
-592
-1088
-752
-304
-64
144
352
416
464
480
640
752
304
64
0
-48
-112
-128
-144
-192
-576
-1072
-784
-320
-64
128
352
416
464
480
640
768
320
64
0
-48
-112
-128
-144
-176
-544
-1056
-768
-304
-64
128
336
416
464
480
624
768
352
80
0
-48
-112
-128
-144
-176
-544
-1056
-816
-320
-80
128
352
416
464
480
624
768
368
80
16
-48
-112
-128
-144
-176
-512
-1056
-832
-336
-96
112
336
416
464
464
608
768
368
80
16
-32
-112
-128
-144
-160
-496
-1040
-848
-352
-96
112
336
400
464
464
608
768
400
80
16
-32
-112
-128
-144
-160
-480
-1024
-864
-352
-112
96
320
400
464
464
592
768
416
80
0
-48
-112
-128
-144
-160
-464
-1024
-880
-368
-112
96
320
400
464
464
592
768
432
80
16
-48
-112
-128
-144
-160
-448
-1008
-912
-384
-128
80
304
400
464
464
592
768
448
80
16
-32
-96
-128
-144
-160
-432
-992
-928
-384
-128
80
304
400
464
464
592
784
464
96
16
-32
-96
-128
-144
-160
-416
-976
-928
-400
-128
80
304
400
464
464
576
768
480
96
16
-32
-96
-128
-144
-160
-400
-960
-960
-416
-144
64
288
400
464
464
576
768
512
112
32
-32
-96
-128
-144
-144
-384
-944
-960
-416
-144
64
288
400
448
464
560
768
528
112
32
-32
-96
-128
-144
-144
-368
-928
-976
-448
-160
48
272
400
464
464
560
768
544
112
32
-32
-96
-128
-144
-144
-352
-912
-992
-448
-160
64
272
400
464
464
560
768
560
128
32
-32
-96
-128
-144
-144
-336
-896
-1008
-464
-176
48
272
400
464
480
560
752
576
128
32
-32
-80
-128
-144
-144
-320
-880
-1024
-480
-176
48
256
400
448
464
544
752
608
144
32
-32
-80
-128
-144
-144
-320
-864
-1040
-496
-192
32
256
400
448
464
544
752
624
160
48
-16
-80
-128
-144
-144
-304
-848
-1056
-512
-192
32
240
400
448
464
528
736
640
160
48
-16
-80
-128
-128
-144
-288
-832
-1056
-528
-208
32
240
400
448
480
528
736
656
176
48
-16
-64
-128
-128
-144
-272
-816
-1072
-544
-208
16
224
400
448
480
528
736
672
176
48
-16
-64
-128
-128
-144
-272
-800
-1072
-576
-224
16
224
400
448
480
528
736
688
192
48
-16
-64
-128
-128
-144
-256
-784
-1088
-592
-224
0
208
384
432
464
512
704
688
192
48
-16
-64
-128
-128
-144
-240
-752
-1088
-608
-240
0
192
384
432
480
512
704
704
224
48
-16
-64
-128
-128
-144
-240
-736
-1088
-624
-256
-16
192
384
432
480
512
704
720
224
64
0
-64
-112
-128
-144
-224
-720
-1088
-640
-240
-16
192
384
432
480
512
704
736
240
64
0
-48
-112
-128
-144
-224
-688
-1088
-656
-256
-16
176
384
432
480
496
688
736
256
64
0
-48
-112
-128
-144
-208
-672
-1072
-672
-272
-16
176
384
432
480
496
672
752
272
64
0
-48
-112
-128
-144
-208
-656
-1088
-704
-272
-32
160
368
432
480
496
672
752
288
64
0
-48
-112
-128
-144
-192
-624
-1072
-720
-288
-48
160
368
432
480
496
672
768
304
64
0
-48
-112
-128
-144
-192
-608
-1072
-736
-288
-48
144
368
432
480
480
656
768
304
80
0
-48
-112
-128
-144
-192
-592
-1072
-752
-288
-48
144
352
416
464
480
640
768
320
64
0
-48
-112
-128
-144
-176
-576
-1072
-768
-304
-64
128
352
416
480
480
640
784
352
80
0
-48
-112
-128
-144
-176
-544
-1056
-800
-320
-64
128
352
416
464
480
624
784
368
80
16
-48
-112
-128
-128
-176
-528
-1040
-800
-304
-48
128
336
416
480
480
624
784
368
80
16
-32
-112
-128
-128
-160
-512
-1040
-816
-320
-64
128
336
416
464
464
608
784
400
80
16
-32
-96
-128
-128
-160
-496
-1040
-864
-352
-96
112
320
416
464
464
608
784
416
96
16
-32
-96
-128
-144
-160
-480
-1024
-880
-352
-96
96
320
416
464
464
608
784
432
96
16
-32
-96
-128
-144
-160
-464
-1008
-880
-352
-96
96
320
416
464
464
592
784
448
96
16
-32
-96
-128
-144
-160
-448
-1008
-912
-384
-112
96
304
400
448
464
576
784
480
96
16
-32
-96
-128
-144
-160
-432
-992
-944
-400
-128
80
288
400
464
464
576
768
480
96
16
-32
-96
-128
-144
-160
-416
-992
-960
-416
-144
80
288
400
448
464
576
768
496
112
32
-32
-96
-128
-144
-144
-400
-976
-976
-432
-160
64
272
384
448
448
560
768
512
112
32
-32
-96
-128
-144
-160
-384
-960
-992
-448
-176
48
256
384
432
448
544
752
528
112
16
-32
-96
-128
-144
-144
-368
-944
-992
-448
-176
48
256
384
448
448
544
752
560
112
32
-32
-80
-128
-144
-144
-352
-928
-1024
-480
-176
32
256
384
432
448
544
752
576
128
32
-32
-80
-128
-144
-144
-336
-912
-1024
-480
-176
32
240
384
432
448
528
736
576
128
32
-16
-80
-128
-144
-144
-336
-896
-1040
-496
-192
32
224
368
416
432
512
720
592
144
32
-32
-80
-128
-144
-144
-320
-896
-1072
-544
-224
16
224
384
432
448
512
720
624
144
32
-32
-80
-128
-144
-144
-304
-864
-1088
-544
-224
0
208
368
416
448
512
720
640
160
32
-32
-80
-128
-144
-144
-288
-848
-1088
-576
-240
-16
208
368
416
448
496
704
640
176
48
-16
-80
-128
-144
-144
-272
-832
-1104
-608
-272
-32
192
368
416
448
496
688
656
176
48
-16
-64
-128
-144
-144
-272
-816
-1104
-608
-272
-32
192
368
416
448
480
688
672
192
48
-16
-64
-128
-144
-144
-256
-784
-1120
-640
-272
-32
176
368
416
448
480
672
672
192
48
-16
-64
-128
-144
-144
-256
-768
-1120
-656
-288
-48
160
352
400
448
480
672
688
208
48
-16
-64
-128
-128
-144
-240
-752
-1136
-672
-288
-48
160
352
400
432
464
656
704
224
48
-16
-64
-128
-128
-144
-240
-736
-1136
-704
-304
-64
144
336
400
432
464
656
704
240
48
-16
-64
-128
-144
-144
-224
-720
-1152
-720
-320
-64
128
336
400
432
448
640
720
256
48
-16
-64
-128
-144
-144
-224
-688
-1136
-752
-336
-80
128
336
384
432
448
624
720
256
64
-16
-64
-128
-144
-144
-208
-672
-1152
-768
-336
-96
112
320
384
432
448
624
736
272
64
0
-64
-128
-144
-144
-208
-656
-1136
-784
-336
-96
112
320
384
432
432
608
736
288
64
0
-64
-128
-144
-160
-208
-624
-1136
-800
-352
-112
96
320
384
432
432
608
736
304
64
0
-48
-128
-144
-160
-192
-608
-1136
-832
-352
-112
96
304
384
432
432
592
736
320
64
0
-48
-128
-144
-160
-192
-592
-1120
-848
-368
-128
80
304
384
432
432
592
752
336
64
-16
-64
-128
-144
-160
-192
-576
-1120
-864
-384
-128
80
304
368
432
432
592
752
352
64
0
-48
-128
-144
-160
-192
-544
-1104
-896
-400
-128
80
304
384
432
432
576
752
368
64
0
-48
-112
-144
-160
-176
-528
-1104
-896
-400
-128
64
288
368
432
432
576
752
384
80
0
-48
-112
-144
-160
-176
-512
-1088
-928
-416
-144
64
288
368
432
432
560
752
400
80
0
-48
-112
-144
-160
-176
-496
-1072
-944
-416
-160
48
272
368
432
432
560
752
416
80
0
-48
-112
-144
-144
-176
-464
-1056
-960
-432
-160
48
272
368
432
416
544
752
448
80
16
-48
-112
-144
-160
-176
-448
-1056
-992
-448
-176
32
256
368
432
432
544
752
464
96
16
-48
-112
-144
-144
-176
-432
-1040
-1008
-464
-176
32
256
368
416
432
544
752
480
96
16
-32
-96
-144
-144
-160
-416
-1008
-1024
-464
-192
32
240
368
416
432
528
736
496
96
16
-32
-96
-128
-144
-160
-400
-992
-1040
-480
-192
16
240
368
416
432
528
736
512
112
16
-32
-96
-144
-144
-160
-368
-976
-1040
-496
-208
16
240
368
416
432
528
736
544
128
32
-32
-96
-128
-144
-144
-352
-960
-1072
-512
-208
16
224
368
416
432
512
720
560
128
32
-32
-80
-128
-144
-144
-352
-944
-1088
-528
-224
0
224
368
416
432
512
720
560
128
32
-32
-80
-128
-144
-144
-336
-928
-1088
-544
-240
0
208
368
416
432
512
720
592
128
32
-32
-80
-128
-144
-144
-320
-896
-1104
-560
-240
-16
208
368
416
432
496
704
592
144
32
-32
-80
-144
-144
-160
-304
-880
-1104
-576
-256
-16
192
368
416
432
496
704
608
144
32
-32
-80
-128
-144
-160
-304
-864
-1120
-576
-256
-16
192
352
416
432
496
688
624
160
32
-16
-80
-128
-144
-160
-288
-848
-1136
-608
-256
-32
176
352
400
432
480
688
640
176
32
-16
-80
-128
-144
-160
-272
-816
-1136
-624
-272
-32
176
352
400
432
480
688
656
176
48
-16
-80
-128
-144
-160
-272
-800
-1136
-640
-272
-32
160
352
400
432
480
672
672
192
32
-32
-80
-144
-144
-160
-256
-768
-1136
-656
-288
-48
160
352
400
432
464
672
672
208
48
-16
-64
-128
-144
-160
-240
-752
-1136
-672
-288
-48
144
352
400
432
464
656
688
208
48
-16
-64
-128
-144
-160
-240
-736
-1152
-704
-304
-64
144
336
384
432
464
656
704
224
48
-16
-64
-128
-144
-160
-224
-704
-1152
-720
-320
-64
128
336
400
432
464
640
720
240
48
-16
-64
-128
-144
-144
-224
-688
-1152
-752
-320
-64
128
336
400
448
464
640
720
256
64
-16
-64
-128
-144
-144
-208
-656
-1136
-752
-320
-64
128
336
400
448
464
640
736
272
64
-16
-64
-128
-144
-144
-208
-640
-1136
-784
-336
-80
112
336
400
448
448
624
736
288
64
0
-48
-112
-144
-144
-192
-608
-1152
-816
-336
-96
112
336
400
448
448
624
752
304
64
0
-48
-128
-144
-144
-192
-592
-1136
-832
-352
-96
112
336
400
448
448
608
752
320
64
0
-48
-112
-144
-144
-192
-576
-1120
-848
-368
-112
96
320
400
448
448
608
752
336
64
0
-48
-128
-144
-160
-192
-560
-1120
-864
-368
-112
96
304
384
432
448
592
752
352
64
0
-48
-112
-144
-160
-192
-528
-1120
-896
-384
-128
80
304
384
448
448
592
752
368
80
0
-48
-112
-144
-160
-176
-512
-1104
-912
-384
-128
80
304
400
448
448
592
768
384
80
0
-48
-112
-144
-160
-176
-496
-1088
-928
-400
-144
64
304
400
448
448
592
768
400
80
16
-48
-112
-144
-144
-176
-464
-1072
-944
-416
-144
64
288
384
448
448
576
768
432
80
0
-48
-112
-144
-144
-176
-448
-1056
-960
-416
-144
64
288
384
448
448
560
752
432
80
16
-48
-112
-144
-144
-160
-432
-1040
-976
-432
-160
64
272
384
448
448
560
768
464
96
16
-32
-96
-144
-144
-160
-416
-1008
-992
-448
-160
48
272
384
448
448
560
768
480
96
16
-32
-96
-144
-160
-160
-400
-992
-992
-432
-160
48
272
384
448
448
560
752
496
96
16
-32
-96
-144
-144
-160
-384
-976
-1024
-464
-176
48
256
384
448
448
544
752
512
112
32
-32
-96
-128
-144
-160
-368
-976
-1056
-496
-208
16
240
384
432
448
544
752
544
112
32
-32
-96
-128
-144
-160
-352
-960
-1072
-512
-208
16
240
384
432
448
544
752
560
128
32
-32
-96
-144
-144
-160
-336
-928
-1072
-512
-208
16
224
384
432
448
528
736
560
128
16
-32
-96
-144
-144
-160
-320
-912
-1088
-528
-208
16
224
384
432
448
512
736
592
144
32
-32
-80
-128
-144
-144
-304
-896
-1088
-544
-224
16
224
384
432
448
512
720
608
144
32
-32
-80
-144
-144
-160
-304
-880
-1120
-576
-240
0
208
368
416
432
496
704
608
144
32
-32
-80
-144
-144
-160
-288
-848
-1120
-592
-256
-16
192
368
416
448
496
704
624
160
32
-32
-80
-144
-144
-160
-272
-832
-1136
-608
-272
-32
176
368
416
448
496
704
640
176
32
-16
-80
-144
-144
-160
-272
-800
-1152
-640
-272
-32
176
368
416
448
496
688
656
192
48
-16
-80
-144
-144
-160
-256
-784
-1152
-656
-272
-32
160
368
416
448
480
688
672
192
32
-32
-80
-144
-160
-160
-256
-768
-1152
-672
-288
-48
160
352
416
448
480
672
688
208
32
-32
-80
-144
-160
-160
-240
-752
-1168
-704
-304
-48
144
352
416
448
480
672
704
224
48
-16
-64
-144
-144
-160
-240
-720
-1168
-720
-304
-48
144
352
416
448
480
672
704
240
48
-16
-80
-144
-160
-160
-224
-688
-1168
-736
-320
-64
144
352
416
448
480
656
720
240
48
-16
-64
-128
-144
-160
-224
-672
-1152
-752
-320
-64
128
352
416
448
464
656
720
256
48
-16
-64
-128
-144
-160
-208
-640
-1152
-784
-320
-80
128
352
416
448
464
640
736
272
64
-16
-64
-128
-144
-160
-208
-624
-1152
-784
-336
-80
112
352
416
464
480
640
736
288
64
0
-64
-128
-144
-160
-208
-608
-1136
-816
-336
-64
128
352
432
480
480
640
752
304
48
-16
-64
-144
-160
-160
-208
-592
-1136
-816
-336
-80
128
352
432
480
480
640
752
320
64
-16
-64
-128
-160
-160
-192
-560
-1120
-848
-352
-80
112
352
416
480
480
624
752
352
64
0
-48
-112
-144
-144
-176
-544
-1120
-880
-368
-112
80
320
400
448
448
608
768
352
80
0
-48
-128
-144
-160
-176
-512
-1104
-896
-384
-112
80
304
400
448
448
608
768
384
80
0
-48
-112
-144
-144
-176
-496
-1088
-912
-400
-128
80
304
400
448
448
592
768
400
80
16
-48
-112
-144
-144
-176
-464
-1072
-928
-400
-144
80
304
400
448
464
592
768
416
80
16
-48
-112
-144
-144
-176
-464
-1056
-960
-416
-144
64
288
400
448
448
592
768
432
96
16
-48
-112
-144
-160
-160
-432
-1040
-976
-432
-144
64
288
400
448
464
576
768
448
96
16
-32
-112
-144
-144
-160
-416
-1024
-976
-432
-144
64
288
416
464
464
592
768
464
96
16
-48
-112
-144
-160
-176
-416
-1024
-1008
-448
-144
80
304
416
480
480
576
768
496
96
16
-48
-112
-144
-160
-160
-384
-1008
-1024
-448
-144
64
288
416
480
480
576
768
512
112
16
-48
-112
-160
-160
-176
-384
-992
-1056
-480
-160
64
288
416
464
480
560
752
528
112
16
-48
-112
-160
-176
-176
-368
-976
-1072
-496
-176
64
288
416
480
480
560
752
528
96
0
-64
-128
-176
-176
-192
-368
-960
-1088
-512
-176
48
272
432
464
480
560
752
560
112
16
-48
-112
-160
-176
-176
-336
-928
-1088
-512
-192
48
272
416
464
480
544
736
576
128
16
-48
-112
-160
-160
-176
-320
-896
-1104
-528
-192
32
240
416
464
464
544
736
592
144
16
-32
-96
-144
-160
-160
-304
-880
-1104
-560
-224
16
224
400
448
464
528
736
608
144
32
-32
-96
-144
-160
-160
-304
-864
-1120
-592
-256
-16
192
368
432
448
512
720
640
160
32
-32
-80
-144
-160
-160
-288
-832
-1136
-640
-288
-48
160
336
400
432
496
704
656
176
48
-16
-80
-144
-144
-160
-272
-816
-1168
-688
-336
-96
112
304
368
416
480
704
672
192
48
-16
-80
-144
-144
-160
-256
-784
-1168
-736
-384
-160
48
256
336
384
448
688
688
208
64
0
-48
-128
-128
-144
-240
-752
-1184
-800
-448
-224
-32
208
288
352
432
672
720
240
80
16
-32
-112
-128
-144
-224
-720
-1184
-848
-512
-304
-112
128
224
304
400
656
752
272
96
32
-16
-80
-112
-128
-208
-672
-1152
-896
-576
-368
-192
64
176
272
384
672
800
304
128
64
16
-64
-80
-112
-192
-592
-1104
-912
-608
-400
-224
32
160
272
400
688
848
352
144
80
32
-48
-64
-96
-176
-544
-1040
-896
-608
-400
-208
32
160
288
400
704
880
384
144
96
48
-32
-64
-96
-160
-496
-1008
-896
-592
-384
-208
48
176
304
432
704
896
400
144
96
48
-32
-64
-96
-160
-480
-976
-880
-576
-352
-192
64
208
336
448
720
912
432
160
96
48
-32
-64
-96
-144
-464
-944
-864
-544
-336
-160
96
224
352
448
720
912
448
144
80
32
-32
-80
-96
-144
-448
-944
-864
-528
-320
-144
112
256
384
464
720
928
448
144
80
32
-48
-80
-112
-160
-448
-912
-848
-496
-288
-112
144
288
400
480
720
928
464
144
80
32
-48
-80
-112
-160
-448
-912
-832
-480
-256
-96
144
304
416
496
736
944
496
128
64
16
-48
-96
-112
-160
-448
-912
-848
-464
-256
-80
160
320
432
512
752
960
512
128
64
16
-48
-96
-128
-160
-448
-928
-848
-464
-240
-64
176
336
448
528
736
944
512
128
48
0
-64
-112
-128
-160
-480
-944
-848
-416
-192
0
240
384
480
528
720
928
528
128
64
0
-64
-96
-128
-160
-432
-896
-896
-496
-272
-112
128
272
384
464
656
912
560
144
64
16
-48
-96
-112
-144
-416
-896
-896
-480
-240
-64
176
336
432
496
672
896
560
128
48
0
-64
-112
-128
-160
-432
-912
-880
-432
-208
-16
208
368
464
512
688
896
560
128
32
-16
-80
-128
-144
-160
-432
-912
-880
-416
-176
32
240
400
480
528
672
896
576
128
32
-16
-80
-128
-144
-160
-416
-912
-896
-416
-176
48
256
416
480
528
656
880
592
128
32
-16
-80
-128
-144
-160
-400
-880
-912
-432
-176
16
224
368
448
480
624
848
624
144
48
0
-64
-112
-128
-144
-368
-832
-944
-528
-288
-96
96
272
352
416
560
832
672
176
64
16
-48
-96
-128
-144
-352
-800
-960
-544
-304
-112
80
256
352
416
560
832
688
176
64
0
-48
-112
-128
-144
-352
-816
-960
-544
-288
-80
96
288
368
432
560
832
688
176
48
-16
-64
-128
-144
-160
-368
-848
-960
-480
-176
48
240
416
496
528
624
848
688
160
16
-48
-112
-160
-176
-176
-384
-896
-944
-352
-16
224
400
544
592
592
656
832
688
160
16
-32
-96
-144
-160
-160
-352
-848
-976
-480
-176
32
208
368
432
464
560
784
736
208
48
0
-64
-112
-128
-144
-304
-768
-992
-592
-304
-112
48
256
336
400
512
768
768
224
64
0
-48
-112
-144
-160
-304
-768
-992
-560
-256
-32
160
352
432
480
544
784
752
208
32
-32
-80
-144
-160
-176
-320
-800
-992
-528
-192
32
208
400
464
496
560
784
768
224
32
-32
-64
-128
-144
-160
-304
-768
-1008
-592
-288
-64
96
288
368
432
512
736
784
256
48
0
-48
-112
-128
-144
-272
-704
-992
-640
-320
-96
80
288
384
448
528
752
800
256
48
-16
-64
-144
-160
-160
-288
-768
-992
-544
-144
112
304
496
560
592
624
800
800
240
16
-48
-96
-160
-160
-176
-288
-800
-1008
-512
-112
144
320
496
560
592
624
816
832
288
48
-16
-64
-128
-144
-160
-256
-720
-976
-608
-256
-32
144
336
432
512
576
816
912
368
80
32
-16
-80
-96
-112
-192
-528
-864
-608
-288
-96
64
288
432
544
656
912
1008
432
112
48
16
-64
-96
-112
-224
-624
-880
-576
-224
-16
160
384
512
608
704
928
1008
432
96
32
-16
-80
-112
-128
-224
-640
-912
-576
-192
16
192
400
512
608
672
896
992
448
96
32
-16
-80
-112
-128
-224
-640
-928
-624
-240
-16
144
352
464
560
624
848
976
464
96
32
-16
-80
-112
-128
-208
-624
-944
-656
-256
-32
144
352
464
560
624
832
992
480
96
32
-16
-80
-112
-128
-208
-608
-928
-656
-240
-16
144
352
464
560
624
832
992
512
112
32
0
-64
-96
-112
-192
-560
-912
-688
-288
-80
80
272
400
496
560
768
976
544
128
48
0
-64
-96
-128
-192
-592
-960
-768
-352
-144
32
240
352
448
496
688
912
512
112
32
-16
-80
-128
-144
-208
-608
-1024
-784
-336
-96
80
288
400
464
480
640
880
496
80
0
-48
-112
-144
-160
-208
-640
-1088
-848
-368
-112
64
272
368
416
416
560
800
464
64
-16
-64
-128
-160
-176
-224
-656
-1168
-960
-448
-192
-16
176
272
320
320
448
704
448
64
-16
-64
-128
-160
-176
-224
-624
-1184
-1056
-560
-288
-112
64
176
224
224
368
656
464
80
0
-64
-112
-160
-176
-208
-576
-1136
-1104
-656
-384
-192
0
112
160
176
320
640
496
80
-16
-64
-112
-160
-176
-208
-560
-1136
-1120
-640
-368
-160
32
160
192
208
320
624
480
64
-32
-80
-144
-192
-192
-224
-560
-1184
-1120
-576
-256
-64
128
256
272
256
352
624
464
48
-48
-112
-160
-208
-208
-240
-560
-1184
-1136
-560
-240
-32
144
272
288
256
336
608
496
64
-32
-96
-144
-192
-192
-224
-512
-1120
-1152
-640
-352
-144
32
160
192
192
272
576
528
96
-16
-64
-128
-176
-176
-208
-480
-1056
-1168
-688
-400
-176
16
144
176
192
272
576
560
96
-16
-80
-128
-176
-192
-208
-464
-1056
-1168
-656
-336
-128
48
208
224
240
304
576
560
96
-32
-96
-144
-192
-208
-224
-464
-1056
-1168
-624
-288
-80
96
240
256
256
320
592
576
96
-32
-96
-144
-192
-192
-208
-432
-1008
-1168
-656
-336
-128
32
192
224
240
304
592
608
128
-16
-64
-128
-176
-176
-208
-416
-960
-1152
-688
-368
-144
16
192
224
256
320
592
640
144
-16
-80
-128
-176
-192
-208
-400
-944
-1152
-672
-336
-112
64
224
272
288
336
608
656
160
-16
-64
-128
-176
-192
-208
-384
-912
-1136
-672
-320
-96
64
240
288
304
352
624
688
176
0
-64
-112
-176
-176
-192
-352
-864
-1120
-672
-320
-96
64
240
288
320
368
640
720
208
0
-64
-112
-160
-176
-192
-336
-832
-1088
-656
-304
-80
80
272
320
352
400
656
752
224
16
-48
-96
-160
-160
-176
-320
-784
-1056
-656
-304
-80
80
272
336
384
448
704
816
272
32
-32
-80
-128
-144
-160
-288
-688
-992
-640
-272
-48
96
304
384
448
528
784
896
320
48
-16
-64
-128
-144
-160
-288
-688
-960
-576
-208
16
192
384
464
512
560
816
928
336
48
-16
-64
-112
-128
-160
-272
-672
-944
-592
-208
0
176
368
448
512
576
816
960
384
64
0
-48
-112
-128
-144
-256
-624
-928
-592
-224
-16
160
352
448
512
560
816
960
416
80
0
-32
-96
-128
-144
-240
-608
-912
-592
-192
16
192
368
480
560
608
848
992
432
80
0
-32
-96
-128
-144
-224
-592
-896
-592
-192
32
208
400
496
560
608
848
1008
464
80
16
-32
-96
-112
-128
-224
-576
-896
-608
-192
16
192
384
480
560
608
832
1024
496
96
16
-16
-80
-112
-128
-208
-544
-880
-640
-240
-16
144
336
448
512
560
784
1008
528
96
16
-16
-80
-112
-128
-208
-528
-880
-672
-256
-32
144
336
448
528
576
784
1008
544
96
16
-32
-96
-128
-144
-208
-544
-912
-672
-192
48
224
400
512
576
592
784
1008
544
96
0
-48
-96
-128
-144
-208
-544
-912
-688
-208
16
192
384
480
544
576
752
1008
576
112
16
-16
-80
-112
-128
-192
-496
-896
-736
-272
-48
128
304
416
496
528
704
992
608
128
32
-16
-80
-112
-128
-176
-480
-896
-752
-288
-64
112
304
416
496
528
704
976
640
128
32
-16
-80
-112
-144
-192
-480
-896
-784
-304
-64
112
288
416
480
512
672
976
656
144
32
-16
-80
-112
-128
-176
-464
-880
-800
-320
-64
128
304
432
496
528
688
976
672
144
32
-16
-80
-128
-144
-176
-464
-896
-800
-304
-48
144
320
448
512
528
672
960
688
144
32
-32
-80
-112
-128
-160
-448
-896
-832
-336
-64
128
304
432
480
512
640
944
704
160
32
-16
-80
-112
-128
-160
-432
-880
-848
-368
-96
96
256
400
464
496
624
928
736
176
32
-16
-64
-112
-128
-160
-400
-864
-880
-384
-128
80
256
384
448
480
592
912
752
192
32
-16
-64
-112
-128
-160
-400
-864
-912
-416
-144
64
240
384
432
464
576
896
768
192
32
-16
-64
-112
-128
-160
-384
-864
-928
-432
-128
64
240
384
432
464
560
880
784
208
32
-16
-80
-128
-128
-160
-384
-880
-944
-432
-128
80
256
400
448
464
560
864
784
208
32
-16
-64
-112
-128
-160
-368
-864
-960
-464
-160
48
224
368
416
448
528
832
800
224
32
-16
-64
-112
-128
-144
-352
-848
-976
-496
-192
0
176
336
384
416
496
800
816
256
48
-16
-64
-112
-128
-144
-336
-816
-992
-544
-240
-32
128
288
352
384
464
768
816
256
48
-16
-64
-112
-128
-160
-336
-832
-1008
-560
-224
0
176
336
384
416
480
768
832
256
32
-32
-80
-128
-144
-160
-336
-832
-1008
-544
-176
32
208
352
400
432
480
752
832
272
32
-16
-64
-128
-128
-160
-320
-832
-1040
-592
-240
-16
144
304
352
384
448
720
848
304
48
-16
-64
-112
-128
-144
-288
-784
-1024
-624
-272
-64
112
288
336
368
416
704
848
320
48
-16
-64
-112
-128
-144
-288
-784
-1040
-640
-256
-32
128
304
352
400
432
704
864
336
48
-16
-64
-128
-144
-144
-288
-768
-1040
-656
-272
-48
112
288
336
384
416
672
864
368
64
0
-48
-112
-128
-144
-272
-736
-1040
-688
-304
-80
80
256
320
368
400
656
880
384
64
0
-48
-112
-128
-144
-256
-704
-1040
-704
-288
-64
96
288
352
384
416
672
880
400
64
-16
-64
-112
-128
-144
-256
-704
-1040
-688
-256
-32
144
320
384
416
448
672
896
416
64
-16
-48
-112
-128
-144
-240
-688
-1040
-720
-288
-64
112
288
352
384
416
640
896
464
80
0
-32
-96
-112
-128
-224
-656
-1024
-752
-336
-112
48
240
320
368
400
624
896
480
80
0
-32
-96
-112
-128
-224
-640
-1024
-784
-320
-96
80
272
352
384
416
624
912
512
96
0
-48
-96
-128
-144
-224
-624
-1024
-784
-336
-96
64
256
352
400
416
624
928
544
96
16
-32
-96
-112
-128
-208
-592
-1008
-816
-352
-112
48
224
320
368
400
592
912
560
112
16
-32
-96
-112
-128
-208
-592
-1024
-832
-352
-112
64
256
352
400
416
608
912
576
112
16
-32
-96
-128
-144
-208
-592
-1024
-848
-368
-128
32
208
304
352
384
560
880
592
128
16
-32
-80
-112
-128
-192
-576
-1024
-896
-432
-176
0
176
288
352
368
544
880
608
112
16
-32
-96
-128
-144
-208
-576
-1056
-896
-384
-112
80
272
368
416
432
576
880
608
112
0
-64
-112
-144
-160
-208
-576
-1072
-912
-368
-96
96
272
368
416
432
560
880
640
128
16
-48
-96
-128
-144
-192
-528
-1024
-944
-464
-192
-16
144
272
320
352
512
864
688
160
32
-16
-80
-112
-128
-176
-496
-976
-960
-480
-224
-48
128
256
320
368
512
864
704
176
32
-32
-80
-128
-128
-176
-480
-976
-960
-464
-192
0
176
304
352
384
512
848
720
176
16
-32
-80
-128
-144
-176
-480
-976
-960
-448
-160
32
208
336
384
416
528
864
736
176
16
-48
-96
-144
-144
-192
-480
-1008
-992
-432
-112
96
272
400
432
448
528
848
736
176
0
-48
-96
-144
-160
-192
-464
-1008
-1024
-480
-160
48
208
336
368
368
464
800
752
192
16
-48
-96
-128
-144
-176
-432
-960
-1072
-592
-288
-96
64
224
256
288
384
736
768
224
32
-32
-80
-128
-144
-176
-400
-928
-1088
-624
-288
-80
80
240
272
304
384
720
768
208
16
-48
-96
-144
-160
-176
-416
-976
-1104
-592
-240
-16
160
304
336
336
400
704
752
208
0
-64
-112
-160
-160
-192
-416
-992
-1136
-624
-256
-32
128
272
288
304
352
656
752
224
16
-48
-96
-160
-160
-192
-400
-976
-1168
-688
-336
-112
48
208
240
256
304
608
736
224
16
-48
-112
-160
-160
-192
-384
-944
-1184
-720
-320
-96
80
240
272
288
320
624
752
240
0
-64
-112
-160
-176
-192
-368
-928
-1184
-704
-304
-80
96
256
288
304
336
624
784
272
16
-48
-96
-144
-160
-176
-336
-880
-1168
-736
-352
-128
32
208
240
272
320
608
816
304
32
-32
-80
-144
-144
-176
-320
-832
-1136
-752
-352
-112
48
224
272
320
352
624
832
336
32
-32
-80
-144
-160
-176
-320
-832
-1136
-720
-288
-32
144
304
352
384
400
656
864
336
32
-48
-96
-144
-160
-176
-304
-800
-1120
-720
-288
-48
112
288
336
368
400
640
880
384
48
-32
-64
-128
-144
-160
-272
-736
-1088
-752
-320
-96
64
240
304
336
384
624
880
416
64
-16
-64
-112
-144
-160
-272
-704
-1072
-768
-320
-96
64
256
336
368
400
640
896
448
64
-16
-64
-128
-144
-160
-256
-688
-1072
-768
-304
-48
112
288
352
400
416
640
896
448
64
-16
-64
-128
-144
-160
-256
-672
-1056
-784
-320
-80
96
272
352
384
400
624
912
496
80
0
-48
-112
-144
-144
-240
-624
-1024
-800
-336
-112
64
240
336
384
400
624
928
528
80
0
-48
-112
-128
-144
-224
-608
-1024
-800
-336
-80
96
272
368
416
432
640
944
560
96
0
-48
-112
-144
-160
-224
-608
-1024
-816
-320
-80
96
288
368
416
432
608
928
576
96
0
-48
-96
-128
-144
-208
-576
-1008
-848
-352
-112
64
256
352
400
416
608
928
608
112
0
-48
-96
-128
-144
-208
-560
-1008
-864
-368
-128
64
256
352
384
416
576
912
608
112
0
-48
-96
-128
-144
-208
-544
-1008
-896
-384
-128
48
224
336
384
416
576
896
624
112
0
-48
-112
-144
-144
-208
-528
-992
-896
-400
-144
48
224
336
384
400
544
880
656
128
0
-48
-96
-144
-144
-192
-512
-992
-912
-400
-144
64
240
352
400
432
576
896
672
144
0
-48
-96
-144
-144
-192
-496
-992
-928
-416
-144
64
240
352
400
432
560
880
704
144
16
-32
-96
-128
-144
-192
-480
-976
-944
-448
-176
16
192
320
368
400
528
864
720
176
16
-32
-80
-128
-144
-176
-448
-944
-960
-464
-192
16
176
320
368
400
512
848
736
176
16
-32
-80
-128
-144
-176
-448
-960
-976
-448
-160
48
224
352
400
432
528
864
752
176
16
-48
-96
-144
-144
-192
-432
-960
-992
-464
-144
64
240
368
400
432
528
848
768
192
16
-48
-80
-128
-144
-176
-416
-928
-992
-480
-160
48
224
352
400
416
512
832
800
208
32
-32
-80
-128
-144
-176
-400
-912
-1008
-512
-192
16
176
336
368
400
480
800
816
240
32
-32
-80
-128
-128
-160
-368
-880
-1024
-560
-240
-32
128
272
320
352
432
768
832
256
48
-16
-64
-112
-128
-160
-352
-864
-1040
-608
-288
-64
96
256
320
352
432
752
832
256
32
-32
-80
-128
-144
-160
-352
-864
-1056
-592
-224
-16
160
320
352
384
432
736
816
256
16
-48
-80
-144
-144
-176
-352
-896
-1088
-592
-192
32
192
352
384
400
432
720
816
272
16
-48
-80
-144
-160
-176
-352
-896
-1120
-640
-256
-32
144
288
320
336
368
656
800
272
16
-48
-96
-144
-160
-176
-336
-896
-1152
-704
-304
-64
96
256
272
288
304
576
768
288
16
-48
-96
-144
-160
-176
-320
-848
-1184
-784
-400
-176
-32
128
160
192
224
496
768
320
32
-32
-80
-128
-144
-160
-288
-784
-1168
-880
-512
-288
-128
64
96
144
192
480
768
336
32
-32
-80
-144
-160
-176
-304
-800
-1184
-816
-384
-128
64
240
288
320
320
560
768
304
0
-80
-128
-192
-192
-208
-320
-864
-1232
-736
-208
64
256
416
448
448
432
624
816
320
0
-80
-128
-176
-192
-192
-288
-800
-1184
-768
-288
-32
128
304
336
368
368
592
848
384
32
-32
-80
-144
-160
-176
-272
-720
-1120
-816
-368
-144
32
208
272
320
336
576
864
448
64
-16
-64
-128
-144
-160
-256
-672
-1088
-848
-400
-176
0
176
256
304
320
544
864
480
64
-16
-64
-112
-144
-160
-240
-640
-1072
-864
-416
-176
-16
176
256
304
336
560
880
496
80
-16
-64
-128
-144
-160
-224
-624
-1056
-864
-384
-144
32
224
304
352
368
560
880
512
64
-16
-64
-128
-144
-160
-224
-608
-1040
-832
-336
-80
96
272
368
416
432
608
912
544
80
-16
-64
-128
-144
-160
-224
-576
-1024
-832
-320
-64
112
288
384
416
432
608
928
592
96
0
-48
-112
-128
-144
-208
-544
-992
-848
-352
-112
64
240
352
400
432
608
944
656
128
16
-32
-80
-128
-128
-192
-496
-960
-864
-384
-128
48
224
336
384
416
576
944
672
144
16
-32
-80
-128
-128
-176
-480
-944
-864
-368
-112
80
256
384
432
464
608
944
704
144
16
-32
-96
-128
-144
-192
-480
-944
-880
-352
-80
112
288
384
448
464
608
944
720
160
16
-32
-80
-112
-128
-176
-448
-912
-880
-400
-144
48
224
336
400
448
592
928
752
176
32
-16
-64
-112
-128
-160
-432
-896
-912
-416
-144
64
240
368
432
464
592
928
768
176
16
-32
-80
-128
-128
-176
-432
-912
-896
-352
-64
144
320
448
480
496
608
928
784
192
16
-32
-80
-128
-144
-176
-432
-928
-928
-384
-96
112
272
400
448
464
560
896
800
208
32
-32
-80
-128
-128
-176
-400
-912
-960
-448
-144
64
224
368
400
416
512
848
800
208
32
-32
-80
-128
-144
-160
-400
-912
-1008
-512
-208
0
160
304
352
368
464
800
800
224
32
-16
-64
-128
-128
-160
-368
-896
-1040
-560
-256
-48
112
272
320
336
432
768
800
240
32
-32
-80
-128
-144
-176
-384
-928
-1072
-560
-224
0
176
320
352
368
416
720
784
224
16
-48
-96
-160
-160
-192
-400
-992
-1136
-624
-256
-32
128
272
304
304
336
640
752
224
16
-48
-96
-160
-160
-176
-368
-960
-1184
-704
-336
-112
48
208
224
240
288
592
752
240
16
-48
-96
-144
-160
-176
-352
-912
-1200
-768
-384
-160
-16
160
192
208
256
560
752
256
16
-48
-96
-144
-160
-176
-352
-896
-1216
-800
-416
-176
-16
160
208
224
272
560
768
272
16
-48
-96
-160
-176
-192
-336
-864
-1184
-736
-320
-80
96
272
304
336
368
640
816
288
16
-48
-96
-160
-176
-192
-336
-864
-1168
-720
-288
-48
128
304
336
368
400
656
848
320
32
-48
-80
-144
-160
-160
-288
-768
-1104
-720
-320
-96
80
256
304
352
384
640
880
368
48
-32
-64
-128
-144
-160
-288
-768
-1120
-752
-336
-96
80
256
320
352
384
640
896
400
48
-16
-64
-128
-144
-160
-272
-736
-1104
-768
-336
-112
48
224
288
336
368
624
896
432
64
-16
-48
-112
-128
-144
-256
-672
-1072
-800
-400
-176
-16
176
256
320
352
608
912
480
80
0
-48
-112
-128
-144
-240
-656
-1056
-800
-368
-128
48
240
320
368
400
624
928
496
64
-16
-64
-128
-144
-160
-240
-672
-1072
-800
-304
-64
112
304
384
416
432
656
944
496
64
-16
-64
-128
-144
-160
-240
-656
-1072
-784
-272
-16
176
352
416
464
464
656
944
528
80
-16
-64
-128
-144
-160
-224
-640
-1056
-816
-304
-64
112
304
384
416
432
640
944
576
96
0
-48
-96
-128
-144
-208
-560
-992
-864
-400
-176
-16
176
272
320
368
576
928
624
128
16
-32
-80
-112
-144
-192
-512
-960
-880
-448
-224
-48
144
256
320
368
560
912
640
128
16
-32
-96
-128
-144
-208
-528
-976
-880
-400
-144
48
240
336
400
416
576
912
624
112
0
-48
-112
-144
-160
-208
-560
-1024
-864
-320
-48
144
320
416
448
448
592
896
624
112
-16
-64
-112
-144
-160
-208
-544
-1040
-928
-384
-128
64
224
320
336
336
464
816
640
128
0
-48
-112
-144
-160
-208
-544
-1088
-1040
-528
-272
-80
80
192
208
208
320
688
592
112
-16
-64
-128
-176
-176
-224
-560
-1152
-1136
-592
-304
-96
80
192
208
192
272
624
560
80
-32
-96
-160
-192
-192
-224
-560
-1184
-1200
-640
-304
-96
80
192
192
176
240
592
560
96
-32
-96
-144
-192
-192
-224
-512
-1136
-1232
-688
-368
-144
16
144
144
144
224
576
592
112
-32
-80
-128
-176
-176
-208
-480
-1056
-1200
-704
-384
-176
0
144
176
208
304
656
656
144
-16
-64
-128
-176
-176
-208
-448
-1008
-1136
-608
-288
-48
144
288
320
336
400
720
704
160
-16
-80
-128
-176
-176
-208
-448
-992
-1088
-544
-208
16
192
320
368
384
464
784
768
192
0
-64
-112
-160
-160
-192
-416
-928
-1072
-608
-288
-80
80
240
288
320
416
752
800
240
32
-32
-80
-128
-144
-176
-384
-880
-1072
-624
-320
-96
64
240
288
336
432
752
800
240
16
-48
-96
-144
-160
-192
-400
-944
-1104
-624
-256
-32
144
304
352
384
448
752
800
240
16
-48
-96
-160
-160
-192
-368
-912
-1104
-624
-256
-48
128
304
352
384
448
752
832
272
16
-32
-80
-144
-160
-176
-352
-864
-1104
-672
-320
-96
48
224
288
336
416
720
864
320
48
-16
-64
-112
-128
-160
-304
-752
-1056
-752
-432
-208
-64
128
176
256
352
688
912
384
80
16
-32
-96
-112
-144
-272
-656
-1024
-800
-496
-272
-112
64
128
224
336
656
928
432
80
16
-32
-96
-112
-144
-256
-592
-1008
-800
-496
-272
-96
80
160
240
336
656
944
448
80
0
-32
-96
-128
-144
-256
-592
-992
-768
-432
-224
-64
128
208
288
368
672
944
448
64
-16
-48
-112
-144
-160
-256
-624
-992
-768
-400
-176
-32
160
240
304
352
624
912
448
64
-16
-64
-128
-160
-176
-288
-688
-1056
-832
-448
-224
-48
128
192
240
288
528
848
448
48
-32
-80
-144
-176
-192
-288
-688
-1104
-896
-480
-240
-64
128
176
224
240
464
784
416
32
-64
-112
-176
-192
-208
-304
-720
-1152
-944
-512
-256
-80
96
144
176
176
368
736
416
16
-64
-112
-176
-192
-208
-288
-672
-1136
-1040
-624
-368
-176
16
64
96
112
304
688
432
16
-64
-128
-176
-208
-224
-304
-688
-1152
-1056
-592
-336
-112
64
128
144
144
336
688
416
0
-96
-144
-208
-224
-240
-304
-688
-1168
-1024
-544
-272
-64
112
176
208
192
368
704
432
0
-96
-144
-208
-224
-240
-304
-688
-1152
-1024
-512
-256
-64
128
208
240
256
432
768
496
32
-80
-128
-176
-208
-208
-272
-608
-1040
-992
-512
-272
-80
112
208
256
288
480
816
576
64
-48
-96
-160
-192
-208
-256
-560
-992
-960
-496
-256
-64
112
224
272
304
480
832
608
80
-48
-96
-144
-192
-208
-256
-528
-960
-944
-480
-240
-48
128
272
336
384
560
896
672
112
-32
-80
-128
-176
-192
-240
-512
-928
-896
-432
-192
-32
144
304
368
400
560
896
704
128
-16
-80
-128
-176
-192
-240
-480
-880
-896
-432
-192
-16
160
320
384
416
576
912
736
144
-16
-64
-112
-160
-176
-224
-464
-880
-896
-432
-176
0
176
336
400
432
576
912
768
160
-16
-64
-112
-160
-176
-224
-464
-864
-912
-432
-176
16
176
336
384
432
560
880
784
176
0
-64
-112
-160
-176
-208
-448
-848
-928
-464
-208
-16
160
320
384
432
544
880
816
208
0
-48
-96
-144
-160
-208
-432
-832
-928
-480
-208
0
160
320
384
432
544
864
832
224
0
-64
-112
-160
-160
-208
-416
-816
-928
-464
-192
16
176
336
400
448
560
864
848
240
0
-64
-96
-160
-160
-208
-416
-816
-928
-448
-160
64
224
384
448
480
544
848
848
240
0
-64
-112
-160
-176
-208
-432
-848
-960
-496
-176
32
192
352
400
432
512
800
864
272
16
-48
-96
-144
-160
-192
-400
-800
-992
-576
-288
-64
80
256
304
352
432
736
864
288
16
-48
-96
-144
-160
-192
-384
-800
-1024
-624
-304
-80
80
256
304
352
416
704
832
288
0
-64
-112
-176
-192
-224
-432
-880
-1072
-640
-272
-48
128
304
336
368
400
672
800
272
-16
-80
-128
-176
-192
-224
-416
-896
-1088
-656
-272
-32
128
288
336
352
384
640
800
288
0
-80
-128
-176
-192
-224
-416
-880
-1120
-704
-320
-80
64
240
272
304
320
576
800
320
0
-64
-112
-176
-176
-208
-384
-832
-1120
-784
-416
-160
0
176
208
256
288
544
800
336
0
-64
-112
-176
-192
-208
-368
-816
-1120
-784
-384
-128
32
224
272
304
320
560
800
352
0
-80
-128
-176
-192
-208
-368
-800
-1104
-768
-336
-80
80
272
320
352
384
608
848
384
16
-64
-112
-176
-192
-208
-352
-752
-1056
-768
-336
-112
64
256
320
384
416
656
912
464
48
-32
-80
-144
-160
-176
-304
-672
-992
-736
-336
-112
48
240
320
368
400
640
912
496
64
-32
-80
-144
-160
-192
-304
-672
-1008
-752
-320
-96
80
256
336
384
416
624
912
512
64
-32
-80
-144
-160
-192
-304
-656
-992
-768
-336
-112
64
240
336
384
400
624
928
544
80
-32
-64
-128
-144
-176
-272
-624
-976
-800
-352
-112
64
240
320
384
416
608
928
576
96
-16
-64
-128
-144
-160
-256
-592
-960
-800
-352
-112
64
240
336
384
416
608
928
608
96
-16
-64
-112
-144
-160
-256
-592
-944
-800
-336
-96
80
256
352
400
432
608
928
624
112
-16
-64
-128
-144
-176
-256
-608
-960
-832
-336
-80
96
272
384
416
432
576
896
640
112
-16
-64
-128
-160
-176
-256
-624
-992
-864
-368
-128
64
240
336
368
384
528
864
656
112
-16
-64
-128
-160
-176
-256
-592
-976
-928
-448
-208
-16
144
256
304
320
464
800
656
128
-16
-64
-128
-160
-176
-256
-608
-1024
-976
-496
-224
-32
144
256
304
320
448
784
640
112
-32
-80
-144
-176
-192
-272
-624
-1040
-1008
-512
-240
-48
112
224
256
272
384
736
640
128
-32
-80
-144
-176
-192
-272
-640
-1088
-1072
-576
-304
-64
96
208
240
240
336
672
608
96
-48
-112
-160
-208
-224
-288
-656
-1136
-1120
-576
-272
-48
112
224
240
224
304
624
608
96
-64
-128
-176
-208
-224
-288
-624
-1120
-1152
-624
-304
-80
80
208
224
208
288
608
608
96
-64
-128
-176
-224
-240
-288
-640
-1152
-1200
-672
-368
-112
48
176
176
160
224
528
592
112
-64
-128
-176
-224
-240
-288
-608
-1120
-1232
-736
-416
-160
16
128
144
144
192
512
608
128
-64
-128
-176
-224
-224
-272
-560
-1056
-1232
-768
-432
-176
0
128
128
144
192
512
640
144
-48
-112
-176
-224
-224
-272
-544
-1040
-1232
-768
-432
-160
0
144
160
176
208
512
656
160
-64
-128
-176
-240
-240
-288
-544
-1056
-1248
-768
-400
-144
16
160
176
160
192
464
624
144
-64
-144
-192
-240
-240
-288
-544
-1072
-1296
-816
-448
-176
-16
144
144
128
144
416
624
160
-64
-144
-192
-240
-256
-288
-528
-1040
-1312
-880
-480
-224
-16
112
112
112
112
352
608
176
-64
-144
-192
-256
-256
-288
-512
-1024
-1328
-928
-528
-256
-64
80
80
64
64
304
576
176
-80
-160
-208
-256
-272
-288
-496
-992
-1328
-960
-560
-272
-80
64
64
48
32
256
560
192
-80
-160
-208
-272
-288
-304
-480
-960
-1328
-1008
-592
-304
-96
64
64
32
16
224
544
192
-96
-176
-224
-288
-288
-304
-464
-944
-1328
-1040
-592
-320
-112
64
64
48
16
208
528
208
-96
-176
-224
-288
-304
-320
-464
-944
-1344
-1056
-592
-304
-112
64
64
48
16
192
496
192
-112
-208
-256
-320
-320
-336
-464
-960
-1376
-1088
-592
-304
-96
80
80
64
16
176
480
192
-128
-208
-272
-336
-336
-352
-480
-976
-1408
-1104
-576
-272
-64
112
128
96
32
176
448
176
-144
-224
-288
-352
-352
-368
-480
-976
-1440
-1120
-544
-224
0
176
176
144
64
176
432
160
-160
-256
-320
-384
-384
-384
-480
-976
-1488
-1120
-496
-160
48
240
256
192
96
176
416
160
-176
-272
-336
-384
-400
-384
-480
-960
-1488
-1120
-448
-112
96
288
320
256
144
208
416
176
-176
-272
-336
-400
-400
-400
-464
-928
-1488
-1120
-416
-64
160
352
384
320
192
240
432
192
-160
-272
-336
-384
-400
-400
-464
-880
-1456
-1120
-384
-16
208
400
432
368
240
272
448
208
-160
-256
-320
-384
-400
-384
-448
-848
-1424
-1120
-368
0
240
416
464
400
272
288
448
240
-144
-240
-304
-368
-384
-384
-432
-800
-1392
-1136
-368
-16
240
432
480
416
304
304
480
272
-128
-240
-304
-352
-368
-368
-416
-768
-1360
-1136
-384
0
240
432
496
432
320
320
496
304
-96
-208
-288
-336
-368
-352
-400
-720
-1312
-1152
-400
-16
240
416
496
432
336
336
512
352
-80
-192
-272
-320
-352
-336
-384
-688
-1280
-1168
-416
-32
224
400
480
448
352
352
528
384
-48
-176
-240
-304
-336
-320
-352
-640
-1232
-1184
-464
-64
192
384
480
448
368
368
544
432
-32
-160
-224
-288
-320
-320
-352
-608
-1200
-1216
-480
-96
176
368
480
448
384
384
560
464
0
-128
-208
-256
-304
-304
-336
-560
-1152
-1216
-512
-112
160
336
464
432
384
384
560
496
16
-112
-176
-240
-288
-272
-304
-528
-1104
-1216
-544
-144
128
304
432
416
368
368
560
528
48
-96
-160
-224
-272
-272
-288
-496
-1056
-1216
-560
-144
112
288
432
416
384
384
576
544
64
-80
-160
-208
-256
-256
-288
-480
-1024
-1232
-592
-176
96
272
432
416
384
384
576
576
96
-80
-144
-192
-256
-256
-288
-448
-976
-1232
-624
-192
64
256
416
416
400
400
576
592
112
-64
-144
-192
-240
-240
-272
-432
-944
-1232
-656
-208
48
240
416
416
400
400
576
624
128
-48
-128
-176
-240
-240
-272
-416
-912
-1264
-704
-256
32
224
400
416
416
400
592
640
160
-48
-112
-160
-224
-240
-256
-384
-880
-1264
-720
-272
16
208
400
416
416
400
592
672
192
-32
-96
-160
-224
-224
-240
-368
-832
-1248
-752
-288
0
192
400
416
432
416
592
688
208
-16
-96
-144
-208
-224
-240
-352
-800
-1248
-800
-304
-32
176
384
416
416
416
592
704
224
-16
-80
-144
-208
-224
-240
-336
-768
-1248
-816
-320
-32
160
368
416
432
416
592
720
256
0
-80
-128
-192
-208
-240
-320
-736
-1248
-848
-336
-48
160
368
416
432
432
592
736
272
16
-64
-128
-192
-208
-224
-304
-704
-1232
-880
-352
-64
144
368
416
448
432
592
736
304
16
-64
-112
-176
-208
-224
-304
-672
-1216
-896
-368
-80
128
336
400
432
432
592
752
336
32
-48
-112
-176
-192
-224
-288
-640
-1200
-944
-400
-112
112
336
400
448
432
592
768
352
32
-48
-96
-176
-192
-208
-272
-608
-1184
-960
-400
-112
96
320
400
432
432
576
768
384
48
-32
-96
-160
-192
-208
-256
-576
-1168
-1008
-432
-144
80
304
384
416
416
576
768
416
64
-16
-80
-144
-176
-192
-240
-560
-1152
-1008
-448
-144
80
304
400
448
432
576
768
432
64
-16
-80
-144
-176
-192
-240
-528
-1152
-1040
-448
-144
80
304
400
448
448
576
768
464
64
-16
-80
-144
-176
-192
-240
-512
-1120
-1056
-480
-176
48
272
400
432
432
560
768
480
80
0
-64
-128
-176
-192
-224
-480
-1104
-1088
-496
-192
48
272
400
448
448
560
784
512
80
0
-64
-128
-176
-192
-224
-464
-1072
-1104
-512
-192
48
272
400
448
448
560
784
544
96
0
-64
-128
-176
-192
-224
-448
-1056
-1136
-528
-208
32
256
400
448
448
560
784
560
112
0
-64
-128
-176
-192
-224
-432
-1040
-1152
-544
-224
32
256
416
464
464
560
768
576
112
0
-64
-128
-176
-192
-224
-416
-1008
-1168
-560
-224
32
256
400
448
464
544
768
608
112
0
-64
-128
-176
-192
-208
-384
-976
-1168
-576
-240
16
240
400
464
464
544
768
624
128
16
-48
-112
-176
-192
-208
-368
-944
-1184
-608
-256
16
240
416
464
480
544
768
656
144
16
-48
-112
-176
-192
-208
-352
-928
-1200
-608
-256
0
224
416
464
480
544
768
672
160
32
-48
-112
-160
-176
-208
-336
-912
-1200
-640
-256
0
224
416
464
496
544
768
688
176
32
-48
-96
-160
-176
-208
-336
-880
-1216
-656
-272
0
224
416
464
496
544
752
720
192
32
-48
-96
-160
-176
-192
-320
-848
-1216
-672
-272
0
208
416
464
496
544
752
736
208
32
-48
-96
-160
-176
-192
-304
-832
-1232
-720
-288
-16
192
400
464
496
528
752
752
224
32
-32
-96
-160
-176
-192
-288
-800
-1232
-736
-304
-32
176
400
464
496
528
736
768
240
48
-32
-96
-160
-176
-192
-288
-768
-1232
-752
-320
-32
176
400
464
496
528
736
768
256
48
-32
-96
-160
-176
-192
-272
-752
-1232
-784
-336
-48
176
400
464
496
528
720
784
272
48
-32
-80
-160
-176
-192
-272
-720
-1232
-816
-336
-48
160
384
464
496
512
704
800
304
48
-32
-80
-160
-176
-192
-256
-704
-1248
-848
-368
-80
144
384
448
496
512
704
800
320
48
-16
-80
-160
-176
-192
-256
-672
-1216
-864
-368
-80
144
368
448
496
512
688
816
336
64
-16
-80
-144
-176
-192
-240
-640
-1216
-896
-384
-96
128
368
448
496
512
688
816
352
64
-16
-80
-144
-176
-192
-240
-624
-1216
-928
-400
-96
128
368
448
496
512
672
832
384
64
-16
-64
-144
-176
-192
-224
-592
-1200
-960
-400
-112
112
352
448
496
512
672
832
400
80
-16
-64
-144
-176
-192
-224
-576
-1200
-976
-416
-128
112
352
448
496
512
656
832
432
80
0
-64
-144
-176
-192
-208
-544
-1184
-1008
-432
-128
96
336
448
496
512
656
832
448
80
0
-64
-144
-176
-192
-208
-528
-1152
-1008
-432
-144
96
320
432
496
496
640
832
464
80
0
-64
-144
-176
-192
-208
-512
-1136
-1040
-448
-144
96
320
448
512
512
640
832
496
80
0
-64
-128
-176
-192
-208
-480
-1120
-1056
-464
-160
80
320
448
496
512
640
832
512
96
0
-64
-128
-176
-176
-208
-464
-1120
-1104
-496
-176
64
304
448
496
496
624
832
544
96
0
-64
-128
-176
-192
-208
-448
-1088
-1120
-512
-192
48
288
432
496
496
624
832
560
112
16
-48
-128
-160
-176
-192
-432
-1072
-1152
-544
-208
48
288
432
496
496
608
816
592
128
16
-48
-128
-160
-176
-192
-400
-1040
-1152
-560
-224
32
272
448
496
496
608
816
608
128
16
-48
-112
-160
-176
-192
-384
-1024
-1184
-576
-224
32
272
432
496
512
592
816
640
144
32
-48
-112
-176
-176
-192
-368
-992
-1200
-592
-240
16
256
432
496
512
592
800
656
144
32
-48
-112
-160
-176
-192
-368
-976
-1216
-608
-240
16
256
432
496
512
592
800
672
160
32
-48
-112
-160
-176
-192
-352
-944
-1216
-640
-272
0
240
432
480
512
576
784
688
176
32
-48
-96
-160
-176
-192
-336
-912
-1232
-656
-272
0
224
432
496
512
576
784
720
192
32
-48
-96
-160
-176
-192
-320
-896
-1232
-672
-272
0
224
432
480
512
576
784
736
208
48
-32
-96
-160
-176
-192
-304
-864
-1232
-704
-288
0
208
416
480
512
560
768
752
224
48
-32
-96
-160
-176
-176
-288
-832
-1248
-720
-304
-16
208
416
480
512
560
768
768
240
48
-32
-80
-160
-176
-176
-288
-816
-1248
-752
-320
-32
192
416
480
512
544
752
784
256
48
-16
-80
-160
-176
-176
-272
-784
-1248
-784
-336
-48
176
400
464
512
544
736
784
272
48
-16
-80
-160
-176
-176
-256
-752
-1248
-800
-336
-48
176
400
480
512
544
736
800
288
48
-16
-80
-144
-176
-176
-256
-736
-1248
-832
-352
-64
160
384
464
512
528
720
800
304
64
-16
-80
-144
-176
-176
-240
-704
-1248
-848
-368
-64
144
384
464
512
528
704
816
320
64
-16
-80
-144
-176
-176
-240
-688
-1248
-880
-384
-80
144
368
464
512
528
704
832
352
64
-16
-80
-160
-176
-176
-240
-656
-1232
-912
-384
-96
128
368
464
512
512
688
832
368
64
-16
-80
-144
-176
-192
-240
-624
-1216
-928
-400
-96
128
368
464
512
528
688
832
400
80
0
-64
-144
-160
-176
-224
-608
-1200
-944
-400
-112
112
352
464
512
512
672
832
416
80
0
-64
-144
-160
-176
-224
-576
-1184
-976
-432
-128
112
352
448
512
512
672
832
432
80
0
-64
-144
-176
-176
-208
-560
-1184
-1008
-432
-128
96
352
464
512
512
656
832
448
80
0
-64
-128
-176
-176
-208
-528
-1168
-1024
-448
-144
80
336
448
496
512
656
832
480
96
0
-64
-128
-176
-176
-208
-512
-1152
-1056
-464
-160
80
320
448
496
512
640
832
496
96
0
-64
-128
-176
-176
-208
-496
-1136
-1072
-480
-176
64
304
448
496
512
624
832
528
96
0
-64
-128
-176
-192
-208
-480
-1104
-1104
-496
-176
64
304
432
496
496
624
816
544
96
0
-64
-128
-176
-176
-208
-448
-1088
-1120
-528
-208
48
288
432
496
496
608
816
576
112
16
-64
-128
-176
-176
-208
-432
-1072
-1152
-544
-208
48
288
448
496
512
608
816
592
112
16
-48
-128
-176
-192
-208
-416
-1040
-1168
-560
-224
32
272
432
496
512
608
816
624
128
16
-48
-112
-176
-176
-192
-400
-1024
-1168
-576
-240
32
272
432
496
512
592
816
640
144
16
-48
-112
-176
-176
-192
-384
-992
-1184
-592
-240
16
256
432
496
512
592
800
656
144
16
-48
-112
-176
-192
-208
-368
-976
-1200
-624
-240
16
256
432
496
512
592
800
688
160
32
-48
-112
-176
-176
-192
-352
-944
-1216
-640
-256
16
240
432
496
528
592
800
720
176
32
-48
-112
-160
-176
-192
-336
-912
-1216
-656
-272
16
240
432
496
512
576
800
736
192
32
-32
-96
-160
-176
-192
-320
-896
-1232
-672
-288
0
224
432
496
528
576
784
752
208
32
-32
-96
-160
-176
-192
-320
-864
-1232
-704
-288
0
224
432
480
512
560
768
768
224
48
-32
-96
-160
-176
-192
-304
-832
-1232
-720
-288
-16
208
432
496
528
576
784
784
240
48
-32
-80
-160
-176
-176
-288
-816
-1232
-736
-304
-16
208
416
496
528
560
768
800
256
48
-32
-80
-160
-176
-176
-272
-784
-1232
-768
-320
-32
192
416
496
528
560
752
816
288
48
-16
-80
-160
-176
-192
-272
-752
-1232
-784
-320
-32
192
416
480
528
560
752
816
304
64
-16
-80
-160
-176
-192
-256
-736
-1232
-816
-336
-48
176
400
480
528
560
736
832
320
64
-16
-64
-144
-160
-176
-240
-704
-1216
-848
-352
-64
176
400
480
528
544
736
848
336
64
-16
-64
-144
-160
-176
-240
-688
-1216
-848
-336
-48
160
400
480
544
560
736
864
368
80
-16
-64
-144
-160
-176
-240
-656
-1216
-896
-368
-80
160
400
480
528
544
720
864
384
64
-16
-64
-144
-160
-176
-224
-624
-1200
-928
-384
-96
144
384
480
528
544
704
864
416
80
0
-64
-144
-160
-176
-224
-608
-1184
-944
-400
-96
128
384
480
544
544
704
864
432
80
0
-64
-128
-160
-176
-224
-576
-1184
-976
-416
-112
128
368
464
528
544
688
864
464
80
0
-64
-144
-176
-176
-208
-560
-1168
-1008
-432
-128
112
368
480
528
544
688
864
480
96
0
-48
-128
-176
-176
-208
-544
-1152
-1024
-432
-128
112
352
464
528
528
672
864
496
96
0
-64
-128
-176
-176
-208
-512
-1136
-1056
-464
-144
96
352
480
528
544
672
864
528
96
0
-48
-128
-160
-176
-208
-496
-1104
-1056
-464
-144
96
336
480
528
544
672
880
560
112
16
-48
-128
-160
-176
-192
-464
-1088
-1088
-480
-160
96
336
480
528
544
656
864
592
128
16
-48
-112
-160
-176
-192
-448
-1072
-1120
-512
-176
80
320
480
544
544
656
864
624
128
32
-48
-112
-160
-176
-192
-432
-1040
-1120
-512
-176
80
320
480
528
544
656
864
640
144
32
-48
-112
-160
-176
-192
-416
-1024
-1136
-544
-192
64
304
480
544
560
640
864
672
144
32
-48
-112
-160
-176
-192
-400
-992
-1152
-560
-208
64
304
464
528
544
640
864
688
160
32
-32
-112
-160
-176
-192
-384
-976
-1184
-576
-224
48
288
480
528
560
640
848
720
176
32
-32
-96
-160
-176
-192
-368
-960
-1184
-592
-224
48
288
464
528
544
624
848
736
192
32
-32
-96
-160
-176
-192
-352
-928
-1200
-624
-240
32
272
464
528
560
624
832
752
192
32
-32
-96
-160
-176
-192
-336
-912
-1200
-640
-240
32
272
464
528
560
624
832
784
224
48
-32
-96
-160
-176
-176
-320
-880
-1200
-656
-256
32
256
464
528
560
608
816
784
224
48
-32
-96
-160
-176
-176
-304
-848
-1200
-688
-272
16
240
464
512
560
592
800
800
240
48
-32
-80
-160
-160
-176
-304
-832
-1200
-704
-288
0
240
464
528
560
608
800
832
272
64
-16
-80
-144
-160
-176
-288
-800
-1200
-736
-272
0
224
448
528
560
592
800
848
288
64
-16
-80
-144
-160
-176
-272
-768
-1200
-752
-288
-16
224
448
512
560
592
800
864
320
64
-16
-64
-144
-160
-176
-256
-752
-1200
-784
-304
-16
208
448
512
560
592
784
864
336
64
0
-64
-144
-160
-176
-256
-720
-1200
-816
-320
-32
208
432
512
576
592
784
880
352
80
0
-64
-144
-160
-176
-240
-704
-1200
-832
-320
-32
192
432
512
560
592
768
896
384
80
0
-64
-144
-160
-176
-240
-672
-1200
-864
-336
-48
176
432
512
576
592
768
912
416
80
0
-64
-128
-160
-176
-224
-656
-1184
-896
-352
-64
176
416
512
560
576
752
912
432
80
0
-64
-144
-160
-176
-224
-624
-1184
-928
-368
-64
160
416
512
576
576
752
912
464
96
16
-48
-128
-160
-176
-224
-608
-1168
-944
-384
-80
160
416
512
560
576
736
912
480
96
16
-48
-128
-160
-176
-208
-576
-1152
-976
-400
-96
144
400
512
560
576
720
912
512
96
16
-48
-128
-160
-176
-208
-560
-1136
-992
-400
-96
144
400
512
560
576
720
912
528
112
16
-48
-112
-160
-160
-208
-544
-1120
-1008
-416
-112
144
384
512
560
576
704
912
560
112
16
-48
-112
-160
-176
-208
-512
-1104
-1040
-448
-128
128
368
496
560
576
704
912
592
128
16
-48
-112
-160
-176
-192
-496
-1104
-1056
-448
-112
144
384
512
560
576
688
896
608
128
16
-48
-128
-160
-176
-192
-480
-1088
-1088
-464
-128
128
384
512
576
576
688
896
640
144
32
-48
-112
-160
-176
-192
-464
-1072
-1104
-480
-128
128
384
528
576
576
688
896
656
144
32
-48
-112
-160
-176
-192
-448
-1040
-1120
-512
-160
112
352
512
576
576
672
896
688
160
32
-32
-96
-160
-160
-176
-416
-1024
-1136
-528
-176
80
336
496
560
576
656
880
720
176
48
-32
-96
-144
-160
-176
-400
-992
-1152
-560
-192
80
320
496
544
576
656
880
736
176
48
-32
-96
-160
-160
-192
-384
-976
-1168
-576
-192
80
320
496
544
576
640
864
752
192
48
-32
-96
-160
-160
-176
-368
-960
-1168
-592
-192
80
304
496
560
576
640
864
768
208
48
-32
-96
-160
-160
-176
-368
-944
-1200
-624
-224
64
288
496
544
576
624
848
800
224
48
-16
-80
-160
-160
-176
-336
-912
-1200
-656
-240
32
272
480
528
560
624
832
800
240
48
-16
-80
-144
-160
-176
-320
-880
-1200
-688
-256
16
240
464
512
544
608
816
816
256
64
-16
-80
-144
-160
-176
-320
-864
-1216
-704
-272
0
240
464
528
560
608
816
848
272
64
-16
-64
-144
-160
-176
-304
-832
-1200
-720
-272
16
240
464
528
576
608
800
848
288
64
-16
-80
-144
-160
-176
-288
-816
-1216
-752
-272
16
240
464
528
576
592
800
864
304
64
-16
-64
-144
-160
-176
-288
-784
-1200
-784
-288
0
224
448
512
560
592
784
880
336
64
0
-64
-144
-160
-176
-272
-768
-1216
-816
-320
-32
208
448
512
576
592
784
896
368
80
0
-64
-144
-160
-176
-256
-736
-1200
-832
-320
-32
192
432
512
560
592
768
912
384
80
0
-64
-128
-160
-160
-240
-704
-1184
-848
-336
-32
192
432
512
560
576
768
912
416
80
0
-48
-128
-160
-160
-240
-688
-1184
-880
-336
-48
176
432
512
560
576
752
912
432
96
0
-48
-128
-160
-160
-224
-672
-1184
-912
-352
-64
176
432
512
576
576
752
912
464
96
16
-48
-128
-160
-176
-224
-640
-1168
-944
-384
-80
160
416
512
560
576
736
928
480
96
16
-48
-128
-160
-176
-224
-624
-1168
-976
-400
-96
144
400
496
560
576
720
928
512
112
16
-48
-112
-144
-160
-208
-592
-1152
-992
-416
-112
128
400
512
560
576
720
928
544
112
16
-48
-128
-160
-176
-208
-576
-1136
-1024
-432
-112
128
384
512
560
576
720
928
576
112
16
-48
-128
-160
-176
-208
-560
-1136
-1040
-448
-128
128
384
512
560
576
704
928
592
128
32
-32
-112
-144
-160
-208
-528
-1120
-1072
-464
-144
112
368
496
560
576
688
912
624
144
32
-32
-112
-144
-160
-192
-512
-1104
-1104
-496
-160
112
352
496
544
560
688
912
656
144
32
-32
-112
-160
-176
-208
-496
-1088
-1120
-512
-176
80
336
496
544
560
672
912
672
144
32
-32
-96
-144
-160
-192
-464
-1056
-1136
-528
-176
80
336
496
544
560
656
896
704
160
48
-32
-96
-144
-160
-192
-448
-1040
-1152
-544
-192
80
320
480
544
560
656
896
720
176
48
-32
-96
-144
-160
-192
-432
-1024
-1168
-560
-192
64
320
480
544
560
656
880
736
192
48
-32
-96
-160
-160
-192
-416
-1008
-1184
-592
-208
64
304
480
528
560
640
880
768
192
48
-32
-96
-144
-160
-176
-400
-976
-1184
-608
-224
48
288
480
528
560
640
864
800
208
48
-16
-96
-160
-160
-192
-384
-960
-1200
-640
-240
32
272
480
528
560
624
864
816
224
48
-32
-96
-160
-160
-192
-368
-928
-1200
-672
-256
16
256
464
528
560
624
848
832
240
48
-16
-80
-144
-160
-176
-352
-912
-1216
-704
-272
0
240
448
512
560
608
832
848
256
64
-16
-80
-144
-160
-176
-336
-896
-1232
-736
-288
-16
224
448
512
560
608
832
864
288
64
-16
-80
-144
-160
-192
-336
-880
-1232
-752
-304
-32
208
448
512
560
608
816
880
304
64
-16
-64
-144
-160
-176
-320
-848
-1232
-784
-320
-32
192
432
496
544
592
800
896
336
64
0
-64
-144
-160
-176
-304
-832
-1232
-816
-336
-48
192
432
496
560
592
800
912
352
80
0
-64
-144
-160
-176
-288
-800
-1232
-832
-336
-48
192
432
496
560
576
784
912
368
80
0
-64
-144
-160
-176
-288
-784
-1232
-864
-368
-64
176
416
496
560
576
768
912
400
80
0
-64
-144
-160
-176
-272
-752
-1216
-896
-368
-80
160
416
496
544
576
768
928
416
80
0
-64
-144
-160
-176
-272
-736
-1216
-928
-384
-96
144
400
496
544
560
752
912
432
80
0
-64
-144
-160
-176
-256
-720
-1216
-960
-400
-112
128
400
480
544
560
736
928
464
96
16
-48
-128
-160
-176
-240
-688
-1200
-976
-416
-112
128
384
480
544
560
736
928
496
96
16
-48
-128
-160
-176
-240
-656
-1200
-1008
-416
-128
128
384
480
544
560
720
928
528
112
16
-48
-128
-160
-176
-240
-640
-1184
-1024
-448
-144
112
368
480
544
560
704
928
544
112
16
-48
-128
-160
-176
-224
-608
-1184
-1056
-464
-144
96
352
464
528
544
688
928
576
112
16
-48
-112
-160
-176
-224
-592
-1168
-1088
-480
-160
96
352
480
528
544
688
928
608
128
32
-32
-112
-160
-160
-208
-576
-1168
-1104
-496
-176
80
336
464
528
544
672
912
624
144
32
-32
-112
-160
-160
-208
-544
-1152
-1136
-528
-192
64
320
464
528
544
672
912
656
144
32
-32
-112
-160
-160
-208
-528
-1136
-1168
-544
-208
64
320
464
528
544
656
912
688
160
48
-32
-112
-160
-176
-208
-512
-1120
-1200
-576
-224
48
304
464
512
544
640
896
704
160
32
-32
-112
-160
-176
-208
-496
-1104
-1200
-592
-240
32
288
448
512
544
640
880
736
176
48
-32
-96
-160
-176
-208
-464
-1088
-1232
-624
-256
16
272
448
512
528
624
864
752
192
48
-32
-96
-160
-176
-192
-448
-1072
-1248
-640
-272
0
256
448
496
528
608
848
768
192
48
-32
-96
-160
-176
-192
-432
-1056
-1264
-672
-288
-16
240
432
480
528
592
832
784
208
48
-32
-96
-160
-176
-192
-416
-1024
-1280
-704
-304
-32
224
432
480
528
592
816
800
224
48
-32
-96
-160
-176
-192
-400
-1008
-1280
-736
-320
-32
208
432
480
528
576
816
816
240
48
-32
-96
-160
-176
-192
-384
-992
-1296
-768
-320
-48
192
416
480
528
576
800
832
256
48
-16
-80
-160
-176
-192
-368
-960
-1312
-800
-336
-48
192
416
480
512
560
800
848
288
48
-16
-80
-160
-176
-192
-352
-944
-1312
-816
-352
-64
176
400
464
512
560
784
848
304
64
-16
-80
-160
-176
-192
-336
-912
-1312
-848
-368
-80
160
400
464
512
544
768
864
320
64
-16
-80
-160
-176
-192
-336
-880
-1312
-880
-384
-96
144
384
464
512
544
752
864
336
64
-16
-80
-160
-176
-192
-320
-864
-1312
-912
-400
-96
128
384
448
512
544
736
880
352
64
-16
-80
-160
-176
-192
-304
-832
-1312
-944
-400
-112
128
384
448
512
528
736
880
384
80
-16
-64
-144
-160
-176
-288
-784
-1280
-928
-400
-96
144
384
464
528
544
736
896
416
80
0
-64
-144
-160
-192
-272
-768
-1280
-976
-432
-128
112
384
464
528
544
736
912
448
96
0
-64
-144
-160
-192
-272
-736
-1264
-1008
-432
-128
112
368
464
528
544
720
912
464
96
0
-64
-144
-160
-192
-256
-704
-1264
-1024
-448
-144
112
368
464
528
544
704
912
496
96
0
-64
-144
-176
-192
-256
-688
-1248
-1056
-464
-160
96
352
448
512
528
688
912
512
96
0
-64
-144
-176
-192
-256
-656
-1248
-1088
-496
-176
64
336
448
512
528
672
896
528
96
0
-64
-144
-176
-192
-256
-640
-1248
-1136
-528
-208
48
320
432
496
512
656
880
544
96
0
-64
-144
-192
-208
-256
-624
-1232
-1152
-544
-224
32
288
432
480
496
640
880
576
96
0
-64
-144
-192
-208
-256
-608
-1232
-1184
-560
-240
32
288
432
480
496
640
864
592
112
0
-64
-144
-192
-208
-256
-592
-1216
-1216
-576
-240
16
272
432
480
512
624
864
624
128
0
-64
-144
-192
-208
-240
-560
-1184
-1232
-592
-240
16
272
416
480
512
608
848
640
128
16
-64
-128
-192
-192
-240
-528
-1168
-1248
-624
-272
0
256
432
480
496
608
848
672
144
16
-64
-128
-192
-192
-240
-512
-1136
-1264
-640
-272
0
256
432
480
512
608
848
704
160
16
-48
-128
-176
-192
-224
-480
-1120
-1280
-672
-288
-16
240
432
480
512
608
832
720
176
32
-48
-128
-176
-192
-224
-464
-1088
-1296
-688
-304
-16
240
432
496
512
592
832
752
192
32
-48
-112
-176
-192
-224
-432
-1056
-1296
-704
-304
-16
224
432
480
512
592
832
768
208
32
-48
-112
-176
-192
-208
-416
-1040
-1296
-736
-320
-32
208
416
480
512
576
816
784
224
48
-32
-112
-176
-192
-224
-400
-1008
-1328
-768
-336
-48
192
416
464
512
560
800
800
240
32
-48
-112
-176
-192
-224
-384
-992
-1328
-800
-352
-64
176
400
464
496
544
768
800
240
32
-48
-112
-176
-192
-224
-384
-976
-1344
-832
-368
-80
160
384
448
496
544
768
816
272
48
-32
-96
-176
-192
-224
-368
-944
-1360
-864
-400
-96
144
384
448
496
528
752
832
288
32
-48
-112
-192
-208
-224
-368
-928
-1392
-912
-432
-128
112
352
432
480
512
736
832
288
32
-48
-112
-192
-208
-224
-336
-896
-1376
-928
-416
-128
128
368
448
496
528
736
848
336
48
-32
-96
-176
-192
-208
-320
-848
-1360
-944
-432
-128
128
368
448
496
528
720
864
352
48
-32
-96
-176
-208
-224
-320
-832
-1360
-976
-416
-96
160
416
496
560
560
752
880
384
48
-32
-112
-192
-208
-224
-304
-800
-1328
-976
-400
-96
160
416
496
560
560
736
896
400
64
-32
-96
-176
-208
-224
-304
-752
-1312
-1008
-416
-96
160
416
496
544
560
736
896
432
64
-32
-96
-176
-192
-208
-288
-720
-1280
-1008
-416
-112
144
400
496
560
560
720
896
448
64
-16
-80
-176
-192
-208
-272
-688
-1264
-1040
-448
-128
128
384
480
544
544
704
880
464
64
-16
-96
-176
-208
-224
-272
-672
-1280
-1088
-480
-160
96
352
464
512
528
672
864
480
64
-32
-96
-176
-208
-224
-272
-656
-1296
-1136
-512
-192
64
320
432
496
496
640
848
496
64
-32
-112
-192
-224
-240
-288
-640
-1280
-1168
-528
-192
64
304
432
480
480
624
832
512
64
-48
-112
-192
-224
-240
-288
-624
-1280
-1216
-576
-240
32
288
416
480
480
608
816
528
80
-32
-112
-176
-224
-240
-272
-592
-1264
-1248
-608
-256
16
272
416
464
480
592
816
544
80
-32
-96
-176
-224
-224
-272
-576
-1248
-1264
-624
-256
16
272
416
464
480
592
800
576
96
-16
-96
-160
-208
-224
-256
-544
-1232
-1296
-640
-272
0
256
416
464
480
576
800
608
112
-16
-80
-160
-208
-224
-256
-512
-1200
-1312
-656
-288
0
240
400
464
480
560
784
624
128
0
-80
-160
-208
-224
-240
-496
-1168
-1328
-672
-288
-16
240
400
464
480
560
784
656
128
0
-80
-144
-208
-224
-240
-464
-1136
-1344
-704
-320
-32
224
416
464
480
560
784
672
160
16
-64
-128
-192
-208
-240
-448
-1104
-1360
-720
-320
-32
224
416
464
496
560
784
704
176
16
-48
-128
-192
-208
-224
-416
-1056
-1360
-736
-320
-32
208
416
480
496
560
784
720
192
32
-48
-112
-176
-192
-224
-400
-1024
-1360
-768
-336
-48
208
416
464
496
560
768
736
208
32
-48
-112
-192
-192
-224
-384
-992
-1376
-784
-352
-48
192
416
464
512
544
768
768
224
32
-48
-112
-192
-208
-224
-368
-960
-1376
-816
-352
-48
192
416
464
496
544
752
768
240
32
-48
-112
-176
-192
-208
-352
-928
-1376
-848
-368
-64
176
416
464
512
544
752
784
256
48
-48
-112
-176
-192
-208
-336
-896
-1376
-864
-384
-80
176
400
464
512
544
736
800
272
48
-32
-112
-176
-192
-208
-320
-864
-1376
-896
-400
-80
160
400
464
512
528
736
816
304
48
-32
-96
-176
-192
-208
-304
-832
-1376
-928
-400
-96
160
400
464
512
528
720
832
320
48
-32
-96
-176
-192
-208
-304
-800
-1376
-960
-416
-96
144
384
464
512
528
720
832
336
48
-32
-96
-176
-192
-208
-288
-768
-1360
-992
-432
-128
128
368
448
512
528
704
848
368
64
-32
-96
-176
-192
-208
-288
-736
-1360
-1024
-448
-144
128
368
464
512
528
704
848
384
64
-16
-80
-160
-192
-208
-272
-704
-1344
-1056
-464
-144
112
368
464
528
528
688
848
416
80
-16
-80
-160
-192
-208
-256
-672
-1328
-1088
-480
-160
96
352
464
512
528
688
864
432
80
-16
-80
-160
-192
-208
-256
-640
-1312
-1104
-496
-176
80
352
464
512
528
672
848
464
80
-16
-80
-160
-192
-208
-256
-608
-1296
-1136
-512
-176
80
336
464
512
528
672
864
480
80
0
-80
-160
-192
-208
-256
-592
-1264
-1168
-528
-192
80
336
464
512
528
656
864
512
96
0
-80
-144
-192
-208
-240
-560
-1248
-1184
-544
-208
64
320
448
512
528
656
864
544
112
0
-64
-144
-192
-192
-240
-528
-1232
-1216
-560
-224
48
320
448
512
528
640
864
576
112
16
-64
-144
-192
-208
-240
-512
-1200
-1248
-576
-240
48
304
448
512
528
640
864
592
112
16
-64
-144
-192
-208
-240
-496
-1168
-1264
-608
-256
32
288
448
512
528
640
848
624
128
16
-64
-144
-192
-208
-224
-464
-1152
-1280
-624
-256
16
288
448
512
528
624
848
640
144
16
-64
-128
-192
-208
-224
-448
-1120
-1312
-656
-272
16
272
448
512
544
624
848
672
160
32
-48
-128
-176
-192
-224
-416
-1088
-1312
-672
-288
0
272
448
512
544
624
848
704
176
32
-48
-112
-192
-208
-224
-400
-1056
-1328
-688
-288
0
256
448
512
544
624
832
720
176
32
-48
-112
-176
-192
-224
-384
-1024
-1344
-720
-304
0
240
448
512
544
608
832
736
192
32
-48
-112
-176
-192
-208
-368
-976
-1344
-736
-320
-16
240
448
512
544
608
816
752
208
48
-32
-112
-176
-192
-208
-352
-960
-1344
-768
-320
-32
224
448
512
544
592
816
768
224
48
-32
-112
-176
-192
-208
-336
-912
-1344
-784
-336
-32
208
448
512
544
592
800
784
240
48
-32
-96
-176
-192
-208
-336
-880
-1344
-800
-336
-48
192
432
496
544
592
800
800
256
48
-32
-96
-176
-192
-208
-320
-864
-1360
-848
-368
-64
192
432
496
544
576
784
816
272
64
-32
-96
-176
-192
-224
-304
-832
-1360
-864
-384
-64
176
416
496
544
576
784
832
288
48
-32
-96
-176
-192
-208
-304
-800
-1360
-912
-400
-80
160
416
496
544
576
768
848
320
64
-32
-96
-176
-192
-208
-288
-768
-1344
-928
-400
-96
144
400
496
544
576
768
864
336
64
-16
-96
-176
-192
-208
-288
-736
-1344
-976
-416
-112
144
400
496
544
560
752
864
368
64
-16
-80
-160
-192
-224
-288
-704
-1328
-992
-432
-112
144
400
496
560
576
752
880
384
64
-16
-80
-160
-192
-208
-272
-672
-1312
-1024
-432
-128
128
384
480
544
560
736
880
416
80
-16
-80
-160
-192
-208
-256
-656
-1312
-1056
-464
-144
112
384
496
560
560
736
896
448
80
0
-64
-160
-192
-208
-256
-624
-1280
-1072
-464
-144
112
384
496
560
560
736
896
464
96
0
-64
-144
-176
-192
-240
-592
-1264
-1104
-480
-160
112
368
496
560
560
720
896
496
96
0
-64
-144
-176
-208
-240
-560
-1248
-1136
-496
-176
96
368
496
560
560
720
896
528
112
16
-64
-144
-176
-192
-224
-544
-1216
-1152
-512
-192
80
352
496
560
576
704
912
560
112
16
-48
-128
-176
-192
-224
-512
-1200
-1184
-528
-192
80
352
496
560
576
704
896
592
128
16
-48
-128
-176
-192
-224
-480
-1168
-1216
-560
-208
80
336
480
560
576
688
896
608
144
32
-48
-128
-176
-192
-224
-464
-1152
-1232
-576
-224
64
320
480
560
576
688
896
640
144
32
-48
-128
-176
-192
-208
-448
-1120
-1248
-592
-224
48
320
480
560
576
688
896
672
160
32
-48
-128
-176
-192
-208
-432
-1088
-1264
-608
-240
48
304
480
544
576
672
880
688
176
48
-32
-112
-176
-192
-208
-400
-1056
-1280
-640
-256
48
304
496
560
576
672
880
720
192
48
-32
-96
-160
-176
-192
-384
-1024
-1296
-656
-256
32
288
480
560
576
656
880
752
192
48
-32
-96
-160
-176
-192
-368
-992
-1296
-672
-272
32
288
480
560
592
656
880
768
208
64
-16
-96
-160
-176
-192
-352
-960
-1312
-704
-288
16
272
480
560
592
656
880
800
224
64
-32
-96
-160
-176
-192
-336
-928
-1328
-736
-304
0
256
480
544
592
640
864
816
240
64
-16
-80
-160
-176
-192
-320
-912
-1344
-768
-304
0
240
480
544
592
640
864
832
272
64
-16
-80
-160
-176
-192
-304
-880
-1344
-800
-320
-16
224
464
544
592
624
848
848
288
64
-16
-80
-160
-176
-192
-304
-848
-1344
-832
-336
-32
224
464
544
592
624
832
864
304
64
-16
-80
-160
-176
-192
-288
-816
-1344
-848
-352
-32
208
464
528
592
624
832
880
320
80
-16
-80
-160
-176
-208
-288
-800
-1344
-896
-368
-64
192
448
528
592
608
816
880
336
80
-16
-80
-160
-192
-208
-288
-768
-1344
-912
-384
-64
192
448
528
592
608
800
896
352
80
-16
-80
-160
-176
-208
-272
-736
-1328
-944
-400
-80
176
432
528
592
608
784
896
368
80
-16
-80
-160
-176
-192
-256
-704
-1328
-976
-416
-96
160
416
512
576
592
768
896
400
80
0
-64
-160
-176
-192
-256
-672
-1312
-1008
-416
-112
144
416
512
576
592
768
896
432
80
0
-64
-144
-176
-208
-256
-656
-1296
-1040
-448
-128
128
400
496
576
576
752
912
448
80
0
-64
-160
-192
-208
-240
-624
-1280
-1072
-448
-128
128
384
496
560
576
736
912
480
96
0
-64
-144
-192
-208
-240
-592
-1280
-1104
-480
-160
112
384
496
560
576
736
912
512
96
0
-64
-144
-192
-208
-240
-576
-1264
-1136
-496
-160
96
368
496
560
576
720
912
528
112
0
-64
-144
-192
-208
-240
-544
-1232
-1168
-528
-192
80
352
496
560
576
704
912
560
112
16
-64
-144
-192
-208
-240
-528
-1216
-1200
-544
-192
80
336
496
560
576
704
896
576
112
16
-64
-144
-192
-208
-240
-512
-1200
-1232
-560
-208
64
320
480
544
560
688
896
608
112
16
-64
-144
-192
-208
-240
-496
-1168
-1248
-592
-224
48
320
480
544
560
672
896
640
128
16
-64
-144
-192
-208
-224
-464
-1152
-1280
-624
-256
32
304
480
544
560
672
880
656
144
16
-48
-128
-192
-208
-224
-448
-1120
-1296
-640
-256
32
288
480
544
560
656
880
688
144
16
-64
-128
-192
-208
-224
-432
-1104
-1312
-672
-272
16
272
480
544
560
656
880
720
176
32
-48
-128
-192
-208
-224
-416
-1056
-1328
-688
-288
16
272
464
544
576
656
864
736
176
32
-48
-112
-192
-192
-224
-384
-1024
-1328
-704
-288
0
256
464
528
560
640
864
752
192
32
-48
-112
-192
-208
-224
-384
-1008
-1344
-736
-304
-16
240
464
528
576
640
848
784
208
32
-48
-112
-192
-208
-224
-368
-976
-1360
-768
-320
-16
224
448
528
560
624
848
800
224
48
-48
-112
-192
-208
-224
-352
-944
-1376
-800
-336
-32
208
448
528
576
624
832
816
240
48
-32
-112
-176
-208
-224
-336
-912
-1376
-832
-352
-48
192
448
512
560
608
832
832
272
48
-32
-96
-176
-192
-224
-320
-880
-1376
-864
-368
-64
192
448
528
576
608
816
848
288
48
-32
-96
-176
-208
-224
-320
-848
-1376
-880
-368
-64
192
448
528
576
608
816
864
304
48
-32
-96
-176
-192
-208
-304
-816
-1376
-912
-384
-80
176
432
528
576
608
800
880
336
64
-32
-96
-176
-208
-224
-304
-784
-1360
-944
-400
-80
160
432
528
576
608
800
896
352
64
-16
-80
-176
-192
-224
-288
-768
-1360
-976
-416
-96
160
432
512
576
592
784
896
384
64
-16
-80
-176
-192
-208
-272
-720
-1344
-1008
-416
-96
144
416
512
576
592
784
912
400
80
-16
-80
-160
-192
-208
-272
-688
-1328
-1040
-432
-112
144
416
512
576
592
768
912
432
80
0
-80
-160
-192
-208
-256
-656
-1312
-1056
-448
-128
128
400
512
576
592
768
928
464
96
0
-64
-160
-192
-208
-256
-640
-1296
-1088
-464
-128
128
400
512
576
592
752
928
496
96
0
-64
-160
-192
-208
-240
-608
-1280
-1120
-480
-160
112
384
512
576
592
736
928
528
112
16
-64
-144
-192
-208
-240
-576
-1264
-1152
-512
-160
96
368
512
576
592
736
928
560
112
16
-64
-144
-192
-208
-240
-560
-1232
-1168
-512
-176
96
368
512
576
592
736
928
576
128
16
-48
-144
-192
-192
-224
-528
-1216
-1200
-544
-192
96
352
512
576
592
720
928
608
128
16
-48
-128
-192
-208
-224
-512
-1200
-1216
-560
-192
80
352
512
576
592
704
928
640
144
16
-48
-128
-176
-192
-224
-496
-1168
-1248
-576
-208
64
336
512
576
592
704
912
656
144
32
-48
-128
-176
-192
-224
-464
-1136
-1264
-608
-224
64
320
496
576
592
704
912
688
160
32
-48
-128
-176
-192
-224
-448
-1120
-1296
-640
-240
48
304
496
560
576
688
912
720
176
32
-48
-112
-192
-208
-224
-432
-1088
-1312
-656
-256
32
288
496
560
592
672
896
736
192
32
-48
-112
-176
-192
-208
-400
-1056
-1328
-688
-272
32
272
480
560
592
672
896
768
192
32
-48
-112
-192
-208
-224
-400
-1040
-1344
-720
-288
16
272
480
560
592
656
880
784
208
32
-48
-112
-192
-208
-224
-384
-1008
-1360
-752
-304
0
256
480
544
592
656
880
816
224
48
-32
-112
-192
-208
-224
-368
-976
-1360
-784
-320
-16
240
480
544
592
640
864
832
256
48
-32
-96
-176
-192
-224
-352
-944
-1360
-800
-320
-16
224
480
544
592
640
864
848
272
48
-32
-96
-176
-192
-208
-336
-912
-1376
-848
-352
-32
208
464
544
592
640
848
864
288
48
-32
-96
-176
-192
-208
-320
-880
-1376
-880
-368
-48
208
464
544
592
624
848
880
304
64
-32
-96
-176
-192
-208
-304
-848
-1360
-896
-368
-48
192
464
544
592
624
832
896
336
64
-16
-96
-176
-192
-208
-304
-816
-1376
-928
-384
-64
176
448
528
592
608
816
896
352
64
-16
-96
-176
-192
-208
-288
-784
-1376
-960
-400
-80
176
432
528
592
608
816
912
384
64
-16
-80
-176
-192
-224
-288
-768
-1360
-1008
-416
-96
160
432
528
592
608
800
928
400
80
-16
-80
-176
-192
-208
-272
-736
-1360
-1024
-432
-112
144
416
528
592
608
784
928
432
80
-16
-80
-160
-192
-208
-272
-704
-1344
-1072
-448
-128
128
416
528
592
608
784
928
464
80
0
-80
-160
-192
-208
-272
-672
-1328
-1104
-464
-144
128
400
512
592
608
768
944
480
96
0
-80
-160
-192
-208
-256
-640
-1312
-1136
-496
-144
112
400
512
576
592
752
944
512
96
0
-64
-160
-192
-208
-256
-624
-1296
-1152
-512
-176
96
368
512
576
592
736
928
544
96
0
-64
-144
-192
-208
-256
-592
-1280
-1184
-528
-176
80
368
512
576
592
736
944
576
112
0
-64
-144
-192
-208
-240
-560
-1264
-1216
-544
-192
80
352
512
576
592
720
928
608
128
16
-64
-144
-192
-208
-240
-544
-1232
-1232
-576
-208
64
336
496
560
576
720
928
624
128
16
-64
-144
-192
-208
-240
-512
-1216
-1264
-592
-224
64
320
496
560
576
704
928
656
144
16
-64
-128
-192
-208
-240
-496
-1184
-1296
-624
-224
48
320
496
560
576
688
912
672
160
16
-48
-128
-192
-208
-240
-480
-1168
-1312
-640
-256
32
304
496
560
576
688
912
704
160
32
-48
-128
-192
-208
-240
-464
-1136
-1328
-672
-272
16
288
480
544
576
672
896
720
176
16
-48
-128
-192
-208
-224
-448
-1104
-1344
-704
-288
0
272
480
544
576
656
880
752
192
32
-48
-128
-192
-208
-240
-432
-1088
-1360
-736
-304
0
256
480
544
576
656
880
768
208
32
-48
-128
-192
-208
-224
-400
-1056
-1376
-768
-320
-16
240
464
528
576
640
864
784
208
32
-48
-112
-192
-208
-224
-400
-1024
-1392
-800
-336
-32
224
464
528
560
624
848
816
224
32
-48
-112
-192
-208
-224
-384
-992
-1408
-832
-352
-48
208
448
528
576
624
848
832
256
32
-48
-112
-192
-208
-240
-368
-960
-1408
-864
-368
-48
192
448
512
560
608
832
848
272
48
-48
-112
-192
-208
-240
-352
-928
-1408
-896
-384
-64
192
432
512
560
608
816
864
288
48
-48
-112
-192
-224
-240
-352
-912
-1424
-928
-400
-80
160
432
512
560
592
816
864
304
48
-48
-112
-192
-224
-240
-336
-880
-1424
-976
-416
-96
144
416
496
560
592
800
880
336
48
-48
-112
-192
-224
-240
-336
-848
-1424
-1008
-432
-128
128
416
496
560
576
784
880
352
48
-48
-112
-208
-224
-240
-320
-816
-1424
-1040
-464
-144
112
400
496
544
576
768
896
368
48
-48
-112
-192
-224
-240
-320
-784
-1424
-1088
-480
-160
112
384
480
544
560
752
896
400
48
-32
-112
-192
-224
-240
-304
-768
-1408
-1120
-512
-176
96
368
480
544
560
736
896
432
64
-32
-96
-192
-224
-240
-304
-736
-1392
-1152
-512
-176
80
352
480
528
560
720
896
448
64
-32
-112
-192
-224
-240
-304
-704
-1392
-1184
-544
-208
64
336
464
528
544
704
896
480
64
-32
-96
-192
-224
-240
-304
-672
-1360
-1216
-560
-224
48
336
464
528
544
704
896
496
80
-32
-96
-176
-224
-240
-288
-656
-1344
-1248
-576
-224
48
320
464
528
544
704
896
528
80
-16
-96
-176
-224
-240
-288
-624
-1328
-1264
-608
-240
32
304
464
528
544
688
896
560
96
-16
-96
-176
-224
-240
-272
-592
-1296
-1296
-624
-256
16
304
464
528
544
672
896
592
96
-16
-96
-176
-224
-240
-272
-560
-1264
-1312
-640
-256
16
288
464
528
544
672
896
624
112
-16
-80
-160
-224
-240
-272
-544
-1248
-1344
-656
-272
16
272
464
528
544
656
880
640
112
-16
-80
-160
-224
-240
-272
-528
-1216
-1360
-688
-288
0
272
464
512
544
656
880
672
128
-16
-80
-160
-224
-240
-272
-512
-1184
-1376
-720
-304
-16
256
448
512
544
640
864
688
144
0
-80
-160
-224
-240
-272
-480
-1152
-1392
-752
-320
-32
240
448
512
544
640
864
720
160
0
-80
-160
-224
-240
-256
-464
-1120
-1408
-768
-336
-32
224
448
512
544
624
848
752
176
0
-80
-144
-224
-240
-256
-448
-1104
-1424
-800
-352
-48
208
448
512
544
624
848
768
192
16
-64
-144
-208
-224
-256
-416
-1072
-1440
-832
-368
-64
192
432
496
544
608
832
784
208
16
-64
-128
-208
-224
-256
-416
-1040
-1456
-880
-384
-80
192
432
496
544
608
832
816
240
16
-64
-128
-208
-240
-256
-400
-1008
-1456
-896
-400
-80
176
432
496
544
608
816
832
256
32
-64
-128
-208
-224
-256
-384
-960
-1456
-928
-400
-80
160
416
496
560
592
816
848
272
32
-64
-128
-208
-224
-256
-368
-928
-1472
-976
-432
-112
144
416
496
544
592
800
864
288
32
-48
-128
-208
-240
-256
-352
-896
-1456
-1008
-448
-128
144
416
496
560
592
800
880
320
32
-48
-128
-208
-224
-256
-352
-864
-1456
-1024
-448
-128
128
400
496
560
592
784
880
352
48
-48
-112
-208
-224
-240
-336
-832
-1440
-1072
-480
-144
112
400
496
560
576
768
896
368
48
-48
-112
-192
-224
-240
-320
-784
-1424
-1088
-480
-144
112
384
496
560
576
768
912
416
64
-32
-112
-192
-224
-240
-320
-768
-1408
-1120
-496
-160
96
384
496
560
576
752
912
432
64
-32
-96
-192
-224
-240
-304
-736
-1408
-1152
-512
-176
80
368
480
544
560
736
912
448
64
-32
-96
-192
-224
-240
-304
-704
-1376
-1184
-528
-192
80
352
480
544
560
720
912
480
80
-32
-96
-176
-224
-240
-288
-672
-1360
-1216
-560
-208
64
336
480
544
560
720
912
512
80
-16
-96
-176
-224
-240
-288
-640
-1344
-1248
-576
-224
48
336
480
544
560
720
912
544
96
-16
-96
-176
-224
-240
-288
-608
-1328
-1280
-592
-240
48
320
480
544
560
704
912
576
96
-16
-80
-176
-224
-240
-272
-592
-1296
-1312
-624
-240
32
320
480
544
560
704
912
608
112
0
-80
-160
-224
-240
-272
-560
-1264
-1328
-640
-256
32
304
480
544
560
688
912
640
128
0
-80
-160
-208
-224
-272
-544
-1248
-1344
-672
-272
16
288
480
544
560
688
896
656
128
0
-80
-160
-224
-224
-256
-512
-1216
-1376
-688
-288
16
272
480
528
560
672
896
688
144
16
-64
-144
-208
-224
-256
-480
-1184
-1392
-720
-304
0
272
464
544
576
672
896
720
176
16
-64
-128
-208
-224
-240
-464
-1152
-1408
-736
-320
-16
256
480
528
576
656
880
752
192
32
-48
-128
-192
-208
-240
-448
-1120
-1424
-768
-336
-16
240
480
528
576
656
880
768
208
32
-48
-128
-192
-208
-240
-416
-1072
-1424
-800
-336
-32
240
464
528
576
656
880
800
224
32
-48
-112
-192
-208
-240
-400
-1040
-1440
-816
-352
-48
224
464
528
576
640
864
816
240
48
-32
-112
-192
-208
-240
-384
-1008
-1456
-864
-368
-48
208
464
528
576
640
848
832
256
48
-32
-112
-192
-208
-240
-368
-976
-1456
-896
-384
-64
192
464
528
576
624
848
864
288
48
-48
-112
-192
-208
-224
-352
-944
-1456
-928
-400
-80
176
448
512
576
624
832
880
304
64
-32
-96
-192
-208
-224
-336
-912
-1456
-960
-416
-96
160
432
512
576
608
832
880
336
64
-16
-96
-176
-208
-224
-336
-880
-1472
-1008
-432
-112
160
432
512
576
608
816
896
352
64
-32
-96
-176
-208
-224
-320
-832
-1440
-1024
-448
-112
144
432
512
576
608
816
912
384
64
-16
-96
-176
-208
-224
-304
-800
-1440
-1072
-464
-128
128
416
512
576
608
800
928
400
80
-16
-80
-176
-208
-224
-304
-768
-1424
-1104
-480
-144
128
416
512
576
608
784
928
432
80
-16
-80
-160
-192
-224
-288
-736
-1408
-1136
-496
-144
112
400
512
576
608
784
928
464
96
0
-80
-160
-208
-224
-288
-704
-1392
-1152
-496
-160
112
384
512
576
608
768
944
496
96
0
-80
-160
-192
-224
-272
-672
-1376
-1184
-528
-176
96
384
512
576
592
768
944
512
96
0
-64
-160
-192
-224
-272
-640
-1344
-1216
-544
-192
80
368
496
576
592
752
944
544
112
16
-64
-144
-192
-224
-256
-608
-1328
-1248
-560
-208
64
352
512
576
592
736
944
576
112
0
-64
-160
-208
-224
-256
-592
-1312
-1280
-592
-224
64
352
512
576
592
736
944
608
128
16
-64
-144
-192
-208
-256
-560
-1280
-1312
-608
-240
48
336
512
576
592
736
944
640
144
32
-48
-144
-192
-208
-240
-528
-1248
-1328
-640
-240
48
320
512
576
592
720
944
672
144
32
-48
-128
-192
-208
-256
-512
-1216
-1344
-656
-256
32
320
512
576
608
720
944
704
160
32
-48
-128
-192
-208
-240
-480
-1184
-1376
-688
-272
32
304
512
576
608
704
928
720
176
32
-48
-128
-192
-208
-240
-464
-1152
-1392
-704
-288
16
288
496
560
608
704
928
752
192
32
-48
-128
-192
-208
-240
-432
-1120
-1408
-736
-304
16
272
496
560
608
688
912
784
208
48
-32
-112
-192
-208
-240
-432
-1088
-1424
-768
-304
0
272
496
560
608
688
912
800
224
48
-32
-112
-192
-208
-224
-400
-1056
-1424
-800
-336
-16
256
496
560
608
672
896
816
240
48
-32
-112
-192
-208
-224
-384
-1008
-1424
-816
-336
-32
240
480
560
608
672
896
848
256
48
-32
-96
-192
-208
-224
-368
-976
-1440
-848
-352
-32
240
496
560
608
672
880
864
272
48
-32
-112
-192
-208
-224
-352
-944
-1440
-880
-368
-48
224
480
560
608
656
880
880
288
64
-32
-96
-176
-208
-224
-336
-912
-1440
-912
-368
-48
208
480
544
608
656
864
896
320
64
-16
-96
-176
-208
-224
-336
-864
-1440
-960
-400
-64
192
480
560
624
656
864
928
352
80
-16
-96
-176
-192
-224
-320
-832
-1440
-976
-416
-80
192
464
560
624
656
848
944
384
80
-16
-80
-176
-192
-224
-304
-800
-1424
-1008
-416
-96
176
464
560
624
640
848
944
416
80
0
-80
-160
-192
-208
-288
-768
-1408
-1040
-432
-96
160
448
544
608
640
832
960
432
96
0
-80
-160
-192
-208
-288
-736
-1392
-1088
-464
-128
160
432
544
608
640
832
960
464
96
0
-64
-160
-192
-208
-272
-704
-1392
-1120
-464
-128
144
432
560
624
640
816
976
496
112
16
-64
-160
-192
-208
-272
-672
-1360
-1152
-496
-144
128
416
544
624
640
800
976
528
112
16
-64
-144
-192
-208
-256
-640
-1344
-1184
-512
-160
112
400
544
608
640
800
976
560
128
16
-48
-144
-192
-208
-256
-608
-1328
-1216
-528
-176
112
400
544
608
640
784
976
592
128
16
-64
-144
-192
-208
-256
-576
-1296
-1248
-544
-192
96
384
544
608
640
768
976
624
128
16
-64
-144
-192
-208
-240
-560
-1264
-1280
-576
-208
80
368
544
608
624
768
976
656
144
32
-48
-128
-192
-208
-240
-528
-1248
-1296
-592
-224
80
352
544
608
624
752
976
688
160
32
-48
-128
-192
-208
-240
-512
-1216
-1328
-624
-240
64
352
528
608
624
752
960
704
176
48
-48
-128
-192
-208
-240
-480
-1200
-1344
-656
-256
48
336
528
592
624
736
960
736
176
48
-32
-112
-192
-208
-224
-464
-1152
-1360
-672
-256
48
320
528
592
624
720
944
768
192
48
-32
-112
-176
-192
-224
-448
-1120
-1376
-704
-272
32
304
528
592
640
720
944
800
208
48
-32
-112
-192
-208
-224
-432
-1088
-1392
-736
-288
32
304
528
592
640
720
944
816
224
48
-32
-112
-192
-208
-224
-400
-1056
-1408
-768
-304
16
288
512
592
640
704
928
848
240
64
-32
-96
-176
-192
-224
-384
-1024
-1424
-800
-320
0
272
512
576
624
688
912
864
256
64
-32
-112
-192
-208
-224
-368
-992
-1424
-832
-336
-16
256
512
576
640
688
912
880
288
64
-16
-96
-176
-208
-224
-368
-960
-1440
-864
-352
-32
240
496
576
624
672
896
896
304
64
-32
-96
-176
-192
-224
-336
-912
-1424
-896
-368
-32
224
496
576
640
672
880
912
336
80
-16
-80
-176
-192
-224
-336
-880
-1424
-928
-368
-48
224
496
576
640
672
880
928
352
80
0
-80
-160
-192
-208
-320
-848
-1424
-960
-400
-64
208
480
576
640
672
864
944
384
96
0
-64
-160
-192
-208
-304
-816
-1408
-992
-400
-64
192
480
576
640
672
864
960
416
96
0
-64
-160
-176
-208
-288
-768
-1408
-1024
-416
-80
192
480
576
640
672
864
976
448
96
16
-64
-160
-176
-208
-272
-736
-1408
-1072
-432
-96
176
448
560
640
656
848
976
480
112
16
-64
-144
-176
-208
-272
-720
-1392
-1120
-464
-112
160
448
560
640
656
832
992
512
112
16
-64
-144
-176
-208
-272
-688
-1376
-1152
-480
-128
144
448
560
640
656
832
992
544
128
32
-48
-144
-176
-208
-256
-656
-1344
-1168
-496
-144
144
432
560
640
656
816
992
576
128
32
-48
-128
-176
-192
-240
-624
-1328
-1200
-512
-160
128
416
576
640
656
816
1008
608
128
32
-48
-128
-176
-192
-240
-592
-1296
-1232
-528
-176
112
400
560
624
656
800
992
624
144
48
-32
-128
-176
-192
-240
-560
-1280
-1248
-560
-176
112
400
560
624
656
784
992
672
160
48
-32
-112
-176
-192
-224
-528
-1248
-1280
-576
-192
96
384
560
624
656
784
992
704
176
48
-32
-112
-160
-192
-224
-496
-1216
-1312
-608
-208
96
368
544
624
640
768
992
720
192
64
-32
-112
-160
-192
-224
-480
-1184
-1328
-624
-224
80
352
560
624
656
752
976
752
192
64
-16
-112
-176
-176
-208
-464
-1152
-1344
-656
-240
64
336
544
608
640
752
976
784
208
64
-16
-96
-160
-176
-208
-432
-1136
-1360
-688
-256
48
336
544
624
656
752
976
816
224
80
-16
-96
-160
-176
-208
-416
-1088
-1376
-704
-256
48
320
544
608
656
736
960
832
240
80
-16
-96
-160
-176
-208
-400
-1056
-1392
-736
-288
32
304
544
608
656
736
960
864
272
80
0
-80
-160
-176
-208
-368
-1024
-1408
-768
-304
16
288
544
608
656
720
944
896
288
80
0
-80
-160
-176
-192
-352
-992
-1408
-800
-304
16
288
528
608
656
720
944
912
304
96
0
-80
-160
-176
-192
-336
-944
-1424
-832
-320
0
272
528
608
656
720
928
944
336
96
16
-64
-144
-176
-192
-320
-912
-1408
-864
-336
-16
256
528
608
656
704
928
944
352
96
16
-64
-144
-160
-192
-304
-880
-1424
-912
-352
-16
256
528
608
672
704
912
960
384
112
16
-48
-144
-160
-192
-304
-848
-1424
-944
-368
-48
224
512
592
672
704
912
976
416
112
16
-48
-144
-160
-192
-288
-816
-1408
-976
-384
-48
224
496
592
656
688
896
992
432
112
32
-48
-144
-160
-192
-272
-768
-1392
-1008
-400
-64
208
496
592
656
688
880
992
464
128
32
-48
-128
-160
-192
-272
-736
-1392
-1040
-416
-80
192
480
576
656
672
864
1008
496
128
32
-48
-128
-160
-192
-256
-704
-1376
-1088
-432
-96
176
464
592
656
672
864
1008
528
128
32
-32
-128
-160
-192
-256
-672
-1360
-1120
-464
-112
176
464
576
656
672
848
1008
544
144
32
-48
-128
-176
-192
-240
-656
-1328
-1136
-464
-128
160
448
576
656
672
832
1008
576
144
32
-32
-128
-160
-176
-240
-608
-1312
-1152
-480
-128
160
432
576
640
656
816
1008
608
144
48
-32
-112
-160
-176
-224
-576
-1280
-1184
-496
-144
144
416
560
640
656
800
1008
640
160
48
-32
-112
-160
-176
-224
-560
-1264
-1216
-528
-160
128
416
576
640
656
800
1008
656
160
48
-16
-112
-160
-176
-224
-528
-1232
-1232
-544
-176
112
400
560
624
656
784
992
688
176
64
-16
-96
-160
-176
-208
-496
-1200
-1264
-576
-192
96
384
560
624
656
768
992
720
192
64
-16
-96
-160
-176
-208
-480
-1168
-1280
-592
-208
96
368
544
624
640
752
976
736
192
64
-16
-96
-160
-176
-208
-464
-1152
-1296
-624
-224
80
352
544
624
640
752
976
768
208
64
-16
-96
-160
-176
-208
-432
-1120
-1312
-640
-240
64
336
544
608
640
736
944
784
208
64
-16
-96
-160
-176
-208
-416
-1088
-1328
-672
-256
48
320
544
608
640
720
944
800
224
64
-16
-96
-160
-176
-208
-400
-1040
-1328
-688
-256
48
304
528
592
640
720
944
832
240
64
-16
-96
-160
-176
-208
-384
-1008
-1344
-720
-272
32
304
528
592
640
704
928
848
256
80
-16
-80
-160
-176
-208
-368
-976
-1360
-752
-288
16
272
512
592
640
688
912
864
272
80
-16
-80
-160
-176
-208
-352
-960
-1360
-784
-304
16
272
512
576
624
688
912
880
304
80
0
-80
-160
-176
-192
-336
-912
-1376
-816
-320
0
256
512
576
640
672
896
912
320
80
0
-64
-160
-176
-192
-320
-880
-1376
-848
-336
-16
240
496
576
624
672
880
928
336
96
0
-64
-144
-176
-192
-304
-848
-1360
-880
-352
-32
224
496
576
624
672
880
928
368
96
0
-64
-144
-176
-192
-288
-816
-1360
-912
-352
-32
224
496
576
640
672
864
944
400
96
16
-64
-144
-176
-192
-288
-784
-1360
-944
-384
-64
208
480
576
640
656
848
960
416
96
16
-64
-144
-176
-192
-272
-752
-1344
-976
-384
-64
192
464
560
624
640
832
944
432
96
16
-64
-144
-176
-192
-272
-720
-1328
-1008
-416
-96
176
448
560
624
640
816
960
464
112
16
-48
-144
-176
-192
-256
-688
-1328
-1040
-432
-96
160
448
560
624
640
816
960
496
112
16
-48
-144
-176
-192
-256
-672
-1328
-1088
-448
-112
144
416
544
608
624
800
960
512
112
16
-48
-144
-176
-192
-240
-640
-1296
-1104
-464
-128
144
416
544
608
624
784
960
544
112
16
-48
-128
-176
-192
-240
-608
-1280
-1136
-480
-160
128
400
528
592
608
768
960
576
128
32
-48
-128
-176
-192
-240
-592
-1264
-1168
-512
-160
112
384
528
592
608
752
960
592
128
32
-48
-128
-176
-192
-240
-560
-1248
-1200
-528
-176
96
384
528
592
624
752
960
640
144
32
-48
-128
-176
-192
-224
-528
-1216
-1216
-544
-192
96
368
528
592
608
736
960
656
160
48
-32
-112
-176
-192
-224
-512
-1200
-1248
-576
-192
96
352
528
592
624
736
960
688
160
48
-32
-112
-176
-192
-224
-480
-1168
-1264
-592
-208
80
336
528
592
624
736
960
720
176
48
-32
-112
-176
-192
-208
-464
-1136
-1280
-608
-224
64
336
528
592
624
720
944
752
192
48
-16
-96
-160
-176
-208
-432
-1104
-1296
-640
-240
64
320
528
592
624
720
944
784
208
64
-16
-96
-160
-176
-192
-416
-1072
-1328
-672
-256
48
304
528
592
624
704
944
816
224
64
-16
-80
-160
-176
-192
-400
-1040
-1328
-704
-272
32
304
528
592
624
704
928
832
256
80
-16
-80
-160
-176
-192
-384
-1024
-1344
-736
-288
32
288
528
592
624
704
928
864
272
80
0
-80
-160
-176
-192
-352
-976
-1360
-752
-304
16
272
512
592
624
688
928
880
288
80
0
-80
-144
-176
-192
-336
-960
-1360
-784
-304
0
256
512
576
624
688
912
896
304
80
0
-64
-144
-176
-192
-336
-928
-1376
-816
-320
-16
240
496
576
624
672
896
912
320
96
0
-64
-144
-176
-192
-320
-896
-1360
-848
-336
-16
240
496
576
624
672
880
928
352
96
0
-64
-144
-176
-192
-304
-864
-1360
-880
-352
-32
224
480
560
624
656
880
944
368
80
0
-64
-160
-176
-192
-304
-832
-1360
-912
-368
-48
208
480
560
624
656
864
960
384
96
16
-64
-144
-176
-192
-288
-800
-1360
-944
-384
-64
192
464
560
624
656
848
976
416
96
16
-48
-144
-160
-192
-272
-768
-1344
-976
-400
-80
192
464
560
624
640
848
976
448
112
16
-48
-144
-176
-192
-272
-736
-1344
-1008
-416
-96
176
448
560
624
640
832
976
480
112
16
-48
-144
-176
-192
-256
-704
-1328
-1040
-432
-112
160
448
560
624
640
816
992
496
112
16
-48
-128
-176
-192
-256
-672
-1312
-1072
-448
-112
144
432
544
624
640
816
992
528
112
16
-48
-128
-176
-192
-240
-656
-1296
-1120
-464
-128
128
416
544
608
624
800
992
560
128
32
-48
-128
-176
-192
-240
-624
-1296
-1152
-496
-160
112
400
544
608
624
784
992
592
128
32
-48
-128
-176
-192
-240
-592
-1280
-1184
-512
-176
112
384
544
608
624
784
992
624
144
32
-48
-128
-176
-192
-240
-576
-1264
-1216
-544
-176
96
384
544
608
624
768
976
640
144
32
-48
-128
-176
-192
-240
-560
-1232
-1232
-560
-192
96
368
528
608
624
752
976
672
144
32
-48
-128
-176
-192
-224
-528
-1216
-1248
-576
-208
80
352
528
592
624
736
976
704
160
32
-48
-112
-176
-192
-224
-512
-1184
-1264
-592
-208
80
352
544
608
624
736
960
736
176
48
-32
-112
-176
-192
-224
-480
-1152
-1296
-624
-224
64
336
528
608
624
736
960
752
192
48
-32
-112
-176
-192
-224
-464
-1136
-1312
-640
-240
64
336
528
592
624
720
960
784
208
48
-32
-112
-176
-192
-224
-432
-1104
-1328
-672
-256
48
320
528
592
624
720
944
816
224
48
-32
-112
-176
-192
-224
-416
-1072
-1344
-704
-256
48
304
528
592
624
704
944
832
240
48
-32
-112
-176
-192
-224
-400
-1040
-1344
-720
-272
32
288
528
592
624
704
928
848
240
48
-32
-96
-176
-192
-208
-384
-1008
-1360
-752
-288
16
288
512
592
624
688
912
880
272
64
-32
-96
-176
-192
-208
-368
-976
-1376
-784
-304
0
272
512
576
624
688
912
896
288
64
-16
-96
-176
-192
-208
-352
-960
-1376
-832
-320
-16
256
512
576
624
672
896
912
320
64
-16
-96
-176
-192
-208
-336
-928
-1376
-848
-336
-16
240
496
576
624
672
880
928
336
64
-16
-80
-176
-192
-208
-320
-880
-1376
-880
-352
-32
224
496
576
624
656
864
944
368
80
0
-80
-160
-176
-208
-304
-848
-1376
-912
-368
-48
208
480
576
624
656
864
960
400
96
0
-64
-160
-176
-192
-304
-816
-1360
-944
-384
-48
208
480
576
624
656
848
960
416
96
0
-64
-144
-176
-192
-288
-784
-1360
-992
-400
-80
192
464
560
624
640
848
976
448
96
16
-64
-144
-176
-192
-272
-752
-1360
-1024
-416
-80
176
448
560
624
640
832
992
480
112
16
-48
-144
-176
-192
-256
-720
-1344
-1056
-432
-96
160
448
560
624
640
816
992
512
112
16
-48
-128
-176
-192
-256
-688
-1328
-1088
-448
-112
160
432
560
624
640
800
992
544
128
32
-48
-128
-176
-192
-240
-656
-1328
-1120
-464
-128
144
416
560
624
640
800
992
576
128
32
-32
-128
-160
-176
-240
-624
-1296
-1152
-496
-144
128
416
544
608
624
784
992
608
144
48
-32
-112
-160
-192
-240
-608
-1280
-1184
-512
-160
128
400
544
608
624
784
992
640
160
48
-32
-112
-160
-176
-224
-576
-1264
-1216
-528
-176
96
384
544
608
624
768
992
656
160
48
-32
-112
-160
-176
-224
-544
-1248
-1232
-560
-192
96
368
544
608
624
752
992
688
176
48
-16
-112
-160
-176
-208
-528
-1216
-1264
-576
-208
80
352
544
608
624
752
976
720
176
64
-16
-96
-160
-176
-208
-496
-1184
-1280
-592
-208
80
352
544
592
624
736
976
752
192
64
-16
-96
-160
-176
-208
-480
-1168
-1296
-624
-240
64
320
528
592
624
720
960
768
208
64
-16
-96
-160
-176
-208
-448
-1136
-1328
-656
-256
48
320
512
576
608
704
944
800
224
64
-16
-80
-160
-176
-208
-432
-1104
-1344
-688
-272
32
288
512
576
608
704
944
816
240
64
-16
-80
-160
-176
-208
-416
-1088
-1360
-720
-288
16
272
512
576
608
688
928
848
256
80
-16
-80
-160
-176
-208
-400
-1040
-1376
-752
-288
0
272
512
576
608
688
928
864
272
80
-16
-80
-160
-176
-208
-384
-1024
-1376
-784
-320
0
256
496
576
624
688
928
896
304
80
0
-80
-160
-176
-208
-368
-992
-1392
-832
-336
-32
224
480
560
608
672
912
912
320
80
0
-64
-160
-176
-208
-352
-960
-1392
-864
-352
-48
208
480
560
608
672
896
944
352
96
0
-64
-144
-176
-192
-336
-928
-1408
-912
-384
-64
192
464
544
608
656
880
960
368
96
16
-48
-144
-160
-192
-320
-880
-1408
-944
-400
-80
176
448
544
608
656
880
976
400
112
16
-48
-144
-160
-192
-304
-848
-1392
-976
-416
-112
160
448
544
608
656
880
992
432
112
32
-32
-128
-160
-176
-288
-816
-1392
-1024
-448
-144
112
400
512
576
624
848
992
464
128
48
-16
-112
-144
-160
-272
-784
-1376
-1056
-480
-160
96
384
496
560
608
832
992
480
128
48
-32
-112
-144
-176
-272
-752
-1376
-1088
-496
-176
80
368
496
560
608
816
992
512
128
48
-32
-112
-160
-176
-256
-720
-1360
-1120
-512
-192
64
352
480
560
592
800
992
544
128
48
-32
-112
-160
-176
-256
-688
-1344
-1152
-528
-208
64
352
480
560
592
800
1008
576
144
48
-32
-112
-160
-176
-240
-672
-1328
-1168
-544
-208
64
352
496
560
592
784
992
592
144
48
-16
-112
-160
-176
-240
-624
-1296
-1200
-544
-208
64
352
512
576
608
784
1008
624
160
48
-16
-96
-160
-176
-224
-608
-1280
-1216
-560
-208
64
336
496
576
592
768
992
656
160
64
-16
-96
-160
-176
-224
-576
-1264
-1248
-576
-224
48
336
496
576
592
752
992
688
176
64
-16
-96
-160
-176
-224
-544
-1232
-1264
-592
-240
48
320
512
576
608
752
992
720
192
64
-16
-96
-160
-176
-208
-528
-1216
-1280
-624
-240
32
304
496
576
608
736
976
736
192
64
-16
-96
-144
-176
-208
-496
-1184
-1296
-640
-256
32
304
512
576
608
736
976
768
208
64
-16
-80
-160
-176
-208
-480
-1152
-1312
-656
-256
32
288
496
576
608
720
960
800
224
64
-16
-96
-160
-176
-208
-448
-1120
-1328
-688
-272
16
288
496
560
608
704
960
816
224
64
-16
-96
-160
-176
-208
-432
-1104
-1344
-720
-288
16
272
496
560
592
688
928
832
240
64
-16
-80
-144
-176
-208
-416
-1072
-1360
-736
-288
0
256
496
560
608
688
928
864
256
64
-16
-80
-160
-176
-192
-400
-1040
-1360
-768
-304
0
256
496
560
608
672
912
880
288
80
0
-80
-160
-176
-192
-384
-1008
-1376
-800
-320
-16
240
480
560
608
672
912
896
304
80
0
-80
-160
-176
-192
-368
-976
-1376
-832
-320
-16
224
480
560
608
672
896
912
320
80
0
-80
-160
-176
-208
-352
-944
-1392
-864
-352
-32
224
480
560
608
656
880
928
336
80
0
-80
-160
-176
-208
-336
-912
-1392
-912
-368
-48
192
464
544
608
640
864
944
368
80
0
-64
-160
-176
-208
-320
-880
-1392
-944
-384
-64
176
448
544
592
640
848
960
384
80
0
-64
-160
-176
-208
-320
-848
-1392
-976
-400
-80
176
448
528
592
624
848
960
416
96
0
-64
-160
-192
-208
-304
-832
-1376
-992
-400
-80
176
448
528
592
624
832
976
448
80
0
-80
-160
-192
-208
-304
-800
-1360
-1024
-416
-96
144
432
528
592
624
816
976
464
96
0
-64
-144
-176
-208
-288
-752
-1344
-1056
-432
-112
144
416
528
592
624
816
992
496
96
0
-64
-144
-176
-208
-288
-736
-1344
-1088
-464
-128
128
400
528
592
608
800
992
528
96
16
-64
-144
-192
-208
-272
-704
-1328
-1136
-496
-144
112
400
528
592
608
784
992
560
112
0
-64
-144
-192
-208
-272
-672
-1312
-1168
-512
-160
112
384
528
592
608
784
992
592
112
16
-64
-144
-192
-208
-272
-656
-1296
-1184
-528
-176
96
384
528
592
608
768
992
624
128
16
-64
-144
-192
-208
-272
-624
-1280
-1232
-560
-192
80
368
528
592
608
752
976
640
128
16
-64
-144
-192
-208
-256
-592
-1248
-1232
-560
-192
80
352
528
576
608
736
976
672
128
16
-64
-144
-192
-208
-256
-576
-1232
-1280
-592
-224
64
336
512
576
608
736
960
704
160
16
-64
-128
-192
-208
-256
-560
-1216
-1296
-624
-240
48
320
512
576
592
720
960
736
160
16
-64
-128
-192
-224
-256
-528
-1200
-1328
-656
-256
32
304
496
560
592
704
944
768
176
16
-64
-128
-192
-208
-256
-512
-1168
-1344
-688
-272
32
304
512
560
608
704
944
800
192
32
-48
-128
-192
-208
-240
-480
-1136
-1360
-720
-288
16
288
496
560
608
704
944
832
224
48
-32
-112
-192
-208
-240
-464
-1104
-1376
-736
-304
0
272
496
560
608
688
928
848
240
48
-48
-112
-192
-208
-240
-448
-1088
-1376
-768
-304
0
272
496
560
608
688
928
880
256
48
-32
-96
-176
-192
-224
-416
-1040
-1376
-800
-304
0
272
512
576
624
688
928
912
288
64
-16
-96
-176
-192
-224
-400
-1008
-1376
-816
-320
-16
256
512
576
624
688
912
928
320
64
-16
-80
-160
-192
-208
-368
-976
-1376
-848
-320
0
256
512
576
640
688
912
960
352
80
-16
-80
-160
-176
-208
-352
-944
-1376
-880
-336
-16
240
496
576
640
672
896
960
368
80
-16
-80
-160
-192
-208
-336
-912
-1392
-912
-352
-48
224
496
560
624
656
880
976
384
80
0
-80
-160
-192
-208
-336
-880
-1376
-928
-352
-16
224
496
592
640
672
880
992
416
80
0
-80
-160
-192
-208
-320
-848
-1360
-960
-368
-32
224
496
576
640
672
864
992
448
96
0
-80
-160
-192
-208
-304
-816
-1344
-992
-384
-48
208
496
592
640
672
864
1008
496
112
16
-64
-144
-176
-192
-288
-784
-1344
-1040
-416
-64
192
480
592
640
672
848
1024
528
112
16
-64
-144
-176
-192
-272
-752
-1344
-1088
-432
-96
176
464
576
624
656
832
1008
544
112
16
-64
-144
-192
-208
-272
-720
-1328
-1120
-464
-112
160
448
560
624
640
816
1008
576
112
16
-64
-144
-176
-208
-272
-688
-1312
-1152
-480
-128
144
432
560
624
640
800
1008
608
128
16
-64
-144
-192
-208
-272
-672
-1312
-1184
-512
-160
112
400
544
608
640
784
1008
640
128
16
-64
-144
-192
-208
-256
-640
-1296
-1216
-544
-176
112
400
560
608
640
784
1008
672
144
16
-48
-144
-192
-208
-256
-608
-1264
-1248
-560
-192
96
384
544
608
640
768
1008
704
144
32
-48
-128
-192
-208
-256
-592
-1248
-1264
-576
-192
96
384
560
608
640
752
992
720
160
16
-64
-144
-208
-208
-256
-576
-1248
-1328
-624
-224
80
368
544
608
624
736
960
736
160
16
-64
-144
-208
-224
-256
-560
-1232
-1344
-640
-224
64
352
544
592
624
720
944
752
176
16
-64
-144
-208
-224
-256
-528
-1200
-1360
-672
-256
48
320
528
576
608
688
912
768
176
16
-80
-144
-224
-224
-272
-512
-1200
-1392
-720
-272
32
304
512
560
592
656
896
768
176
0
-80
-160
-224
-240
-272
-496
-1168
-1408
-752
-304
16
288
496
544
576
656
880
800
192
0
-80
-160
-224
-240
-272
-480
-1152
-1440
-800
-320
0
256
496
544
576
640
864
816
224
16
-80
-144
-224
-240
-256
-464
-1120
-1440
-832
-336
-16
256
496
544
576
624
848
832
240
16
-64
-144
-224
-224
-256
-448
-1088
-1472
-880
-368
-48
224
464
512
560
608
832
832
240
16
-64
-144
-224
-240
-272
-432
-1072
-1504
-928
-400
-80
176
432
496
544
576
800
832
256
0
-80
-160
-240
-256
-288
-432
-1056
-1504
-976
-416
-96
160
432
496
544
576
784
848
272
0
-96
-160
-240
-256
-288
-432
-1024
-1520
-1008
-448
-128
144
416
480
544
560
768
864
288
0
-96
-160
-240
-272
-288
-416
-992
-1504
-1040
-448
-112
144
416
496
544
576
768
880
320
16
-80
-144
-240
-256
-288
-400
-944
-1488
-1056
-464
-128
144
416
496
560
576
768
896
352
16
-80
-144
-240
-256
-288
-384
-912
-1472
-1088
-464
-128
128
416
496
560
576
768
912
384
32
-64
-144
-224
-256
-272
-368
-864
-1472
-1120
-480
-144
128
400
496
544
560
736
896
416
32
-64
-128
-224
-256
-272
-352
-832
-1456
-1168
-512
-176
96
384
480
544
560
720
896
432
32
-64
-128
-224
-256
-272
-352
-816
-1456
-1216
-560
-208
80
352
464
528
528
704
896
464
32
-64
-144
-224
-272
-288
-352
-784
-1456
-1264
-592
-240
48
336
448
512
528
688
880
480
32
-64
-144
-224
-272
-288
-352
-768
-1456
-1328
-624
-256
16
304
448
496
512
656
864
496
32
-80
-144
-240
-288
-304
-352
-752
-1456
-1360
-656
-288
0
288
416
480
496
640
848
512
32
-80
-160
-256
-304
-320
-368
-736
-1440
-1408
-704
-336
-48
240
400
464
480
608
832
544
32
-96
-176
-256
-304
-320
-368
-704
-1424
-1440
-736
-352
-64
224
400
448
464
592
816
560
32
-96
-176
-256
-320
-336
-384
-688
-1408
-1472
-768
-368
-80
208
384
448
464
576
800
576
48
-96
-176
-256
-320
-336
-368
-672
-1376
-1504
-800
-384
-80
192
384
432
464
560
800
608
48
-80
-176
-256
-320
-336
-368
-640
-1360
-1520
-832
-400
-96
176
384
432
464
560
800
640
64
-80
-160
-240
-304
-320
-368
-624
-1328
-1552
-848
-416
-112
160
368
432
464
544
784
656
96
-64
-160
-224
-304
-320
-352
-592
-1280
-1568
-880
-432
-128
144
368
432
480
560
784
688
112
-64
-144
-224
-288
-304
-336
-560
-1248
-1584
-928
-448
-128
144
384
432
480
544
784
720
144
-48
-144
-208
-288
-304
-336
-528
-1200
-1584
-944
-464
-128
144
384
448
496
560
784
752
176
-32
-128
-192
-272
-288
-320
-496
-1152
-1568
-960
-448
-128
144
400
464
512
560
800
800
208
-16
-112
-176
-272
-288
-320
-480
-1104
-1568
-976
-464
-128
144
400
464
528
576
800
816
240
0
-96
-160
-240
-272
-288
-448
-1040
-1536
-992
-448
-112
144
416
496
544
592
816
864
288
16
-64
-144
-224
-240
-272
-400
-976
-1520
-1024
-448
-112
160
432
512
560
608
816
896
320
48
-48
-112
-208
-224
-256
-368
-928
-1504
-1040
-448
-112
160
432
512
576
624
832
928
368
64
-16
-96
-176
-208
-240
-352
-880
-1488
-1056
-448
-112
160
432
528
-240
-336
-784
-1472
-1184
-528
-176
96
384
496
560
592
768
944
464
64
-32
-112
-192
-240
-256
-336
-768
-1456
-1216
-560
-208
80
368
496
560
576
752
928
480
64
-32
-96
-192
-224
-256
-320
-736
-1440
-1264
-576
-208
64
368
496
560
576
752
944
528
96
-16
-96
-176
-224
-240
-304
-688
-1408
-1280
-592
-224
64
352
496
576
592
752
944
560
112
0
-64
-160
-208
-224
-272
-640
-1376
-1296
-592
-224
64
352
512
576
608
752
976
624
144
32
-48
-128
-192
-208
-256
-592
-1328
-1328
-608
-224
64
352
528
592
608
752
976
656
160
32
-48
-128
-192
-208
-256
-560
-1312
-1344
-624
-240
64
352
528
592
608
752
976
688
160
32
-48
-128
-192
-208
-240
-544
-1280
-1376
-656
-256
48
336
528
592
608
736
960
704
176
48
-48
-128
-192
-208
-240
-512
-1248
-1392
-688
-272
32
320
512
576
608
720
960
736
192
48
-32
-112
-176
-192
-240
-480
-1200
-1408
-704
-272
32
320
528
592
624
720
960
784
208
64
-16
-96
-176
-192
-224
-448
-1152
-1408
-720
-272
48
320
544
608
640
736
976
816
240
64
-16
-96
-160
-176
-208
-416
-1104
-1408
-720
-272
48
320
560
624
672
752
976
864
272
96
0
-80
-144
-160
-192
-384
-1056
-1392
-736
-272
48
320
576
640
672
752
992
896
288
96
16
-64
-144
-160
-192
-368
-1008
-1408
-784
-288
32
304
560
624
672
736
960
896
288
80
0
-80
-160
-176
-208
-368
-992
-1408
-816
-304
16
288
544
608
656
704
944
912
304
80
-16
-80
-176
-192
-224
-368
-960
-1440
-864
-336
-16
256
528
592
640
688
912
912
320
64
-16
-96
-176
-208
-224
-368
-944
-1472
-928
-368
-32
224
496
576
624
672
896
928
336
64
-16
-96
-176
-208
-224
-352
-912
-1472
-976
-400
-64
208
480
560
624
656
864
928
352
80
-16
-96
-176
-192
-224
-336
-880
-1488
-1024
-432
-80
176
464
560
608
640
848
944
384
80
0
-80
-176
-192
-224
-320
-848
-1488
-1072
-448
-112
160
448
544
608
640
832
944
416
96
0
-64
-160
-192
-208
-304
-800
-1488
-1104
-464
-112
144
432
544
608
624
832
944
448
112
16
-64
-144
-176
-208
-288
-768
-1472
-1152
-496
-144
144
432
544
608
624
816
960
480
128
32
-48
-144
-176
-192
-272
-720
-1440
-1168
-496
-144
144
432
560
624
640
816
976
528
144
32
-32
-128
-160
-176
-240
-672
-1424
-1200
-512
-144
144
432
560
624
640
816
992
560
144
48
-32
-128
-160
-192
-240
-640
-1392
-1216
-512
-144
144
432
576
624
656
816
1008
592
160
48
-16
-112
-160
-176
-224
-592
-1344
-1232
-528
-160
128
416
560
624
640
800
1008
624
160
64
-16
-112
-160
-176
-224
-560
-1312
-1264
-544
-176
112
400
560
624
640
800
992
640
160
48
-32
-112
-160
-176
-224
-544
-1296
-1296
-576
-192
96
384
560
608
624
768
976
672
160
48
-32
-128
-176
-192
-240
-528
-1280
-1360
-624
-224
64
352
544
608
624
752
960
688
160
32
-48
-128
-192
-208
-256
-528
-1264
-1376
-656
-240
64
336
528
592
608
736
944
704
160
16
-64
-144
-208
-224
-256
-512
-1248
-1424
-704
-288
16
288
496
560
592
688
912
704
160
16
-80
-160
-224
-240
-272
-512
-1232
-1472
-768
-320
-16
256
480
544
576
672
896
720
160
0
-80
-160
-240
-256
-288
-496
-1216
-1520
-816
-368
-48
224
464
528
560
640
880
736
160
0
-96
-176
-256
-272
-304
-496
-1200
-1552
-880
-400
-80
192
432
496
544
624
848
736
160
-32
-112
-192
-256
-288
-304
-496
-1184
-1600
-928
-432
-112
176
416
496
528
608
832
752
176
-16
-96
-176
-256
-288
-320
-480
-1136
-1600
-960
-448
-112
160
416
496
544
608
832
784
208
0
-96
-176
-256
-272
-304
-448
-1088
-1600
-992
-464
-128
144
416
496
544
592
816
800
224
0
-96
-176
-256
-272
-304
-448
-1056
-1616
-1040
-480
-144
128
400
480
544
592
816
816
240
0
-96
-160
-256
-272
-304
-432
-1024
-1616
-1072
-496
-160
112
384
480
528
560
784
816
256
0
-96
-176
-256
-288
-304
-432
-992
-1632
-1136
-544
-192
80
368
464
512
544
768
832
272
-16
-96
-176
-272
-304
-320
-432
-960
-1632
-1168
-560
-208
64
352
448
496
528
752
832
288
-16
-112
-192
-272
-304
-336
-416
-928
-1632
-1232
-592
-240
32
336
432
496
528
720
832
304
-16
-112
-176
-272
-304
-336
-416
-896
-1616
-1264
-608
-256
16
320
432
496
512
720
832
336
0
-96
-176
-272
-304
-336
-400
-864
-1616
-1312
-624
-272
16
304
432
496
512
704
848
368
16
-96
-160
-256
-304
-320
-384
-816
-1584
-1344
-640
-272
0
304
448
512
528
704
864
416
32
-64
-144
-240
-288
-304
-368
-768
-1552
-1360
-640
-272
0
304
448
512
528
704
880
448
48
-64
-144
-224
-272
-304
-352
-736
-1520
-1392
-672
-288
0
288
448
512
528
704
880
480
48
-48
-128
-224
-272
-288
-336
-688
-1472
-1408
-688
-288
0
288
464
528
544
704
896
528
64
-32
-128
-208
-272
-288
-336
-656
-1440
-1440
-720
-320
-16
272
448
512
528
688
880
544
80
-48
-128
-208
-272
-288
-336
-640
-1408
-1472
-736
-336
-32
256
448
528
544
688
896
576
96
-16
-112
-192
-256
-272
-320
-592
-1360
-1488
-752
-336
-32
256
448
528
544
688
896
624
128
0
-96
-176
-240
-256
-304
-560
-1312
-1488
-752
-336
-16
256
464
544
576
688
912
688
160
32
-64
-144
-208
-224
-272
-512
-1248
-1488
-768
-320
0
272
512
576
608
720
944
736
192
48
-32
-112
-192
-208
-240
-464
-1184
-1504
-768
-320
0
288
512
576
624
720
944
768
224
64
-16
-112
-176
-208
-240
-432
-1136
-1488
-800
-336
0
272
512
592
624
720
944
800
240
64
-16
-96
-176
-192
-224
-416
-1088
-1504
-832
-336
-16
256
512
592
624
704
944
832
256
80
-16
-96
-176
-192
-224
-400
-1040
-1504
-848
-336
-16
256
528
592
640
704
944
848
272
80
-16
-96
-176
-192
-224
-368
-1008
-1504
-880
-352
-16
256
528
592
640
704
928
880
304
80
-16
-80
-176
-192
-224
-352
-960
-1488
-896
-368
-16
240
528
608
656
720
928
896
320
96
0
-80
-160
-192
-208
-336
-912
-1488
-928
-368
-32
240
528
608
656
704
928
928
352
96
0
-64
-160
-192
-208
-320
-864
-1488
-976
-384
-32
240
528
608
672
704
928
944
368
96
16
-64
-160
-176
-208
-304
-832
-1472
-992
-400
-48
224
512
608
656
704
912
960
400
112
16
-64
-160
-192
-208
-304
-800
-1472
-1040
-416
-64
208
496
608
656
688
896
960
416
96
0
-64
-160
-192
-224
-304
-768
-1472
-1088
-448
-96
176
480
592
656
672
880
960
432
96
0
-80
-176
-208
-224
-304
-736
-1456
-1136
-480
-112
160
448
576
640
656
848
960
448
80
-16
-80
-176
-208
-240
-304
-720
-1440
-1168
-496
-128
144
432
560
624
640
832
960
464
80
-16
-96
-176
-224
-240
-304
-688
-1424
-1216
-528
-160
128
416
560
624
640
816
960
496
96
-16
-96
-192
-224
-256
-304
-672
-1408
-1264
-544
-176
112
400
560
624
640
800
960
528
96
-16
-96
-176
-224
-240
-288
-640
-1392
-1296
-576
-192
96
384
560
608
640
800
976
560
112
0
-80
-176
-224
-240
-288
-608
-1360
-1328
-592
-208
96
384
560
624
640
784
976
608
128
0
-80
-160
-224
-240
-272
-576
-1328
-1360
-624
-208
80
368
560
624
640
784
976
640
128
16
-80
-160
-224
-240
-272
-544
-1296
-1376
-640
-224
64
352
560
624
640
768
976
672
144
16
-64
-144
-208
-240
-272
-512
-1248
-1408
-672
-240
64
352
560
624
640
768
976
704
160
16
-64
-144
-208
-224
-256
-496
-1216
-1424
-704
-256
48
336
560
608
640
752
960
720
176
32
-64
-144
-208
-224
-256
-464
-1168
-1440
-720
-272
48
320
544
608
656
752
960
752
192
32
-48
-128
-208
-224
-256
-448
-1136
-1456
-752
-288
32
304
560
624
656
736
960
784
208
32
-48
-128
-208
-224
-256
-432
-1088
-1472
-784
-304
32
304
544
608
656
736
944
816
224
48
-48
-112
-192
-224
-240
-400
-1056
-1488
-816
-320
0
272
544
608
656
720
944
832
256
48
-32
-112
-192
-208
-240
-384
-1024
-1488
-848
-336
0
272
528
608
656
720
928
864
272
64
-32
-112
-192
-208
-240
-368
-976
-1504
-896
-368
-16
240
512
592
656
704
928
880
288
64
-32
-96
-192
-208
-240
-352
-944
-1520
-944
-384
-32
224
512
592
640
688
912
912
320
64
-16
-96
-192
-208
-240
-352
-912
-1520
-976
-400
-48
224
512
592
640
688
896
912
336
80
-16
-96
-176
-208
-224
-336
-864
-1504
-1024
-416
-64
208
496
592
640
688
896
944
368
80
-16
-96
-176
-208
-224
-320
-832
-1504
-1056
-432
-80
192
480
592
640
672
880
944
400
80
0
-80
-176
-208
-224
-304
-800
-1488
-1088
-448
-96
176
480
592
640
672
864
960
432
96
0
-80
-176
-208
-224
-304
-768
-1488
-1136
-480
-112
160
464
576
640
672
864
960
448
96
0
-80
-176
-208
-224
-304
-720
-1456
-1168
-496
-128
160
448
592
640
672
848
976
480
96
0
-64
-160
-208
-224
-272
-688
-1440
-1200
-512
-128
144
448
592
656
672
848
992
528
128
16
-64
-144
-192
-208
-272
-640
-1408
-1232
-512
-128
144
448
608
672
688
864
1008
576
144
32
-48
-128
-176
-192
-240
-592
-1360
-1248
-528
-128
160
464
624
688
704
864
1040
624
160
48
-32
-112
-176
-176
-224
-560
-1312
-1264
-528
-128
160
448
624
688
720
864
1040
656
176
64
-16
-112
-160
-176
-208
-528
-1280
-1280
-544
-144
160
448
624
688
720
848
1040
704
192
64
-16
-96
-160
-176
-208
-496
-1248
-1312
-576
-160
144
432
640
688
720
848
1056
720
192
64
-16
-96
-160
-176
-208
-464
-1216
-1344
-592
-160
144
432
640
704
720
848
1056
768
224
80
0
-80
-160
-160
-192
-432
-1168
-1344
-608
-176
144
432
640
704
736
848
1056
800
240
80
0
-80
-144
-160
-192
-416
-1120
-1360
-640
-176
128
416
640
704
752
848
1056
832
256
96
0
-64
-144
-160
-176
-384
-1072
-1360
-656
-176
128
416
656
704
752
832
1056
864
272
112
16
-64
-144
-160
-176
-368
-1040
-1376
-688
-208
112
384
640
704
752
832
1040
896
288
112
16
-64
-144
-160
-176
-352
-1008
-1408
-736
-224
96
368
640
704
752
816
1040
928
320
112
16
-64
-144
-160
-176
-336
-976
-1408
-784
-240
96
368
624
704
752
816
1040
960
336
112
32
-48
-128
-160
-176
-320
-928
-1424
-816
-256
80
352
624
704
752
816
1024
976
352
112
16
-48
-144
-160
-192
-320
-896
-1424
-848
-288
64
320
608
688
736
784
992
976
368
112
16
-64
-160
-176
-192
-320
-880
-1456
-928
-336
16
288
576
656
720
752
960
976
384
96
0
-80
-176
-192
-208
-320
-864
-1472
-992
-368
-16
256
544
624
688
720
928
976
384
80
-16
-96
-176
-208
-224
-320
-848
-1488
-1040
-416
-48
224
512
608
672
704
912
976
400
80
-16
-96
-192
-224
-240
-336
-816
-1488
-1088
-448
-80
192
496
592
656
688
880
976
432
80
-32
-96
-192
-224
-256
-320
-800
-1488
-1136
-464
-96
176
464
592
656
672
864
976
464
80
-16
-96
-176
-224
-240
-304
-752
-1472
-1184
-496
-128
160
464
592
656
672
864
992
496
96
0
-80
-176
-224
-240
-304
-720
-1440
-1232
-528
-144
144
464
592
656
688
864
1008
512
112
0
-80
-160
-208
-240
-288
-688
-1424
-1264
-544
-144
144
448
592
656
672
848
1008
560
112
16
-64
-160
-208
-224
-272
-656
-1408
-1280
-560
-160
128
432
592
656
672
832
1008
608
128
16
-64
-160
-208
-224
-272
-624
-1376
-1312
-576
-176
112
416
592
656
672
832
1024
640
144
16
-64
-144
-208
-224
-272
-592
-1344
-1344
-608
-192
112
400
592
656
672
816
1024
672
160
32
-64
-144
-208
-224
-256
-560
-1312
-1376
-640
-224
96
384
592
640
672
800
1008
688
160
32
-48
-144
-208
-224
-256
-544
-1280
-1408
-672
-224
80
368
576
640
672
784
992
720
-752
-272
48
336
576
640
672
768
976
816
224
48
-48
-112
-192
-208
-240
-448
-1136
-1488
-784
-288
32
320
560
624
672
752
976
848
240
48
-32
-112
-192
-208
-240
-416
-1088
-1488
-832
-320
16
304
560
640
688
752
976
880
272
64
-16
-96
-192
-208
-240
-400
-1056
-1504
-864
-320
16
288
560
640
688
752
976
912
304
80
-16
-96
-176
-208
-224
-384
-1008
-1520
-912
-336
0
272
560
624
688
736
960
928
320
80
-16
-96
-176
-208
-224
-368
-976
-1520
-944
-368
-16
256
528
608
672
720
944
944
336
80
-16
-96
-192
-208
-240
-368
-960
-1536
-1008
-400
-48
224
512
608
656
704
928
960
368
64
-16
-96
-192
-224
-240
-352
-928
-1552
-1056
-432
-80
208
512
592
656
704
912
960
384
64
-32
-96
-192
-224
-256
-352
-896
-1536
-1104
-448
-96
176
480
592
640
688
896
976
416
80
-16
-96
-192
-224
-256
-352
-848
-1536
-1152
-480
-112
176
480
592
656
688
880
992
448
80
-16
-96
-192
-224
-256
-336
-816
-1520
-1184
-496
-128
160
464
592
656
688
880
1008
480
80
-16
-96
-192
-224
-240
-320
-768
-1488
-1216
-512
-144
144
464
592
656
688
864
1008
512
96
-16
-96
-176
-224
-240
-304
-736
-1472
-1248
-528
-144
144
448
592
656
688
864
1024
544
112
0
-80
-176
-224
-240
-304
-704
-1456
-1296
-560
-176
128
432
576
656
672
848
1024
576
112
0
-80
-176
-224
-240
-288
-672
-1424
-1328
-576
-192
112
416
592
656
672
832
1024
608
128
16
-64
-160
-224
-240
-288
-640
-1392
-1360
-608
-192
112
416
592
640
672
832
1024
640
128
16
-64
-160
-208
-224
-272
-608
-1360
-1376
-624
-208
96
400
576
640
672
816
1024
688
160
32
-64
-144
-208
-224
-272
-576
-1328
-1408
-656
-224
80
384
576
640
672
800
1008
720
176
32
-48
-144
-208
-224
-272
-544
-1312
-1440
-688
-256
64
352
576
640
672
784
1008
752
176
32
-64
-144
-208
-224
-272
-528
-1264
-1456
-720
-256
64
336
560
624
672
768
992
784
192
32
-48
-128
-208
-224
-256
-496
-1232
-1488
-752
-272
48
320
560
624
656
768
992
816
208
32
-48
-128
-208
-224
-272
-480
-1200
-1504
-784
-272
48
304
544
624
656
752
976
832
224
32
-48
-128
-224
-240
-256
-464
-1168
-1520
-832
-320
16
288
544
608
656
736
976
864
240
48
-48
-128
-208
-224
-256
-448
-1120
-1552
-880
-336
0
272
528
608
656
736
960
880
272
48
-32
-112
-208
-224
-256
-416
-1088
-1552
-912
-368
-16
256
528
608
672
736
960
912
288
64
-32
-112
-208
-224
-256
-400
-1040
-1568
-960
-384
-32
240
528
608
656
720
944
928
320
64
-32
-112
-208
-224
-256
-384
-992
-1568
-992
-400
-48
224
512
592
656
704
928
944
352
64
-32
-96
-192
-224
-240
-368
-960
-1552
-1040
-416
-64
224
512
592
656
704
928
960
368
80
-16
-96
-192
-224
-240
-352
-912
-1552
-1072
-432
-80
208
496
592
656
704
912
976
400
80
-16
-96
-192
-224
-256
-352
-880
-1552
-1120
-464
-96
192
480
592
656
688
896
992
432
80
-16
-96
-192
-224
-240
-336
-848
-1552
-1168
-496
-112
160
480
592
656
688
880
992
464
80
-16
-96
-192
-224
-256
-336
-816
-1536
-1216
-512
-144
144
464
592
656
688
880
1008
496
96
-16
-96
-192
-224
-256
-336
-784
-1504
-1248
-544
-160
144
448
592
656
688
864
1024
528
96
0
-80
-176
-224
-240
-320
-736
-1488
-1280
-560
-160
128
448
592
656
688
864
1024
560
112
0
-80
-176
-208
-240
-304
-704
-1456
-1312
-560
-176
128
432
592
656
672
848
1024
608
128
16
-64
-160
-208
-240
-288
-656
-1424
-1344
-592
-192
128
416
592
656
688
832
1024
640
128
16
-64
-160
-208
-240
-288
-640
-1392
-1376
-608
-192
112
400
576
656
688
832
1040
672
144
16
-64
-160
-224
-240
-288
-608
-1360
-1424
-656
-240
80
400
592
656
688
816
1024
704
160
32
-64
-144
-208
-224
-272
-576
-1328
-1440
-688
-256
80
368
576
640
672
816
1024
736
176
32
-48
-144
-208
-224
-272
-544
-1296
-1472
-720
-272
48
352
576
640
672
800
1008
784
192
32
-48
-128
-208
-224
-272
-512
-1264
-1504
-768
-288
48
336
576
640
672
784
1008
800
208
32
-48
-128
-208
-224
-256
-496
-1232
-1536
-800
-320
32
336
576
640
688
784
1008
832
224
48
-48
-128
-208
-224
-256
-464
-1184
-1536
-832
-336
16
304
560
640
688
768
1008
880
256
48
-32
-112
-208
-224
-256
-448
-1136
-1536
-864
-336
16
304
560
640
688
768
992
896
272
64
-32
-112
-192
-224
-256
-432
-1104
-1552
-896
-352
0
288
560
624
688
752
976
912
304
64
-32
-112
-192
-208
-240
-416
-1056
-1552
-928
-368
-16
272
560
640
688
752
976
944
320
64
-32
-96
-192
-208
-240
-384
-1008
-1552
-960
-368
-16
256
544
624
688
736
960
960
352
80
-16
-96
-192
-208
-240
-368
-976
-1552
-1008
-400
-32
256
544
624
688
736
960
992
384
80
-16
-96
-192
-208
-240
-368
-928
-1552
-1056
-416
-48
224
528
624
688
736
944
1008
400
80
-16
-96
-192
-208
-240
-352
-896
-1536
-1088
-432
-64
224
512
624
688
720
928
1008
432
80
-16
-96
-192
-224
-240
-336
-864
-1520
-1120
-448
-80
208
512
624
688
720
928
1024
464
96
-16
-80
-176
-208
-240
-336
-816
-1520
-1184
-496
-112
176
496
608
688
720
912
1040
496
96
0
-80
-176
-224
-240
-320
-784
-1504
-1232
-512
-128
176
480
624
688
720
896
1056
544
112
0
-80
-176
-224
-240
-320
-752
-1488
-1264
-528
-144
160
480
624
688
720
896
1056
576
112
0
-80
-176
-224
-240
-304
-720
-1456
-1296
-560
-160
144
464
608
688
720
880
1056
608
128
16
-64
-160
-208
-240
-304
-688
-1440
-1328
-576
-176
128
448
608
688
704
864
1056
640
144
16
-64
-160
-208
-240
-288
-640
-1408
-1360
-608
-192
128
432
608
672
704
848
1056
672
144
16
-64
-160
-208
-224
-288
-608
-1376
-1392
-640
-208
112
416
608
672
704
848
1056
720
160
32
-64
-144
-208
-224
-272
-592
-1344
-1424
-656
-224
96
400
592
672
704
832
1040
752
176
32
-48
-144
-208
-224
-272
-560
-1312
-1456
-704
-256
80
384
592
672
704
816
1040
784
192
48
-48
-128
-208
-224
-272
-528
-1264
-1472
-736
-272
64
368
592
672
704
816
1040
816
208
48
-48
-128
-208
-224
-272
-512
-1232
-1504
-768
-288
48
352
576
656
704
800
1024
848
224
48
-48
-128
-208
-224
-256
-480
-1184
-1504
-800
-304
48
336
576
656
704
800
1024
880
256
48
-32
-112
-208
-224
-272
-464
-1152
-1520
-832
-304
32
320
576
656
704
784
1008
912
272
48
-32
-112
-208
-224
-256
-448
-1120
-1536
-880
-336
16
304
576
640
704
768
1008
928
288
64
-32
-112
-208
-224
-256
-432
-1088
-1552
-928
-368
0
288
560
656
704
768
992
960
320
64
-32
-112
-192
-224
-256
-416
-1040
-1552
-960
-368
-16
272
544
640
704
752
976
976
352
64
-32
-112
-192
-224
-256
-384
-1008
-1552
-992
-400
-32
256
544
640
704
752
960
992
368
80
-16
-96
-192
-224
-256
-384
-960
-1552
-1040
-416
-48
240
528
624
704
736
960
1008
400
80
-16
-96
-192
-224
-240
-368
-912
-1536
-1072
-432
-64
224
528
624
704
736
944
1024
432
80
-16
-96
-192
-224
-240
-352
-880
-1520
-1104
-448
-80
208
512
624
688
720
928
1024
464
96
-16
-96
-192
-224
-240
-336
-848
-1520
-1152
-480
-96
192
512
624
704
720
912
1040
496
96
-16
-96
-176
-224
-240
-336
-800
-1504
-1184
-496
-112
176
480
608
688
720
912
1056
528
112
0
-80
-176
-224
-240
-320
-768
-1488
-1232
-528
-144
176
480
608
688
