1264
592
48
176
1312
48
-464
208
1568
-128
-224
800
224
-96
528
944
256
-208
-192
-1744
-1856
800
1152
848
432
-144
-208
160
576
-272
-896
-400
688
-304
-1216
-1200
-1600
-1280
-1744
-752
-864
-1824
-1392
-288
832
224
-192
-576
32
-1120
-560
1072
1200
256
512
240
-192
-624
-960
-64
-96
-80
-896
-416
80
-272
688
-480
-304
176
784
144
512
848
736
16
368
288
160
-16
-480
-1888
0
480
192
-160
-1184
-320
160
1104
496
320
144
-352
-1056
-160
672
704
560
-704
-1264
-1264
-1024
-288
1200
320
64
-304
-112
32
176
-272
-224
-624
-48
-1840
-832
32
64
-912
-640
-272
-400
-1184
-1312
528
624
224
-800
-224
-496
-1248
-1200
-64
80
-272
-1440
-704
640
256
240
-128
-560
96
0
-176
384
864
-112
320
128
-240
208
1680
1120
576
592
-96
-224
272
-640
-896
-192
-672
320
816
-96
-352
-1152
448
896
-528
-48
112
-48
-320
-64
480
352
-1552
-784
80
512
112
96
32
-912
368
848
-224
928
624
768
-624
-1120
640
416
-336
-272
-336
576
1648
-400
176
400
-992
-1056
-304
-688
-1296
-624
64
-304
-1152
112
-464
-800
672
1008
288
-592
-512
-256
-784
-336
64
128
768
784
1008
-80
48
464
-96
-528
-704
288
-288
-1024
-432
224
-16
992
160
-240
-416
-1232
-624
-400
-1008
-784
-80
-336
224
-384
-368
-928
688
64
-224
-320
64
512
-1408
-384
16
416
896
-288
1120
1920
848
432
-48
-1696
-1328
-816
-1584
416
496
-432
-528
-80
400
-528
-1600
-112
592
896
-1648
1056
-16
-736
464
272
736
1168
608
192
192
320
1472
-160
-368
736
128
304
464
496
-656
-1376
-1024
-592
-1152
640
976
480
-1104
-656
672
-80
-128
-256
80
-704
-528
1568
-112
48
0
464
512
-64
-800
-576
656
80
672
544
-608
384
224
-528
-544
-144
-320
-496
272
896
832
-320
-784
176
448
-512
-624
352
0
-112
304
-304
-64
672
288
-656
112
320
528
320
432
1392
208
16
848
368
-896
-528
-528
-848
-1072
-608
-256
208
512
-320
-1024
-1104
80
64
320
320
944
160
240
112
464
1200
480
-16
256
384
944
80
-736
-544
-384
1200
704
1024
-144
-448
-608
-1440
-704
1424
-608
-768
-256
464
320
720
-304
-144
272
416
464
-320
-736
320
672
-1024
-1760
-1088
48
-352
-960
-400
-1152
-368
-1104
144
704
-240
336
-128
336
-704
-336
320
688
192
-448
-1392
-608
-64
-720
-1424
-448
704
592
144
608
1616
640
320
-336
-1408
-288
-272
-1056
-576
-1328
-320
-1456
-928
528
1312
896
688
208
-704
-704
-864
-416
192
-272
-16
-336
352
592
832
400
192
16
-688
-544
112
784
512
304
416
144
-384
160
1088
1248
1952
656
80
528
464
-288
-1088
-416
1440
1344
1104
1008
528
1280
400
-512
-752
-960
144
672
928
592
208
544
-176
528
240
464
-256
-176
-176
-544
-144
0
-144
-192
-112
544
400
400
-240
368
992
864
704
416
512
-480
-272
752
-32
-80
-1376
-352
-544
-784
-1456
-1024
528
1328
-80
-528
-336
-144
64
-256
-608
1040
240
-64
1504
432
336
496
48
928
816
-336
400
592
-816
-1344
-416
-1264
-176
304
400
752
480
704
-368
-1360
-64
1344
848
-656
256
704
-240
-592
1744
-48
-640
-544
-1104
576
1520
1008
64
48
80
-304
-304
-1168
208
-640
-928
-96
80
560
784
528
-352
560
400
416
960
528
-32
32
-16
160
336
-32
800
368
-1376
-688
224
-448
-304
864
32
-992
-144
1168
784
64
-592
-1184
-832
-448
256
480
704
1184
1008
1104
1232
1392
-288
-624
496
1008
352
-816
16
576
352
1232
-400
-384
416
48
-448
-912
-704
-304
-1008
-544
-416
-64
-688
-1136
-1008
-512
32
1040
304
672
-64
256
-144
160
-208
432
576
-496
-1104
432
432
-240
-992
784
1008
1728
1536
1136
-96
-512
-960
32
752
160
-336
-320
-32
-656
-1280
-1328
-976
-144
-400
-736
-352
16
-480
-224
48
160
832
1200
704
832
624
320
-96
1264
-864
-1056
-288
-880
-1648
-1632
384
-64
1152
112
-288
-912
-1120
496
272
-288
-272
432
144
-672
256
592
-192
-208
720
48
-864
608
-512
-704
144
704
-16
-304
-1392
-880
-336
80
32
256
0
-656
-528
448
-192
-144
-368
-928
-816
-800
-224
368
-576
-176
-352
272
1136
672
-96
624
560
848
896
976
1008
-480
-32
-1200
-912
512
816
560
1520
1056
-816
-336
-848
544
48
-544
-416
-816
-368
-176
-320
480
-176
-96
-112
560
288
144
512
800
896
96
1072
-1168
-992
-800
-944
1392
496
320
240
-240
0
448
224
-400
-448
1040
-112
-32
-640
-320
1344
592
432
224
-912
-1504
-784
-928
-784
752
272
464
592
-560
-544
-800
-736
-400
144
-192
1184
1616
1744
240
-768
400
1280
1136
1792
1360
-48
864
-736
-976
944
352
560
112
352
-32
208
704
-48
1152
528
-464
1168
-384
272
-64
-736
-560
-1008
320
416
1600
1376
352
304
464
464
-976
-160
-496
112
-576
16
784
640
1056
688
0
-272
-688
-816
-240
-64
960
-176
32
480
-1008
-96
192
-560
240
-208
-720
-608
912
816
368
-480
-816
-464
0
304
144
-432
-256
112
240
1056
64
-1616
-16
96
64
752
-48
-752
-128
-1456
-1168
-144
288
592
-80
-1632
-896
-1072
576
-128
704
464
736
864
384
-288
464
-736
448
1104
832
-320
64
-128
-352
-336
-288
-512
1568
176
-208
656
-496
-1792
-960
-256
-656
-16
-512
-48
1056
-272
-400
528
1504
1408
640
-1408
-1312
144
1072
672
96
-752
304
816
544
-128
208
-448
1488
1840
544
-256
-480
256
96
432
704
-512
-288
48
864
1568
1088
-144
-448
208
-80
-96
-16
256
-672
-608
-944
368
432
528
480
864
1600
1120
736
1088
1520
1248
-496
736
-80
-176
-368
192
-368
-1792
-1872
-1408
448
864
-64
-1168
-544
-16
-64
-816
-928
-448
-464
-992
-1184
-112
752
-880
-608
480
1088
272
-768
-800
352
-944
-352
-592
-1040
704
960
1792
448
752
368
464
48
208
720
-432
384
48
640
-80
-560
272
-672
304
1056
384
512
304
-400
48
1072
1136
304
96
-1312
-1488
-1040
-720
656
416
-80
144
640
-416
-80
-880
-1520
-224
320
-1072
-896
-768
-1232
-912
-624
-768
-96
-368
-512
560
-1040
176
1216
400
944
672
112
-1024
-384
32
64
576
752
-736
-112
640
-160
-384
384
592
224
-240
-80
1792
336
-368
560
-672
-1712
-992
-608
-160
-288
-336
-16
48
736
-464
-1744
-1696
240
160
-416
208
608
-384
-528
320
-784
-960
-896
-688
-384
240
-448
-688
400
-400
224
1232
32
32
-960
-1184
-624
-400
-128
832
-672
-1488
-576
-864
-1296
-1712
-800
-768
-784
-208
-704
-608
-512
-448
-96
-80
-624
-1120
-416
-480
528
800
-752
-240
32
-576
544
816
-112
-608
-560
-16
-720
-224
-128
-320
160
288
240
96
-544
512
896
208
496
896
704
1008
128
-176
-736
-1120
96
464
-128
16
-176
-208
976
1104
-480
-1104
-176
416
784
48
-1120
-624
-640
-1216
32
-512
-688
-1200
-976
224
496
128
176
240
976
240
-544
48
512
-384
-32
-736
464
1840
1328
1728
1152
16
-224
-992
-928
-784
-352
176
-432
-192
-144
560
-400
-64
576
-304
-176
176
448
528
-112
-672
-416
-1040
1280
-48
1072
752
-384
-784
-1552
-464
-224
192
1280
608
-32
1040
1664
768
288
-112
-512
-1280
-352
-688
-1392
-1312
-880
416
240
-896
80
640
1376
560
64
-176
-928
-352
640
-304
-160
-96
-384
448
624
672
1312
368
800
880
176
864
-176
272
224
-112
240
1376
1024
160
48
176
1072
1040
-240
-16
1328
736
528
544
-336
832
1408
-288
-1120
-176
-688
-288
1120
592
-784
880
1536
-192
-880
64
-832
-352
96
656
736
368
-480
-368
-1520
-336
-704
-1616
-1728
-672
288
256
-960
-736
-400
-1088
-944
-880
-448
-272
-352
560
224
-384
416
544
592
0
80
432
112
816
544
112
-256
208
-880
-400
-608
-128
336
1536
-128
80
960
688
256
816
-176
64
-368
-672
-480
-704
-1936
-1888
-256
752
-288
-960
-1840
-1056
-832
-688
-512
-128
416
832
128
-16
-640
-208
-496
-432
1008
176
-256
464
704
-720
-400
-864
-48
672
-256
-352
-576
-736
-352
-768
-192
-704
-576
-32
384
1344
800
64
304
400
240
368
16
-320
384
496
-80
-304
-32
208
-48
-48
1408
1696
352
-528
-16
768
-400
-208
1216
-352
-272
-768
-592
48
-160
-528
-256
-832
48
128
368
-16
144
-256
-400
288
-240
416
272
496
-16
-352
-944
-16
64
-720
-304
48
656
1264
928
400
-1072
-1184
-848
-336
-688
-864
384
-112
-400
192
848
-368
-352
-32
-560
-144
688
816
256
1376
384
-720
-1088
-1504
-880
160
0
-512
-304
944
832
64
864
416
64
480
336
-352
-1312
-1216
-368
544
1760
96
-384
128
-48
304
368
-128
16
-96
-928
-848
-1376
-1104
-1840
-1392
-400
-400
688
1984
352
976
256
-912
-592
-288
-624
320
656
368
336
304
576
1584
480
464
-1424
-944
240
0
1136
1680
880
-304
-416
-544
-1120
-32
48
592
976
448
352
48
240
480
800
1040
144
-80
-528
-672
-432
-112
-352
688
1040
208
656
-224
656
112
912
336
400
1168
528
336
-928
-672
832
48
-64
304
64
160
688
-784
-1136
48
-512
-64
-368
-864
-64
928
368
-864
-128
-752
-384
-912
-592
304
-1008
-416
-848
368
16
1040
544
-464
112
-432
432
-512
16
480
976
1136
1008
560
336
1136
272
-528
-816
-352
144
-32
-464
576
240
1808
960
384
48
432
448
-224
-784
80
96
-272
464
-624
-304
-784
-720
-608
848
416
-1248
272
960
-496
-1552
-576
-448
-1264
-272
-592
0
464
64
304
-592
-848
-304
-16
-320
448
1280
-240
-976
-640
-112
-80
-64
160
-16
-192
592
-304
-528
32
-64
176
-1152
-320
448
1520
624
-1184
-496
-1616
432
1280
720
1392
544
-192
-288
480
736
1216
112
32
-608
976
1136
64
160
1472
464
384
-624
704
1520
480
-192
-352
-352
-176
-80
-880
-464
-112
-1920
-1424
-128
-320
528
-672
-1056
112
1008
-512
-160
-304
-128
800
1152
-240
-1424
-1088
176
-480
-160
48
544
-64
-720
128
1392
864
-160
-208
752
-176
224
-592
-800
528
1680
-240
-1408
512
1456
224
16
-368
336
-592
-832
224
160
-880
160
304
-624
-448
-560
-752
0
-480
-400
144
976
1440
16
1072
64
288
448
528
-560
192
384
-64
128
976
368
400
16
912
1152
32
-96
752
96
-336
752
576
272
-736
-1344
-224
-432
-1168
-464
-592
-64
-304
128
1040
320
96
-1152
-80
-416
752
-16
-400
-224
-496
-240
640
176
320
0
-848
-384
-640
464
224
-192
-304
896
1840
-288
400
672
32
-464
160
848
816
384
0
-656
-528
192
784
784
1120
304
16
352
720
592
704
496
-144
1824
1408
-368
-304
320
-192
-384
1024
1664
1152
1088
-240
592
624
64
-208
-320
48
-720
-192
-1056
-848
528
1024
400
-352
240
112
672
-448
-1200
-704
480
160
720
-464
-112
1040
208
608
1024
816
832
544
224
608
784
288
-336
-304
864
144
1056
144
1264
672
-832
-1280
-192
-416
-928
-1008
-720
-496
-400
832
1280
672
-448
-1456
-256
-176
-352
368
160
-1296
-816
-1456
-624
-672
-768
384
592
624
160
1184
800
32
480
432
16
224
-464
-928
-1296
-416
-544
128
-544
-928
-912
-176
16
400
672
544
816
1456
464
-400
256
720
240
512
-272
1456
480
832
464
-48
1600
1136
-432
-832
-224
768
864
1296
-896
256
448
-928
-896
-80
1312
-272
-208
272
-48
-656
-544
-1360
208
-176
-688
-1408
-96
-912
-368
-48
-48
-208
-144
-224
-16
160
576
-48
-528
672
-48
48
32
-1408
-1216
16
192
-704
816
32
-48
384
400
-128
384
-192
160
352
-288
-448
-832
0
928
16
-656
-288
416
144
384
-240
-1296
880
800
16
-288
-544
-1856
-720
448
832
0
-496
-864
688
384
512
48
-736
-1312
160
-832
-1344
-544
-352
816
864
1520
512
-192
720
-176
704
176
-832
-992
-1808
-720
-480
96
112
-608
-400
448
64
992
480
-288
-720
-1520
-720
720
128
736
-1440
-592
-176
1104
1728
1024
608
144
-160
784
-80
16
1584
1120
-256
128
16
-864
-848
-512
608
240
-576
-528
-640
416
624
800
528
240
96
128
-1184
-48
192
-320
640
160
16
-208
768
736
-704
-640
48
-208
-704
-704
-768
-944
-144
-1216
-96
-704
-672
-608
-1040
32
-176
-640
-608
-368
64
-64
-1264
-704
-112
368
-160
384
864
592
240
112
1344
624
384
-448
-640
448
-176
-304
592
1472
912
1008
624
80
208
784
64
-576
-624
-144
16
-736
-1200
-560
240
-640
-752
-976
-1312
-656
304
128
-16
-816
-1200
-976
-528
-288
-352
720
1232
784
48
-576
176
16
-736
560
1504
416
-496
-272
240
608
960
-48
-592
-1776
80
336
-272
208
-1296
-720
-160
-832
-144
192
-272
-1248
-864
-928
816
864
-96
352
-144
192
-144
720
-912
256
384
896
560
144
336
-368
96
16
256
-768
224
-128
-784
96
688
1104
-592
-1120
-1312
208
-128
-464
-512
-368
-208
16
-1536
-448
-992
-1072
-368
32
144
-240
-1504
192
384
784
-112
64
1552
704
-144
1312
1296
800
336
-368
-432
-272
-544
304
896
1152
-32
-768
-176
-1632
-1616
-272
-1088
-1136
80
0
-448
-560
-272
-224
288
-128
1008
96
-176
-176
-64
-144
736
944
864
320
816
224
560
-224
-880
-800
-128
16
-976
-864
-768
144
0
-688
1216
1008
-288
-736
336
448
64
-240
-944
-1632
-1120
256
-176
128
240
448
128
-112
-432
0
240
496
-832
-688
32
-288
16
592
448
-416
-816
-320
-944
-1344
-960
320
640
-128
-112
-64
-208
-464
-112
-544
288
-240
-784
-1360
-448
-224
-752
688
1280
32
-192
-800
-928
-304
848
-240
576
656
784
480
1632
1904
336
176
1024
672
592
672
416
-352
-288
-1088
-624
0
-416
-1376
-80
-544
-560
608
912
-272
-144
-464
-448
16
-144
784
304
768
496
1872
208
-336
672
-144
304
-160
368
-848
-736
672
-416
192
32
-672
-656
-704
-1216
-528
768
1024
192
-464
-1200
-336
144
880
16
176
-960
-864
144
480
1168
304
1072
1040
576
560
-944
-880
-1040
-720
512
112
576
992
256
-352
848
-160
576
752
-1120
352
1536
688
-112
576
288
480
240
432
1120
384
1104
32
80
768
352
496
-112
-1504
-656
544
-96
0
496
-1280
-176
208
1728
1136
896
320
-400
224
128
160
-416
736
80
384
656
320
160
-880
-656
-1696
-80
624
-176
-1440
-368
-240
-960
96
-384
-1024
-368
-16
-736
-528
-32
416
688
896
320
560
848
1728
1104
784
416
672
-752
-1136
-496
32
1280
192
-688
-80
-720
-784
176
-752
-800
80
-272
544
608
240
-16
32
240
-304
-416
-1136
-1136
-1200
1072
1296
-720
-1008
464
464
-576
656
1056
-176
-448
736
32
-128
-1136
-144
464
288
176
-480
0
-336
-480
96
1440
240
464
192
576
-272
-976
-848
64
384
944
-272
688
896
128
-832
-608
208
112
400
1072
448
832
640
512
592
-1120
-576
128
800
112
592
144
128
-544
80
368
448
-688
-912
-688
-640
688
-512
-896
-464
352
-96
-736
-1056
-1952
-816
-720
-16
864
1312
1424
592
896
-816
-448
-1184
832
96
-96
-576
-1280
-1232
-320
0
-16
-400
544
-480
-720
-848
-1824
-1504
-32
-32
-288
400
784
560
944
-272
-336
336
656
480
208
32
-208
-192
-304
-832
-368
-128
144
512
-16
1056
-864
-576
1216
512
96
48
-448
-592
80
144
-1024
608
192
1712
1216
1296
848
-896
-448
-1376
-1936
-912
-1040
416
896
-128
-2032
-288
96
-512
-160
-400
304
640
752
368
0
688
-1040
-224
-144
-496
1392
992
400
-864
-32
208
240
-160
-1008
-1040
-1344
336
848
-464
-16
-112
864
160
-544
624
864
-928
608
752
512
1008
1424
496
1136
-80
-288
240
544
944
288
464
256
-528
256
944
832
1376
96
576
112
-1360
-1008
-864
272
-352
336
-304
768
864
736
464
640
-480
-48
688
-544
384
304
144
368
736
-720
-576
-672
32
-192
496
-32
-64
304
-256
-848
464
208
-816
480
384
-144
-304
-272
-608
-624
528
1040
736
-848
-480
-144
608
448
-768
160
-208
-384
-1392
-1472
-992
-720
-128
768
-560
-304
112
-880
0
-256
112
-448
128
-416
-320
528
1264
608
48
480
-32
-688
416
-1120
-1392
-1168
384
-400
-1024
-272
-512
-1472
-1040
-880
48
624
896
928
768
-1008
-592
960
-208
624
752
96
144
-448
-928
-592
416
-992
-64
80
-800
-1824
-992
-688
-480
-1344
-32
-928
-304
128
704
-16
-304
-192
-192
144
-64
992
704
-496
416
640
32
192
-64
-416
528
1648
912
-336
192
-16
240
-992
384
576
-112
-320
-336
1040
720
320
1040
944
352
-80
-208
0
32
1184
-272
-976
608
-272
-80
240
16
-352
-656
-528
1344
848
560
-896
-64
256
-320
-1040
-464
112
-288
64
192
-304
-608
0
864
224
-624
-784
-592
-192
160
272
176
128
304
-384
208
-448
416
512
272
32
240
-1552
-112
-304
-1008
-640
-352
-704
-624
400
1120
-48
336
368
928
784
-336
-544
1216
688
-48
432
-688
-704
80
-384
-304
624
320
128
-416
-848
128
-384
-288
-2016
-352
1440
-224
-352
-368
208
32
-848
128
784
560
368
480
960
1632
592
400
-112
-800
-96
-16
1152
592
272
-304
400
464
272
304
816
48
-32
592
-128
-832
-640
336
-528
-512
-368
-80
-48
-784
160
640
-96
-624
272
336
32
112
544
-1008
-1568
-1776
-1136
-544
-96
112
-416
-1184
-896
-1504
-608
-720
-16
-160
208
976
688
-448
-272
864
832
-64
592
800
192
560
592
928
-304
-816
-912
-544
-400
-992
560
-384
-32
-336
-1152
-656
-1184
-64
480
1696
960
704
608
-608
32
384
224
912
240
144
1328
240
512
-432
-400
-128
144
896
576
48
-544
-624
-16
864
368
-560
-304
0
-64
-432
224
80
768
656
1168
576
0
240
784
-176
112
0
-640
-880
-368
768
-160
-96
272
32
560
0
1680
2032
-144
-64
384
1488
-48
-656
1200
1408
864
80
-400
992
1040
176
1104
1264
272
-368
-368
-656
-576
928
480
-96
704
80
144
1616
1296
720
-640
-1328
128
384
-480
-160
432
816
-752
176
-464
-896
-432
-416
1344
672
-288
-96
-256
-112
736
1232
544
-48
1184
368
1680
1056
-1040
-144
176
-528
176
224
-48
32
-704
960
944
544
144
-336
-416
448
128
-1040
-656
-384
288
-624
-144
1184
592
-672
-1392
-1504
-448
-512
-368
-1072
-384
-112
-480
-1024
-1040
-512
-208
-288
32
-368
-1552
752
1776
736
128
304
-464
-864
-560
240
-160
-704
80
-496
240
480
544
-704
-1808
-80
720
-400
-176
-416
-576
448
-160
-608
-352
-48
-304
-960
-480
256
-624
224
-208
-1024
-480
-544
-272
992
-32
496
-400
-144
912
1072
848
192
-688
-384
-944
-1680
-1600
-256
416
16
-176
-32
-1024
-1920
-32
1024
1104
816
1440
-64
-368
-368
80
-256
-400
-1216
-784
272
-224
1136
1680
-224
-416
336
624
656
704
1568
-992
-1104
0
512
688
608
896
624
0
-384
416
400
384
480
48
-1104
-352
-592
320
768
-256
1104
368
368
656
864
-16
-704
272
-544
176
592
-512
464
128
368
560
-1280
-1232
496
1328
864
-16
256
384
32
352
1120
-208
1248
496
608
512
-32
-336
-1040
-1520
1168
112
-912
-288
160
976
-304
-592
-352
928
-704
-176
96
-800
-688
-1888
-496
480
16
-288
-1120
-624
-416
0
592
496
-208
-864
-464
-528
768
192
-480
128
496
1056
64
-224
160
-1072
-96
1520
560
496
-32
-800
-1408
-1280
-32
-336
128
592
-32
-928
-416
608
-128
256
96
992
1136
304
848
720
640
-608
688
672
496
-832
0
0
-416
-48
-736
-240
32
-448
784
656
-144
576
-128
-992
544
256
-400
-80
80
64
-320
272
-320
160
-288
-224
912
1552
640
-560
-1392
-592
-112
-336
640
384
896
416
-352
-368
96
-384
-400
80
576
960
960
1392
1008
-512
240
-592
-1808
-1552
-304
560
-1056
336
192
48
-128
112
-688
-1088
-224
-1040
-576
512
-288
-320
-1216
880
64
272
-128
-144
-208
-16
-432
304
-400
-256
-448
16
32
-480
-960
-464
896
-1488
-896
-1744
-928
-176
-592
-1616
0
624
288
992
448
-48
832
464
448
1360
1232
96
-1008
16
800
96
-80
144
368
-816
-672
-176
-144
176
-944
96
-1424
-160
-208
-384
-256
-368
-448
128
-688
0
-144
688
-32
-976
-496
1184
1520
944
368
752
656
-496
-848
-1248
-784
320
272
320
1360
1184
736
-816
-688
544
528
-912
-1648
-800
-336
-832
-1008
-880
-256
1152
912
224
-304
-944
-768
-576
-192
1504
160
432
896
112
448
816
736
144
-464
-720
-1200
-592
320
848
-240
880
896
-480
-1872
-976
-240
-320
400
48
-992
-944
-256
-320
-48
368
800
240
1312
1136
128
-496
-240
-64
-432
-304
-400
496
592
432
-320
752
656
944
736
704
-624
912
960
16
-544
560
1344
640
1024
-1344
-736
352
64
160
-32
-768
-640
176
176
544
400
608
-656
-640
-576
32
416
-208
336
-160
-432
-96
320
-32
816
1376
1168
992
496
224
464
640
1312
-832
-1520
-240
1392
688
1344
1568
720
880
528
992
800
-1040
-496
832
-256
112
-688
-320
-944
304
208
-304
-80
1168
992
656
960
704
-368
-480
272
-656
304
272
96
-1040
416
-160
928
928
-352
-1024
-368
544
864
1664
1360
576
160
656
-624
-304
16
256
944
1808
-304
-1056
720
-160
304
336
544
208
960
224
-1040
-208
736
656
-96
-352
96
560
-240
-368
144
-464
-448
-416
-224
-896
-736
-464
-448
-432
-832
-80
-416
-400
-272
-16
432
1920
-256
-1280
144
624
416
-368
672
400
-1792
-448
-416
-512
448
464
-976
-1376
-1264
-752
208
-288
608
144
-1232
144
-48
-256
-208
-224
144
224
-1040
-304
864
288
64
-32
1104
1472
928
240
656
784
192
1376
-32
-480
-640
-544
672
-752
-1136
-496
-1216
-880
-192
432
64
-880
-688
-352
448
-224
-688
-624
-368
384
1424
896
304
624
144
144
112
688
912
432
-112
-400
-448
-64
640
-96
-592
-384
-512
-352
-480
-240
-672
384
-432
96
128
848
-224
-352
-528
-1120
-224
304
608
1264
496
240
-1232
-1104
-1168
-928
160
528
1360
1120
1056
960
576
1264
1488
624
-32
-448
-192
-352
-336
-1616
-160
688
208
1360
1152
-1136
-160
-672
-368
592
144
-400
-1056
224
1184
-352
-736
1152
480
-432
-1040
-208
1408
640
448
-1056
-528
240
-544
416
480
160
-192
528
624
304
-816
-224
288
1232
-336
-400
224
-608
-1552
-480
368
48
752
0
288
400
672
576
976
-48
-672
96
-656
-1376
-288
-592
464
-1152
-832
-48
-448
-464
-848
-768
-336
-288
-80
-576
64
-688
-1056
-768
128
560
-224
1344
1088
64
336
656
256
-128
-608
-720
-368
-288
192
-400
-1104
-432
-256
-736
-640
368
-768
-1392
-704
512
176
112
-384
-192
-384
0
48
-1056
128
16
368
-320
-496
-1312
-32
288
624
416
-1072
384
352
-304
400
-112
-1168
-1216
-272
-384
-240
0
-928
-240
800
64
1008
384
896
-112
-496
-32
-1440
-1200
32
608
272
208
-896
-288
-208
448
240
-400
-768
-1232
-272
-864
-960
384
624
-1472
-176
496
992
768
-288
80
-864
-1248
-624
480
-256
-1136
-576
64
512
768
128
576
880
1712
1168
1328
480
-96
-48
-336
-704
640
704
528
-208
496
720
496
784
-1632
-1168
-352
-240
-160
352
624
-1168
192
880
528
-416
-672
-16
-144
1088
480
368
352
144
1344
816
-544
-912
-16
560
160
-496
416
704
-176
-320
144
-448
-1008
1216
144
1216
-192
-512
-400
1200
240
-496
-208
-784
-448
-992
816
336
208
352
912
112
-560
-752
544
1360
544
-976
-1568
-592
112
-800
-288
16
1296
320
-480
480
-816
-560
-336
-512
-784
-160
368
-624
-224
64
304
592
1488
768
-1104
-240
1776
160
-800
-64
-352
608
640
688
336
80
-464
-688
-1072
-592
-624
592
64
128
-272
512
-752
352
720
1136
432
-240
720
400
-704
-1456
-1264
-272
-464
480
592
-304
640
1072
368
-912
-656
-176
-1504
-1232
-144
688
-896
-1296
-384
-336
-592
-1248
-544
528
-16
-1200
-208
-112
-320
224
-16
-448
400
224
400
-1312
-384
624
176
-640
-96
-128
352
1184
-144
-1216
-1280
-896
-192
160
-576
-1248
-240
688
544
128
-1296
-944
32
-832
-1072
512
-592
-576
-160
464
48
1200
576
16
-848
-720
208
928
-656
-1008
432
-64
-432
0
32
144
-96
-912
112
224
16
-864
544
1312
1408
416
-416
144
80
592
848
256
544
560
336
-96
-640
-32
-64
-304
-928
-608
-272
-816
-912
-496
-272
-528
-80
176
-640
-448
-400
-1056
-48
-112
-512
-1296
-1168
-304
1168
832
784
1856
128
-16
352
-496
-1712
80
1424
-224
-448
-48
-1008
16
736
528
-368
-1184
-48
352
608
-864
-800
592
-720
-672
-720
-320
256
304
448
320
80
-784
-192
608
912
1344
128
-1264
-496
-1200
-304
208
640
896
896
1376
-48
-912
-256
160
16
208
-336
-624
-576
-384
-608
128
-1264
-1584
-176
-816
256
352
272
1200
-432
624
144
-432
576
240
368
-336
0
976
-480
-64
1088
272
192
1184
-400
-160
1008
928
-480
-144
512
-208
-416
-736
368
16
496
768
-528
-560
-544
48
-288
-1328
-224
368
416
-192
656
-64
-1040
-304
-432
-656
-1328
-1360
-160
368
112
-368
176
-16
-192
640
-112
-672
1072
1008
400
0
1216
-416
-368
112
1696
-384
368
-176
-112
-1376
-1184
-528
160
80
-688
-1200
-192
304
608
-400
48
752
-112
-64
-304
64
-768
-144
400
-672
80
832
-400
-448
-816
-448
-176
-1200
-1328
-1328
-656
688
-368
-928
-144
272
-736
0
288
112
1136
864
432
1072
1024
912
-704
-1456
-128
1584
896
0
0
-1168
-240
496
-80
656
1008
512
-1232
-1152
-1280
-1120
-1440
-832
-1040
-944
-992
272
336
16
496
-368
-608
-480
592
-176
-272
800
976
-768
-368
-384
-288
720
768
368
736
-112
-2048
-1280
-1264
-432
-1168
-512
1360
416
416
-128
-192
208
1104
128
-208
-864
-224
48
-656
-608
432
224
1696
1008
1024
768
256
-848
-1200
368
-240
-544
1008
-272
-976
-320
-96
-832
-480
-912
224
688
96
-208
-176
-576
-1152
-400
208
96
608
16
480
224
336
1616
448
-320
-256
-640
-1184
-1024
192
-480
-336
1152
880
-1088
-1600
320
1696
1440
848
496
-160
992
-64
1120
1088
304
-992
-1696
-208
400
80
288
-1776
-832
-432
-592
336
624
-240
-336
1616
1232
336
240
-720
-576
-64
208
-352
-576
80
-240
656
-176
-640
-1552
-704
-592
-864
224
-160
-240
-864
-528
64
1152
848
832
-1072
848
240
0
624
256
1536
1088
-896
-448
-32
-640
-688
-816
656
144
-768
480
576
128
928
-64
-256
288
96
64
-224
-464
-128
816
-144
1120
64
-432
384
1744
640
-496
432
272
32
480
0
192
400
160
-832
-816
480
-432
384
640
384
-1200
-208
-192
160
-544
-32
-368
-512
736
576
496
-64
-176
192
1088
464
704
256
544
1168
1248
-128
-16
224
896
192
-400
-224
-832
-1040
208
832
-784
-1312
-208
-672
-416
-896
-1136
-1104
-432
-416
1168
1072
416
432
-400
-896
480
-336
-160
-656
-384
320
256
144
-400
-1088
-480
896
560
240
-688
-464
-784
32
-416
-1136
-96
352
-592
-1456
-1344
1024
736
416
352
240
208
-176
-624
-1872
-1104
-736
368
336
560
1072
704
1120
-208
368
816
-1408
-992
608
224
512
720
-384
-1504
-112
-1264
352
-736
-624
-256
-288
240
1280
656
544
320
-192
288
-368
-304
-624
0
-1008
-1072
-656
-368
736
592
176
624
576
-496
-832
-1936
-1072
1280
1696
1296
848
1312
528
384
864
368
-16
112
-304
384
128
544
-176
-576
288
-416
80
432
1136
-864
-576
-224
944
-336
-560
-864
432
992
144
-944
-624
656
256
352
-128
-640
256
-864
-704
160
-416
240
400
704
800
928
496
144
-560
-496
-992
-880
-336
-464
-1680
-1072
-1360
-48
-176
480
-192
64
640
-176
272
80
704
-272
192
1232
1056
112
-528
-432
1344
1264
880
-432
32
-432
784
144
-816
0
624
-256
-928
352
416
1328
544
336
432
-64
-368
-832
-288
-16
-560
672
544
-656
432
64
-528
256
896
-752
-576
-128
304
-352
-944
-512
-464
16
768
1152
272
-800
-1472
-32
512
800
-16
1152
256
-896
-352
288
432
352
848
320
-832
800
800
-96
768
464
-832
-656
-320
-608
-1152
48
-192
-480
128
160
-384
16
-80
32
752
-64
80
-352
-496
544
208
-752
560
-320
-736
336
80
-80
-320
-1872
-32
64
-448
1328
1696
1264
-400
0
576
1360
576
-288
-592
-320
-336
-1488
-80
-1024
-1056
-112
-192
160
208
-288
240
1040
-272
480
496
-400
-16
-32
-464
256
-416
64
864
704
144
272
224
1392
176
304
720
-32
112
368
32
-752
768
1232
1824
1056
784
688
1008
896
832
-96
-160
-1008
-1264
-272
-1024
-304
1056
-480
48
576
256
240
-640
336
-112
-768
-1184
-432
1552
1536
1440
1680
784
400
464
576
80
-688
-352
528
912
1184
1104
1040
816
912
368
-288
-816
-1104
-464
-480
-64
-304
-336
-528
768
1728
1024
-848
-720
-1088
32
368
480
-944
-928
16
768
1168
-576
80
592
-224
96
-992
96
-624
-880
-544
-320
784
-528
-608
464
-448
-192
-1024
-1056
448
336
-736
-608
-128
512
560
688
176
-976
-192
1296
-528
144
-48
-288
1600
304
272
-944
-848
-32
-560
-64
192
208
-688
-1248
-32
608
464
-400
-32
-576
800
-48
-592
-192
160
-720
-832
-784
-1392
-544
-336
-352
400
512
432
1200
1072
-752
-672
-400
-336
144
592
304
576
16
64
240
784
1520
864
288
-480
-608
32
384
-224
-1184
-1040
-896
16
-112
-640
192
-256
-144
48
-480
-16
-720
-48
192
-512
-1040
-576
1536
1632
688
208
-528
-64
160
944
240
880
352
112
-1072
-800
656
240
112
832
1296
1104
-784
-464
272
624
-112
-80
752
848
688
128
-800
-368
752
768
-80
368
832
464
-304
-1216
-992
-784
-112
-16
-1344
-464
784
400
16
416
-224
1136
1056
1248
-288
-160
528
-32
176
80
-496
-432
240
176
-320
-592
144
-736
480
-16
-176
128
160
-80
-480
-688
80
-624
-1056
32
-1264
-880
-640
-176
368
-80
-896
-784
-768
-416
1088
64
128
-224
704
256
-240
0
704
1200
560
208
-32
-48
-928
-224
-736
-320
448
1168
896
704
288
-288
-80
336
-832
-144
880
192
128
400
-464
816
1168
1296
864
368
1008
752
768
-272
-432
-640
-96
1168
-416
-528
240
1312
48
-496
256
768
784
224
0
624
208
-144
-416
-176
-1232
240
1344
544
336
656
496
-144
192
480
400
944
1168
-288
1072
624
816
112
1520
368
-384
-352
1456
416
-256
848
880
-736
-1008
-1488
-1136
-576
704
-784
816
240
-384
-1120
-560
-368
672
1264
-1488
-1552
-128
-1040
-240
1200
1344
-784
384
400
464
592
-576
1280
736
-368
624
16
-1040
-896
-1632
-240
336
-224
48
320
-80
1056
736
-256
-336
128
-32
-1152
288
144
80
1264
896
288
-896
224
1296
576
-416
-16
-64
-1040
-352
672
-400
-496
-832
-800
48
80
-320
-672
528
384
-80
-544
-720
-672
-1200
-1232
-256
-16
-816
-608
-1024
-96
-272
-640
-256
-544
192
1504
448
832
272
320
-256
592
1024
-480
336
1056
624
-976
-672
-768
-512
256
272
-368
-528
-496
-320
208
944
992
560
48
-1152
464
960
960
-112
720
480
432
784
-880
-1472
-560
368
1008
1152
352
-304
-400
720
544
624
1024
416
16
-592
784
368
-272
256
-576
128
288
-416
-464
-112
-272
1536
384
-576
-256
-16
304
96
-432
192
672
-720
-864
-176
1072
128
64
-400
176
448
192
-144
-512
416
-528
-944
192
624
928
1184
416
-880
96
-80
224
1136
896
-432
-160
-80
496
