80
144
160
192
192
272
352
240
96
0
-64
-160
-176
-192
-192
-256
-336
-208
-64
16
80
144
176
192
208
272
352
256
112
16
-64
-160
-176
-192
-192
-256
-336
-224
-64
16
80
144
176
192
192
256
352
256
112
16
-64
-144
-176
-192
-192
-256
-336
-224
-64
0
64
144
160
192
192
256
352
256
112
16
-64
-160
-192
-192
-192
-256
-336
-240
-80
0
64
144
160
192
192
256
352
272
112
16
-64
-144
-192
-192
-192
-240
-320
-240
-80
0
64
144
160
192
192
256
352
272
112
16
-48
-144
-192
-192
-192
-240
-320
-256
-80
0
64
128
160
192
192
240
336
288
128
16
-48
-144
-192
-208
-192
-256
-320
-272
-96
-16
48
128
160
176
192
240
336
288
128
16
-48
-144
-192
-208
-192
-240
-320
-272
-96
-16
48
128
160
192
192
240
320
288
128
16
-48
-144
-192
-208
-192
-240
-320
-288
-112
-16
48
128
160
192
176
224
320
304
128
32
-48
-144
-192
-208
-192
-240
-320
-288
-112
-16
32
112
144
176
192
224
320
304
144
32
-48
-144
-192
-208
-192
-240
-320
-288
-112
-16
48
112
160
176
176
224
320
304
144
32
-48
-128
-192
-192
-192
-240
-304
-304
-128
-16
32
112
160
176
176
224
320
320
144
32
-32
-128
-192
-208
-192
-240
-304
-304
-128
-32
32
112
144
176
176
208
304
320
160
32
-32
-128
-192
-208
-192
-224
-304
-320
-144
-32
32
112
144
176
176
208
304
320
160
48
-32
-128
-192
-208
-208
-224
-304
-320
-144
-32
32
96
144
176
176
208
304
336
160
48
-32
-112
-176
-192
-192
-224
-304
-320
-144
-32
32
96
144
176
192
208
304
336
176
64
-16
-112
-176
-192
-208
-224
-288
-320
-160
-48
16
96
144
176
192
208
304
352
192
64
-16
-96
-176
-192
-192
-208
-288
-320
-160
-32
32
96
160
176
192
208
288
352
192
64
-16
-96
-176
-192
-192
-208
-288
-320
-160
-48
16
96
144
176
192
208
288
352
208
80
-16
-96
-176
-192
-192
-208
-288
-336
-176
-48
16
96
144
176
192
208
288
352
208
80
0
-96
-176
-192
-192
-208
-272
-336
-176
-48
16
96
144
176
192
208
288
352
224
80
0
-80
-160
-192
-192
-208
-272
-336
-192
-48
16
80
144
176
192
208
272
352
224
80
0
-80
-160
-192
-192
-208
-272
-336
-192
-64
16
80
144
176
192
192
272
352
224
96
0
-80
-160
-192
-192
-208
-272
-336
-208
-64
16
80
144
176
192
192
272
352
240
96
0
-80
-160
-192
-192
-192
-256
-336
-208
-64
16
80
144
160
192
192
272
352
240
96
0
-64
-160
-192
-192
-208
-256
-336
-224
-64
0
64
144
160
192
192
256
352
240
96
0
-64
-160
-192
-208
-208
-256
-336
-224
-80
0
64
128
160
192
192
256
352
256
112
0
-64
-160
-192
-208
-208
-256
-336
-240
-80
0
64
128
160
192
192
256
352
256
112
16
-64
-160
-192
-208
-208
-256
-336
-256
-80
0
64
128
160
192
192
240
336
272
112
16
-64
-144
-192
-208
-208
-256
-336
-256
-96
0
48
128
160
192
192
240
336
272
112
16
-64
-144
-192
-208
-208
-256
-336
-272
-96
-16
48
128
160
192
192
240
336
288
128
16
-48
-144
-192
-208
-208
-256
-336
-272
-112
-16
48
128
160
176
176
240
336
288
128
16
-48
-144
-192
-208
-208
-256
-336
-288
-112
-16
48
112
160
176
176
224
320
288
128
16
-48
-144
-192
-208
-208
-256
-336
-288
-112
-16
32
112
144
176
176
224
320
304
128
32
-48
-144
-192
-208
-208
-240
-320
-288
-112
-32
32
112
144
176
176
224
320
304
144
32
-48
-128
-192
-208
-208
-240
-320
-304
-128
-16
32
112
144
176
176
224
320
320
144
32
-32
-128
-192
-208
-208
-240
-320
-304
-128
-32
32
112
144
176
176
224
320
320
144
32
-32
-128
-192
-208
-208
-240
-320
-320
-128
-32
32
112
144
176
176
224
304
320
160
48
-32
-128
-192
-192
-192
-224
-304
-320
-144
-32
32
96
144
176
176
208
304
336
160
48
-32
-112
-192
-208
-208
-224
-304
-320
-144
-32
32
96
144
176
176
208
304
336
176
48
-32
-112
-176
-208
-208
-224
-304
-320
-160
-48
16
96
144
176
176
208
288
336
176
48
-32
-112
-176
-192
-208
-224
-304
-336
-160
-32
16
96
144
176
192
208
288
352
192
64
-16
-96
-176
-192
-192
-208
-288
-320
-160
-48
16
96
144
176
192
208
288
352
192
64
-16
-96
-176
-192
-192
-208
-288
-336
-176
-48
16
96
144
160
192
208
288
352
192
64
-16
-96
-176
-192
-208
-208
-288
-336
-176
-48
16
80
144
160
192
192
272
352
208
64
-16
-96
-176
-192
-208
-208
-288
-336
-192
-48
16
80
144
176
176
192
272
352
208
80
-16
-96
-176
-192
-208
-208
-288
-336
-192
-64
0
80
144
160
192
192
272
352
224
80
-16
-80
-176
-192
-208
-208
-272
-336
-208
-64
0
80
144
160
192
192
272
352
224
96
0
-80
-160
-192
-192
-208
-272
-336
-208
-64
16
80
144
176
192
192
272
352
240
96
0
-64
-160
-192
-192
-208
-272
-336
-208
-64
0
80
144
160
192
192
256
352
240
96
0
-64
-160
-192
-208
-208
-272
-336
-224
-64
0
64
144
160
192
192
256
352
256
96
0
-64
-160
-192
-208
-208
-256
-336
-240
-80
0
64
128
160
192
192
256
352
256
112
16
-64
-160
-192
-208
-208
-256
-336
-240
-80
0
64
128
160
176
192
256
352
256
112
16
-64
-160
-192
-208
-208
-256
-336
-256
-80
0
48
128
160
176
176
240
336
272
112
16
-64
-160
-192
-208
-208
-256
-336
-256
-96
-16
48
128
160
176
176
240
336
272
112
16
-64
-144
-192
-208
-208
-256
-336
-272
-96
-16
48
128
160
176
176
240
336
288
128
16
-48
-144
-192
-208
-208
-256
-336
-272
-96
-16
48
128
160
176
176
240
336
288
128
16
-48
-144
-192
-208
-192
-240
-320
-288
-112
-16
48
112
160
176
176
224
320
304
128
16
-48
-144
-192
-208
-208
-240
-320
-288
-112
-16
32
112
144
176
176
224
320
304
128
16
-48
-144
-192
-208
-208
-256
-320
-304
-128
-16
32
112
144
176
176
224
320
304
144
32
-48
-144
-192
-208
-208
-240
-320
-304
-128
-32
32
112
160
176
192
224
320
320
144
32
-32
-128
-192
-192
-192
-240
-304
-304
-128
-32
32
112
160
176
192
224
320
320
160
48
-32
-128
-192
-192
-192
-224
-304
-304
-128
-32
32
112
144
176
192
224
304
336
160
48
-32
-112
-176
-192
-192
-224
-304
-320
-144
-32
32
112
144
176
192
208
304
336
176
48
-32
-112
-176
-192
-192
-224
-304
-320
-144
-32
32
96
144
176
192
208
304
336
176
48
-16
-112
-176
-192
-192
-224
-288
-320
-160
-32
32
96
144
176
192
208
304
352
176
64
-16
-112
-176
-192
-192
-224
-288
-320
-160
-32
16
96
144
176
192
208
288
352
192
64
-16
-96
-176
-192
-192
-224
-288
-336
-160
-48
16
96
144
176
192
208
288
352
192
64
-16
-96
-176
-192
-192
-208
-288
-336
-176
-48
16
96
144
176
192
208
288
352
208
64
-16
-96
-176
-192
-208
-208
-288
-336
-176
-48
16
96
144
176
192
208
288
352
208
80
-16
-96
-176
-192
-192
-208
-272
-336
-192
-48
16
96
144
176
192
208
272
352
224
80
-16
-80
-176
-192
-208
-208
-272
-336
-192
-48
16
80
144
176
192
192
272
352
224
80
-16
-80
-176
-192
-208
-208
-272
-336
-208
-48
16
80
144
176
192
192
272
352
224
80
-16
-80
-176
-192
-208
-208
-272
-336
-208
-64
16
80
144
176
192
192
272
352
240
96
0
-80
-160
-192
-208
-208
-272
-336
-224
-64
0
64
144
160
192
192
256
352
240
96
0
-80
-160
-192
-208
-208
-256
-336
-224
-64
0
64
144
160
192
192
256
352
256
96
0
-64
-160
-192
-208
-208
-256
-336
-240
-80
0
64
144
160
192
192
256
352
272
112
16
-64
-160
-192
-192
-192
-256
-336
-240
-80
0
64
144
160
192
192
256
352
272
112
16
-64
-144
-192
-208
-192
-256
-336
-256
-80
0
64
128
160
192
192
240
336
272
112
16
-48
-144
-192
-208
-208
-256
-336
-256
-96
0
48
128
160
192
192
240
336
288
112
16
-48
-144
-192
-208
-192
-256
-320
-272
-96
-16
48
128
160
192
192
240
336
288
128
16
-48
-144
-192
-208
-192
-240
-320
-272
-96
-16
48
128
160
192
192
240
336
304
128
16
-48
-144
-192
-208
-208
-240
-320
-288
-112
-16
48
128
160
192
192
240
320
304
128
16
-48
-144
-192
-208
-208
-240
-320
-288
-112
-16
48
128
160
192
192
240
320
304
144
16
-48
-144
-192
-208
-208
-240
-320
-288
-112
-16
48
112
160
176
192
224
320
320
144
32
-48
-128
-192
-208
-208
-240
-304
-304
-128
-16
32
112
160
176
192
224
320
320
144
32
-32
-128
-176
-192
-192
-240
-304
-304
-128
-32
32
112
144
176
192
224
304
336
160
48
-32
-112
-176
-192
-192
-224
-304
-304
-128
-32
32
112
160
176
192
224
304
336
160
48
-32
-112
-176
-192
-192
-224
-304
-320
-144
-32
32
112
160
176
192
224
304
336
160
48
-32
-128
-192
-208
-208
-224
-304
-320
-144
-32
32
112
160
176
192
208
304
336
176
48
-32
-112
-176
-192
-192
-224
-288
-320
-144
-32
32
112
160
176
192
208
304
352
176
64
-16
-112
-176
-192
-192
-224
-288
-320
-160
-32
32
96
160
176
192
208
288
352
192
64
-16
-112
-176
-192
-208
-224
-288
-320
-160
-32
32
96
160
176
192
208
288
352
192
64
-16
-96
-176
-192
-208
-208
-288
-320
-160
-32
32
96
160
176
192
208
288
352
208
80
-16
-96
-176
-192
-192
-208
-272
-336
-176
-48
16
96
144
176
192
208
288
352
208
64
-16
-96
-176
-192
-192
-208
-272
-336
-176
-48
32
96
160
176
208
208
288
352
224
80
-16
-80
-176
-192
-208
-208
-272
-336
-192
-48
16
96
160
176
208
208
272
368
224
80
-16
-80
-176
-192
-208
-208
-272
-336
-208
-48
16
80
160
176
192
208
272
352
240
96
0
-80
-176
-192
-208
-208
-272
-336
-208
-64
16
80
144
176
192
192
272
352
240
96
0
-80
-160
-192
-208
-208
-272
-336
-224
-64
16
80
144
176
208
208
272
352
256
96
0
-64
-160
-192
-208
-208
-256
-336
-224
-64
16
80
144
176
192
192
256
352
256
112
16
-64
-160
-192
-208
-192
-256
-336
-240
-64
16
64
144
160
192
192
256
352
272
112
16
-64
-160
-192
-208
-192
-256
-336
-240
-80
0
64
144
160
192
192
256
352
272
112
16
-64
-144
-192
-208
-192
-256
-320
-256
-80
0
64
144
160
192
192
256
352
288
112
16
-48
-144
-192
-192
-192
-240
-320
-256
-96
0
64
144
160
192
192
240
336
288
128
16
-48
-144
-176
-192
-192
-240
-320
-272
-96
0
48
128
160
192
192
240
336
304
128
32
-48
-144
-192
-192
-192
-240
-320
-272
-96
-16
48
128
160
192
192
240
336
304
128
32
-48
-144
-192
-192
-192
-240
-320
-288
-112
-16
48
128
160
192
192
240
336
304
144
32
-32
-128
-192
-192
-192
-240
-320
-288
-112
-16
48
128
160
192
192
240
320
320
144
32
-32
-128
-192
-192
-192
-240
-320
-304
-112
-16
48
128
160
192
192
224
320
320
160
32
-32
-128
-192
-192
-192
-240
-304
-304
-128
-16
32
112
160
176
192
224
320
320
160
48
-32
-128
-176
-192
-192
-224
-304
-304
-128
-16
32
112
160
176
192
224
320
336
160
48
-32
-112
-176
-192
-192
-224
-304
-320
-128
-32
32
112
160
176
192
224
304
336
176
48
-32
-112
-176
-192
-192
-224
-304
-320
-144
-32
32
112
160
176
192
224
304
336
176
48
-32
-112
-176
-192
-192
-224
-304
-320
-144
-32
32
112
160
176
192
224
304
352
176
64
-16
-112
-176
-192
-192
-224
-288
-320
-160
-32
32
96
160
176
192
208
288
352
192
64
-16
-96
-176
-192
-192
-208
-288
-320
-160
-48
32
96
160
176
192
208
288
352
192
64
-16
-96
-176
-192
-192
-208
-288
-336
-160
-48
16
96
144
176
192
208
288
352
208
64
-16
-96
-176
-192
-192
-208
-288
-336
-176
-48
16
96
144
176
192
208
288
352
208
80
-16
-96
-176
-192
-208
-208
-272
-336
-192
-48
16
80
144
176
192
208
288
352
208
80
-16
-80
-176
-192
-192
-208
-272
-336
-192
-48
16
80
144
176
192
192
272
352
224
80
0
-80
-176
-192
-208
-208
-272
-336
-192
-64
16
80
144
176
192
208
272
352
224
96
0
-80
-160
-192
-192
-208
-272
-336
-208
-64
16
80
144
176
192
192
272
352
240
96
0
-80
-160
-192
-208
-208
-272
-336
-224
-64
0
64
144
160
192
192
256
352
240
96
0
-64
-160
-192
-192
-192
-256
-336
-224
-80
0
64
128
160
176
192
256
352
240
96
0
-64
-160
-192
-192
-208
-256
-336
-240
-80
0
64
128
160
176
192
256
336
256
96
0
-64
-160
-192
-192
-192
-256
-336
-240
-80
0
64
128
160
176
176
240
336
256
112
16
-64
-160
-192
-208
-208
-256
-336
-256
-80
0
48
128
160
176
176
240
336
272
112
16
-64
-144
-192
-208
-208
-256
-336
-256
-96
0
48
128
144
176
176
240
336
272
112
16
-64
-144
-192
-208
-208
-256
-336
-272
-96
-16
48
128
160
176
176
240
336
288
128
16
-48
-144
-192
-208
-192
-256
-336
-272
-96
-16
48
128
144
176
176
240
336
288
128
16
-48
-144
-192
-208
-192
-240
-320
-288
-96
-16
48
128
160
176
176
240
336
304
128
32
-48
-144
-192
-192
-192
-240
-320
-288
-112
-16
48
112
160
176
176
224
320
304
144
32
-48
-128
-192
-208
-192
-240
-320
-288
-112
-16
32
112
144
176
176
224
320
320
144
32
-32
-128
-192
-208
-192
-240
-320
-304
-128
-16
32
112
144
176
176
224
320
320
144
32
-32
-128
-192
-208
-192
-240
-320
-304
-128
-32
32
112
160
176
192
224
320
320
160
48
-32
-128
-176
-192
-192
-240
-304
-320
-128
-32
32
112
144
176
192
224
304
336
160
48
-32
-128
-176
-208
-192
-224
-304
-320
-144
-32
32
112
144
176
192
224
304
336
176
48
-32
-112
-176
-192
-192
-224
-304
-320
-144
-32
32
112
160
176
192
224
304
336
176
64
-32
-112
-176
-192
-192
-224
-304
-320
-144
-32
32
112
160
176
192
208
304
352
176
64
-16
-112
-176
-192
-192
-224
-288
-320
-160
-32
16
96
144
176
192
208
288
352
192
64
-16
-112
-176
-192
-208
-224
-288
-336
-160
-48
16
96
160
176
192
208
288
352
192
64
-16
-96
-176
-208
-208
-224
-288
-336
-176
-48
16
96
160
176
192
208
288
352
208
64
-16
-96
-176
-208
-208
-224
-288
-336
-176
-48
16
96
144
176
192
208
288
352
208
80
-16
-96
-176
-208
-208
-224
-288
-336
-192
-48
32
96
160
176
208
224
288
368
224
80
0
-96
-176
-192
-208
-208
-272
-336
-192
-48
16
96
160
176
208
208
288
368
224
80
0
-96
-176
-192
-208
-208
-272
-336
-192
-64
16
80
160
176
208
208
272
368
240
96
0
-80
-176
-208
-208
-208
-272
-336
-208
-64
16
80
144
176
192
192
272
352
240
96
0
-80
-160
-192
-208
-208
-272
-336
-224
-64
0
80
144
160
192
192
256
352
240
96
0
-80
-160
-192
-208
-208
-272
-336
-224
-64
0
64
144
160
192
192
256
352
256
96
0
-80
-160
-192
-208
-208
-272
-352
-240
-80
0
64
144
160
192
192
256
352
256
96
0
-80
-160
-192
-208
-208
-256
-336
-240
-80
0
64
144
160
192
192
256
352
256
112
0
-64
-160
-192
-208
-208
-256
-336
-256
-96
-16
48
128
160
192
192
240
336
272
112
16
-64
-160
-192
-208
-208
-256
-336
-272
-96
-16
48
128
160
192
192
240
336
272
112
16
-64
-144
-192
-208
-208
-256
-336
-272
-96
-16
48
128
160
176
176
240
336
288
112
16
-48
-144
-192
-208
-208
-256
-336
-288
-112
-16
48
112
144
176
176
224
320
288
128
16
-48
-144
-192
-208
-208
-256
-336
-288
-112
-32
32
112
144
176
176
224
320
304
128
16
-48
-144
-192
-208
-208
-256
-336
-304
-112
-16
32
112
160
176
176
224
320
304
128
32
-48
-144
-192
-208
-208
-256
-320
-304
-128
-32
32
112
160
176
192
224
320
320
144
32
-48
-144
-192
-208
-208
-240
-320
-304
-128
-32
32
112
160
176
192
224
320
320
144
48
-32
-128
-192
-208
-208
-240
-320
-320
-128
-32
32
112
160
176
192
224
320
336
160
48
-32
-128
-192
-208
-208
-240
-320
-320
-128
-32
32
112
160
192
192
224
320
336
160
48
-32
-128
-192
-208
-208
-240
-304
-320
-144
-32
32
112
160
192
192
224
304
336
176
48
-32
-112
-176
-208
-208
-224
-304
-320
-144
-32
32
96
144
176
192
208
304
336
176
48
-32
-112
-192
-208
-208
-224
-304
-336
-160
-32
16
96
144
176
192
208
304
352
176
64
-32
-112
-192
-208
-208
-224
-304
-336
-160
-48
16
96
144
176
192
208
288
352
192
64
-16
-112
-192
-208
-208
-224
-304
-352
-176
-48
16
96
144
176
192
208
288
352
192
64
-16
-96
-176
-208
-208
-224
-288
-352
-176
-48
16
80
144
176
192
208
288
352
208
80
-16
-96
-176
-208
-208
-224
-288
-352
-192
-64
0
80
144
176
192
208
272
352
208
80
-16
-96
-176
-208
-208
-224
-288
-352
-192
-64
0
80
144
176
192
192
272
352
208
80
-16
-96
-176
-208
-208
-224
-288
-352
-208
-64
0
64
144
160
192
192
272
352
224
80
0
-80
-176
-208
-208
-224
-288
-352
-208
-64
0
64
144
160
192
192
272
352
224
80
0
-80
-176
-192
-208
-208
-272
-352
-224
-80
0
64
144
160
192
192
256
352
240
96
0
-80
-176
-208
-208
-208
-288
-352
-240
-80
0
64
128
160
192
192
256
352
240
96
0
-80
-176
-208
-208
-208
-272
-352
-240
-80
-16
64
128
160
192
192
256
352
256
96
0
-80
-176
-208
-224
-208
-272
-352
-256
-80
-16
48
128
160
192
192
256
352
256
96
0
-80
-176
-208
-208
-208
-272
-352
-272
-96
-16
48
128
160
176
192
240
352
272
112
0
-64
-160
-208
-224
-208
-272
-352
-272
-96
-16
48
128
160
176
192
240
336
272
112
16
-64
-160
-208
-224
-224
-272
-352
-288
-96
-16
48
128
160
176
192
240
336
288
112
16
-64
-160
-208
-224
-208
-272
-352
-288
-112
-16
32
112
144
176
176
240
336
288
112
16
-48
-160
-208
-224
-208
-256
-336
-304
-112
-32
32
112
160
176
176
240
336
304
128
16
-48
-144
-192
-208
-208
-256
-336
-304
-112
-16
32
112
160
176
192
224
336
304
128
32
-48
-144
-192
-208
-208
-256
-336
-304
-128
-32
32
112
160
176
176
224
320
320
128
32
-48
-144
-208
-208
-208
-256
-336
-320
-128
-32
32
112
144
176
176
224
320
320
144
32
-48
-144
-208
-208
-208
-256
-336
-320
-144
-32
16
96
144
176
176
224
320
320
144
32
-48
-128
-192
-224
-208
-256
-320
-336
-144
-32
16
112
160
176
176
224
304
336
160
48
-32
-128
-192
-208
-208
-240
-320
-336
-144
-32
32
112
160
192
192
224
320
336
160
48
-32
-128
-192
-208
-208
-240
-320
-336
-144
-48
16
96
144
176
176
208
304
336
160
48
-32
-128
-192
-208
-208
-240
-320
-352
-160
-48
16
96
144
176
192
208
304
352
176
64
-16
-112
-192
-208
-208
-224
-304
-352
-176
-64
0
80
144
176
176
208
288
352
192
64
-16
-96
-176
-192
-192
-224
-304
-352
-176
-64
0
80
128
160
176
192
288
352
192
64
-16
-96
-176
-192
-208
-224
-304
-352
-192
-64
0
80
128
160
176
192
288
352
208
80
-16
-96
-176
-208
-208
-224
-304
-368
-208
-64
0
64
144
160
176
192
288
368
208
80
0
-80
-176
-192
-208
-224
-304
-368
-208
-80
0
64
128
160
176
192
272
368
224
80
0
-80
-176
-192
-208
-224
-288
-368
-224
-80
-16
64
128
160
192
192
272
368
224
96
0
-80
-176
-192
-208
-224
-288
-352
-224
-80
-16
64
128
160
192
192
272
368
240
96
0
-80
-176
-192
-208
-224
-288
-368
-240
-80
-16
48
128
160
176
192
272
368
240
96
0
-80
-176
-208
-208
-224
-288
-368
-240
-80
-16
48
128
144
176
192
256
352
240
96
0
-64
-176
-208
-224
-224
-288
-368
-256
-96
-16
48
128
160
176
192
256
352
256
96
0
-64
-160
-208
-208
-224
-288
-368
-272
-96
-16
48
128
144
176
176
256
352
272
112
16
-64
-160
-192
-208
-208
-272
-368
-272
-96
-16
32
112
144
176
176
240
352
272
112
16
-64
-160
-192
-208
-224
-272
-352
-288
-112
-32
32
112
144
176
176
240
352
288
112
16
-64
-160
-192
-208
-208
-272
-352
-288
-112
-32
32
112
144
176
176
240
336
288
112
16
-64
-176
-208
-224
-224
-272
-352
-288
-112
-16
48
128
160
192
192
256
336
288
112
0
-80
-192
-240
-256
-256
-288
-368
-304
-112
-16
64
144
176
208
208
256
336
288
96
-16
-96
-192
-240
-256
-256
-288
-368
-320
-112
-16
64
144
176
208
208
240
336
304
96
-16
-96
-208
-256
-272
-256
-288
-352
-320
-112
0
64
144
192
208
208
240
336
304
96
-32
-112
-224
-272
-288
-272
-304
-368
-336
-112
0
64
160
192
224
208
240
320
304
80
-32
-128
-224
-288
-288
-272
-288
-352
-320
-112
0
80
160
192
224
208
240
320
304
96
-32
-128
-224
-272
-288
-272
-288
-336
-320
-112
16
80
160
192
224
224
240
304
304
96
-32
-112
-208
-272
-272
-256
-272
-336
-320
-112
0
80
160
192
224
208
240
304
320
96
-32
-112
-208
-272
-272
-256
-272
-336
-320
-112
16
80
160
208
224
208
224
304
320
112
-32
-112
-208
-272
-272
-256
-272
-320
-336
-112
16
80
160
192
208
208
224
288
320
112
-16
-112
-208
-272
-272
-272
-272
-320
-336
-128
0
80
144
192
208
208
224
288
320
112
-16
-112
-208
-272
-272
-272
-272
-320
-336
-144
0
64
144
192
208
208
224
288
320
128
-16
-112
-192
-272
-272
-272
-272
-320
-352
-144
-16
64
144
192
208
208
208
272
320
144
-16
-96
-192
-272
-272
-272
-272
-320
-352
-160
-16
64
128
192
208
208
208
272
336
144
0
-96
-176
-256
-272
-272
-272
-320
-352
-176
-16
48
128
192
192
208
208
272
336
160
0
-96
-176
-256
-272
-272
-256
-304
-352
-192
-32
48
112
176
192
208
208
256
336
176
16
-80
-176
-256
-272
-272
-256
-304
-368
-208
-32
32
112
176
192
208
208
256
336
176
16
-80
-160
-256
-272
-272
-256
-304
-368
-208
-48
32
96
176
192
208
192
256
336
192
32
-64
-144
-240
-256
-256
-256
-304
-368
-224
-48
32
96
176
192
208
192
256
336
208
48
-64
-144
-240
-256
-256
-256
-304
-368
-240
-64
16
96
160
192
208
192
256
336
224
48
-48
-128
-224
-256
-256
-240
-304
-368
-240
-64
16
80
160
176
208
192
256
336
240
64
-48
-128
-224
-240
-256
-240
-288
-368
-256
-64
16
80
160
176
208
208
256
352
256
80
-32
-112
-208
-240
-256
-240
-288
-352
-272
-80
16
80
160
192
208
208
256
352
272
80
-16
-96
-208
-240
-256
-240
-288
-352
-272
-80
0
80
160
176
208
192
240
336
272
80
-16
-96
-208
-240
-240
-240
-288
-352
-288
-80
0
64
160
176
208
208
240
336
288
96
-16
-96
-192
-240
-256
-240
-288
-352
-304
-96
0
64
144
176
208
192
240
336
288
96
-16
-96
-192
-240
-240
-240
-272
-352
-304
-96
-16
64
144
176
192
192
240
336
304
112
0
-80
-192
-240
-240
-240
-272
-352
-320
-112
-16
48
144
176
192
192
240
336
304
112
0
-80
-176
-240
-240
-240
-272
-352
-320
-112
-16
48
144
160
192
192
240
320
320
112
0
-80
-176
-240
-240
-240
-272
-336
-336
-128
-16
48
128
160
192
192
224
320
320
128
16
-80
-176
-224
-240
-240
-272
-336
-336
-128
-16
48
128
176
192
192
224
320
336
128
16
-64
-160
-224
-240
-240
-256
-336
-352
-144
-32
32
128
176
192
208
224
320
336
144
32
-64
-160
-224
-240
-240
-256
-336
-352
-144
-32
32
128
160
192
192
224
304
352
144
32
-64
-160
-224
-240
-240
-256
-336
-352
-160
-32
32
112
160
192
192
224
304
352
160
32
-48
-144
-224
-240
-240
-256
-320
-368
-160
-48
32
112
160
192
192
224
304
352
160
32
-48
-144
-224
-240
-240
-256
-320
-368
-176
-48
32
112
160
192
208
224
304
368
176
48
-48
-128
-224
-240
-240
-256
-320
-368
-176
-48
16
96
160
176
208
208
304
368
192
48
-32
-128
-224
-240
-240
-256
-320
-368
-192
-48
16
96
160
176
208
208
288
368
192
64
-32
-128
-208
-224
-240
-240
-320
-384
-208
-48
16
96
160
176
208
208
288
368
208
64
-32
-112
-208
-224
-240
-240
-304
-384
-208
-64
16
80
160
176
208
208
288
368
224
64
-32
-112
-208
-224
-240
-240
-304
-384
-224
-64
0
80
160
176
192
208
272
368
224
80
-16
-112
-208
-224
-240
-240
-304
-384
-240
-80
0
80
160
176
192
208
272
368
240
80
-16
-96
-208
-224
-240
-240
-304
-384
-256
-80
0
64
144
176
192
208
272
368
240
80
-16
-96
-192
-224
-240
-240
-304
-384
-256
-80
-16
64
144
176
192
208
272
368
256
96
-16
-96
-192
-224
-240
-240
-304
-384
-272
-96
-16
64
144
160
192
192
272
368
272
96
0
-80
-192
-224
-240
-240
-304
-384
-288
-96
-16
48
144
176
192
192
256
368
288
96
0
-80
-192
-224
-240
-240
-288
-384
-288
-112
-16
48
144
160
192
192
256
368
288
112
16
-80
-176
-224
-240
-240
-288
-368
-304
-112
-32
48
128
160
192
192
256
368
304
112
16
-64
-176
-208
-240
-240
-288
-368
-304
-112
-32
32
128
160
192
192
256
352
304
128
32
-48
-160
-208
-224
-224
-272
-368
-320
-112
-32
32
112
160
176
192
240
352
320
128
32
-48
-144
-208
-224
-224
-272
-352
-320
-128
-48
16
112
144
176
192
240
352
320
144
32
-48
-144
-208
-224
-224
-272
-352
-336
-128
-48
16
112
160
192
192
240
336
336
144
48
-48
-144
-192
-224
-224
-256
-352
-336
-128
-48
16
112
144
176
192
240
336
336
144
48
-32
-144
-208
-224
-224
-272
-352
-352
-144
-48
16
112
144
176
192
224
336
352
160
48
-32
-144
-208
-224
-224
-256
-352
-352
-144
-48
16
96
144
176
192
224
336
352
160
48
-32
-128
-192
-224
-224
-256
-336
-352
-160
-48
16
96
144
176
192
224
320
352
160
64
-32
-128
-192
-224
-224
-256
-336
-368
-160
-48
16
96
144
176
192
224
320
368
176
64
-16
-112
-192
-208
-224
-240
-336
-368
-160
-48
16
96
144
176
192
224
320
368
192
64
-16
-112
-192
-208
-224
-240
-320
-368
-176
-48
16
96
144
176
192
224
320
368
192
64
-16
-112
-192
-208
-224
-240
-320
-368
-176
-64
0
96
144
176
192
224
304
384
192
80
-16
-112
-192
-208
-224
-240
-320
-384
-192
-64
0
80
144
176
192
224
304
384
208
80
-16
-96
-192
-208
-224
-240
-320
-384
-192
-64
0
80
144
176
192
208
304
384
208
80
0
-96
-192
-208
-224
-240
-304
-384
-208
-64
0
80
144
176
192
208
304
384
224
80
0
-96
-192
-208
-224
-240
-304
-384
-224
-80
0
80
144
176
192
208
288
384
240
96
0
-96
-192
-208
-224
-240
-304
-384
-224
-80
0
64
144
176
192
208
288
384
240
96
0
-80
-176
-208
-224
-224
-304
-384
-240
-80
-16
64
144
176
192
208
288
384
256
96
16
-80
-176
-208
-224
-224
-304
-384
-240
-80
-16
64
144
176
208
208
288
384
256
112
16
-80
-176
-208
-224
-224
-288
-384
-256
-96
-16
64
144
160
192
208
272
384
272
112
16
-80
-176
-208
-224
-224
-288
-384
-272
-96
-16
48
144
160
192
208
272
384
272
112
16
-64
-176
-208
-224
-224
-288
-384
-272
-96
-16
64
144
176
208
208
272
384
288
112
16
-64
-176
-208
-224
-224
-288
-368
-288
-96
-16
48
144
176
208
208
272
384
304
128
32
-64
-160
-208
-224
-224
-288
-368
-304
-96
-16
48
144
160
208
208
272
368
320
128
32
-48
-160
-208
-224
-224
-272
-368
-304
-112
-32
48
144
176
208
208
256
368
320
128
32
-48
-160
-208
-224
-224
-272
-368
-304
-112
-16
48
128
160
192
208
256
368
320
144
32
-48
-160
-208
-224
-224
-272
-368
-320
-112
-32
48
128
160
192
208
256
352
336
144
32
-48
-144
-208
-224
-224
-272
-352
-320
-128
-32
32
128
160
192
192
240
352
336
144
32
-48
-144
-208
-224
-224
-272
-352
-336
-128
-32
32
112
160
192
192
240
352
352
144
48
-32
-144
-208
-224
-224
-256
-352
-336
-128
-32
32
112
160
192
208
240
352
352
160
48
-32
-128
-208
-224
-224
-256
-336
-352
-144
-32
32
112
160
192
208
240
336
368
160
48
-32
-128
-208
-224
-224
-256
-336
-352
-144
-32
32
112
160
192
208
240
336
368
176
64
-32
-128
-192
-224
-224
-256
-336
-352
-160
-48
16
112
160
192
208
240
336
384
176
64
-16
-128
-192
-224
-224
-256
-336
-368
-160
-48
16
112
160
192
208
240
336
384
192
64
-16
-112
-192
-224
-224
-240
-320
-368
-176
-48
16
96
160
192
208
224
320
384
192
64
-16
-112
-192
-224
-224
-240
-320
-368
-176
-48
16
96
160
192
208
224
320
384
208
80
-16
-112
-192
-224
-224
-240
-320
-368
-192
-64
16
96
160
192
208
224
320
384
208
80
-16
-112
-192
-208
-224
-240
-320
-384
-192
-64
0
80
160
176
208
224
304
384
224
80
-16
-96
-192
-208
-224
-240
-320
-384
-208
-64
0
80
160
176
208
224
304
384
224
80
0
-96
-192
-208
-224
-240
-304
-384
-208
-64
0
80
144
176
208
208
288
384
240
80
0
-96
-192
-208
-224
-240
-304
-384
-224
-80
0
80
160
176
208
208
288
384
240
96
0
-80
-192
-208
-224
-224
-304
-384
-240
-80
0
80
144
176
208
208
288
384
256
96
0
-80
-176
-208
-224
-224
-304
-384
-240
-80
0
64
144
176
208
208
288
384
272
96
16
-80
-176
-208
-224
-224
-288
-384
-256
-80
-16
64
144
176
208
208
288
384
272
112
16
-64
-176
-208
-224
-224
-288
-368
-256
-80
0
64
144
176
208
208
272
384
288
112
16
-64
-176
-208
-224
-224
-288
-368
-272
-96
-16
64
144
176
208
208
272
384
288
112
16
-64
-176
-208
-224
-224
-288
-368
-288
-96
-16
48
144
176
208
208
272
384
304
112
16
-64
-176
-208
-224
-224
-288
-368
-288
-96
-16
48
144
176
208
208
272
368
304
128
16
-64
-160
-208
-224
-224
-272
-368
-304
-112
-16
48
144
176
208
208
256
368
320
128
32
-64
-160
-208
-224
-224
-272
-368
-304
-112
-16
48
128
160
192
208
256
368
320
128
32
-48
-160
-208
-224
-224
-272
-352
-320
-112
-16
48
128
160
192
208
256
352
336
144
32
-48
-160
-208
-224
-224
-272
-352
-320
-112
-32
32
128
160
192
208
256
352
336
144
32
-48
-144
-208
-224
-224
-256
-352
-336
-128
-32
32
128
160
192
192
240
352
352
144
48
-32
-144
-208
-224
-224
-256
-352
-336
-128
-32
32
128
160
192
192
240
336
352
160
48
-32
-144
-208
-224
-224
-256
-352
-352
-144
-32
32
112
160
192
208
240
336
352
160
48
-32
-128
-208
-224
-224
-256
-336
-352
-144
-48
32
112
160
192
208
240
336
368
160
48
-32
-128
-208
-224
-224
-256
-336
-352
-160
-48
16
112
160
192
208
240
336
368
176
64
-32
-128
-208
-224
-224
-256
-336
-368
-160
-48
16
112
160
192
208
240
320
368
176
64
-16
-112
-192
-224
-224
-256
-320
-368
-160
-48
16
112
160
192
208
224
320
384
192
64
-16
-112
-192
-224
-224
-240
-320
-368
-176
-48
16
96
160
192
208
224
320
384
192
64
-16
-112
-192
-208
-224
-240
-320
-368
-176
-48
16
96
160
192
208
224
304
384
208
80
-16
-112
-192
-208
-224
-240
-320
-368
-192
-64
16
96
160
176
208
224
304
384
224
80
-16
-96
-192
-208
-224
-240
-304
-368
-192
-64
16
80
160
176
208
224
304
384
224
80
0
-96
-192
-208
-224
-240
-304
-368
-208
-64
0
80
160
176
208
208
304
384
224
80
0
-96
-192
-208
-224
-240
-304
-384
-224
-64
0
80
144
176
192
208
288
384
240
80
0
-96
-192
-208
-224
-240
-304
-384
-240
-80
0
64
144
176
192
208
288
384
256
96
0
-80
-192
-208
-224
-224
-304
-384
-240
-80
0
64
144
176
192
208
288
384
256
96
0
-80
-192
-208
-224
-224
-304
-384
-256
-80
-16
64
144
176
192
208
272
384
256
96
0
-80
-192
-208
-224
-224
-304
-384
-272
-80
-16
64
144
176
192
208
272
384
272
96
16
-80
-176
-208
-224
-224
-288
-368
-272
-96
-16
64
144
176
192
208
272
368
288
112
16
-64
-176
-208
-224
-224
-288
-368
-288
-96
-16
48
144
176
192
208
272
368
288
112
16
-64
-176
-208
-224
-224
-288
-368
-288
-96
-16
48
144
176
192
192
256
368
304
112
16
-64
-176
-208
-224
-224
-288
-368
-304
-96
-16
48
128
160
192
192
256
368
304
128
32
-64
-160
-208
-224
-224
-272
-368
-304
-112
-32
48
128
160
192
192
256
352
320
128
32
-48
-160
-208
-224
-224
-272
-368
-320
-112
-16
48
128
160
192
192
256
352
320
128
32
-48
-160
-208
-224
-224
-272
-352
-320
-112
-32
32
128
160
192
192
240
352
336
144
32
-48
-144
-208
-224
-224
-272
-352
-320
-128
-32
32
128
160
192
192
240
352
336
144
32
-48
-144
-208
-224
-224
-272
-352
-336
-128
-32
32
128
160
192
192
240
336
352
144
48
-32
-144
-208
-224
-224
-256
-336
-336
-128
-32
32
112
160
192
192
240
336
352
160
48
-32
-144
-208
-224
-224
-256
-336
-352
-144
-48
32
112
160
192
192
240
336
352
160
48
-32
-128
-208
-224
-224
-256
-336
-352
-144
-32
32
112
160
192
208
240
336
368
176
48
-32
-128
-208
-224
-224
-256
-336
-352
-160
-48
32
112
160
192
208
240
320
368
176
64
-32
-128
-192
-208
-224
-240
-320
-368
-160
-48
16
112
160
192
208
224
320
384
192
64
-16
-112
-192
-208
-224
-240
-320
-368
-160
-48
16
96
160
192
208
224
320
384
192
64
-16
-112
-192
-208
-224
-240
-320
-368
-176
-48
16
96
160
192
208
224
304
384
208
64
-16
-112
-192
-208
-224
-240
-320
-368
-192
-64
16
96
160
192
208
224
304
384
208
80
-16
-96
-192
-208
-224
-240
-304
-368
-192
-64
0
80
160
176
208
208
304
384
224
80
-16
-96
-192
-208
-224
-240
-304
-384
-208
-64
0
80
160
176
208
208
288
384
224
80
-16
-96
-192
-208
-224
-240
-304
-384
-224
-64
0
80
160
176
208
208
288
384
240
80
0
-96
-192
-208
-224
-240
-304
-384
-224
-64
0
80
144
176
208
208
288
384
240
80
0
-80
-192
-208
-224
-224
-304
-384
-240
-80
0
80
144
176
208
208
288
384
256
96
0
-80
-192
-208
-224
-224
-288
-368
-240
-80
0
64
160
176
208
208
288
384
272
96
0
-80
-176
-208
-224
-224
-288
-368
-256
-80
0
64
144
176
208
208
272
384
272
96
16
-80
-176
-208
-224
-224
-288
-368
-256
-80
0
64
144
176
208
208
272
384
288
112
16
-64
-176
-208
-224
-224
-288
-368
-272
-80
0
64
144
176
208
208
272
384
304
112
16
-64
-176
-208
-224
-224
-272
-352
-272
-80
-16
64
144
176
208
208
272
368
304
128
32
-64
-160
-208
-224
-208
-272
-352
-288
-80
0
64
144
176
208
208
272
368
320
128
32
-48
-160
-208
-224
-224
-272
-352
-288
-96
-16
64
144
176
208
208
272
368
320
128
32
-48
-160
-192
-224
-208
-272
-352
-304
-96
-16
48
144
176
208
208
272
368
336
144
32
-48
-144
-192
-224
-208
-256
-352
-304
-96
-16
48
144
176
208
208
272
368
336
144
48
-48
-144
-192
-208
-208
-256
-336
-320
-112
-16
48
144
176
208
208
256
368
352
160
48
-32
-144
-192
-208
-208
-256
-336
-320
-112
-16
48
144
176
208
224
256
368
368
160
48
-32
-128
-192
-208
-208
-256
-336
-320
-112
-16
48
144
176
208
224
256
352
368
176
64
-32
-128
-192
-208
-208
-240
-320
-336
-128
-16
48
144
176
208
224
256
352
368
176
64
-16
-128
-192
-208
-208
-240
-320
-336
-128
-16
48
128
176
208
224
256
352
368
176
64
-16
-128
-192
-208
-208
-240
-320
-336
-128
-32
48
128
176
208
224
256
336
384
176
64
-16
-128
-192
-208
-208
-240
-320
-352
-144
-32
32
128
176
192
224
240
336
384
192
64
-16
-112
-192
-208
-208
-240
-304
-352
-144
-32
32
128
176
208
224
240
336
384
192
80
-16
-112
-192
-208
-208
-240
-304
-352
-160
-32
32
112
176
192
224
240
320
384
208
80
-16
-112
-192
-208
-208
-224
-304
-352
-160
-32
32
112
176
192
224
240
320
384
208
80
0
-96
-192
-208
-208
-224
-304
-352
-176
-48
32
112
176
192
224
240
320
384
224
80
0
-96
-192
-208
-208
-224
-288
-352
-192
-48
16
112
176
192
224
224
304
400
224
96
0
-96
-176
-208
-208
-224
-288
-352
-192
-48
16
96
176
192
224
224
304
384
240
96
0
-80
-176
-208
-208
-224
-288
-368
-208
-48
16
96
160
192
208
224
304
384
240
96
0
-80
-176
-208
-224
-224
-288
-368
-208
-64
16
80
160
176
208
224
288
384
256
96
0
-80
-176
-208
-224
-224
-288
-368
-224
-64
16
80
160
176
208
224
288
384
256
96
0
-80
-176
-208
-224
-224
-288
-368
-240
-64
0
80
160
176
208
208
288
384
272
96
0
-80
-176
-208
-224
-224
-272
-368
-240
-64
0
80
160
176
208
208
272
384
272
112
16
-64
-176
-208
-224
-224
-272
-368
-256
-80
0
64
160
176
208
208
272
384
288
112
16
-64
-176
-208
-224
-224
-272
-368
-272
-80
0
64
160
176
208
208
272
368
288
112
16
-64
-176
-208
-224
-224
-272
-352
-272
-80
-16
64
144
176
208
208
272
368
304
128
32
-64
-160
-192
-224
-208
-272
-352
-288
-96
-16
64
144
176
208
208
272
368
304
128
32
-48
-160
-192
-224
-208
-272
-352
-288
-96
-16
48
144
176
208
208
256
368
320
128
32
-48
-160
-192
-224
-208
-272
-352
-304
-96
-16
48
144
176
208
208
256
352
320
128
32
-48
-160
-192
-224
-208
-256
-336
-304
-112
-16
48
144
176
208
208
256
352
336
144
32
-48
-144
-192
-224
-208
-256
-336
-320
-112
-16
48
128
176
192
208
240
352
336
144
48
-48
-144
-192
-208
-208
-256
-336
-320
-112
-32
32
128
160
192
208
240
352
352
144
48
-32
-144
-192
-208
-208
-256
-336
-320
-112
-32
32
128
160
192
208
240
336
352
160
48
-32
-128
-192
-208
-208
-240
-320
-336
-128
-32
32
128
160
192
208
240
336
352
160
48
-32
-128
-192
-208
-208
-240
-320
-336
-128
-32
32
128
160
192
208
240
336
368
176
64
-16
-128
-192
-208
-208
-240
-320
-336
-144
-32
32
128
176
192
208
240
336
368
176
64
-16
-112
-192
-208
-208
-240
-320
-336
-144
-32
32
112
160
192
208
240
320
384
192
64
-16
-112
-176
-208
-208
-224
-304
-352
-144
-32
32
112
160
192
208
224
320
384
192
80
-16
-112
-176
-208
-208
-224
-304
-352
-160
-48
32
112
160
192
208
224
320
384
208
80
-16
-96
-176
-208
-208
-224
-304
-352
-176
-48
16
112
160
192
208
224
320
384
208
80
0
-96
-176
-208
-208
-224
-304
-352
-176
-48
16
96
160
192
208
224
304
384
224
80
0
-96
-176
-192
-208
-224
-288
-352
-192
-48
16
96
160
192
208
224
304
384
224
96
0
-80
-176
-208
-208
-224
-288
-368
-192
-64
16
96
160
176
208
224
304
384
240
96
0
-80
-176
-192
-208
-224
-288
-368
-208
-64
16
80
160
176
208
208
288
384
240
96
0
-80
-176
-192
-208
-224
-288
-368
-208
-64
0
80
160
176
208
208
288
384
256
96
16
-80
-176
-192
-208
-208
-288
-352
-224
-64
0
80
160
176
208
208
288
384
256
112
16
-64
-160
-192
-208
-208
-272
-352
-224
-64
0
80
160
176
208
208
288
384
272
112
16
-64
-160
-192
-208
-208
-272
-352
-240
-64
0
80
160
176
208
208
272
384
272
112
16
-64
-160
-192
-208
-208
-272
-352
-240
-80
0
64
160
176
208
208
272
384
288
112
32
-64
-160
-192
-208
-208
-272
-352
-256
-80
0
64
160
176
208
208
272
368
288
128
32
-48
-160
-192
-208
-208
-256
-352
-272
-80
-16
64
144
176
208
208
272
368
304
128
32
-48
-144
-192
-208
-208
-256
-352
-272
-80
-16
64
144
176
208
208
272
368
320
128
32
-48
-144
-192
-208
-192
-256
-336
-272
-96
-16
64
144
176
208
208
256
368
320
128
32
-48
-144
-192
-208
-208
-256
-336
-288
-96
-16
48
144
176
208
208
256
368
336
144
48
-32
-144
-192
-208
-192
-256
-336
-304
-96
-16
48
144
160
192
208
256
352
336
144
48
-32
-144
-192
-208
-208
-256
-336
-304
-112
-16
48
128
160
192
192
240
352
336
144
48
-32
-144
-192
-208
-208
-256
-336
-320
-112
-32
48
128
160
192
192
240
352
352
144
48
-32
-128
-192
-208
-208
-240
-336
-320
-128
-32
32
128
160
192
192
240
336
352
160
48
-32
-128
-192
-208
-208
-240
-320
-336
-128
-32
32
128
160
192
208
240
336
352
160
64
-32
-128
-192
-208
-208
-240
-320
-336
-128
-32
32
128
160
192
208
240
336
368
176
64
-16
-128
-192
-208
-208
-240
-320
-352
-144
-32
32
112
160
192
192
224
320
368
176
64
-16
-112
-192
-208
-208
-240
-320
-352
-144
-48
32
112
160
192
208
224
320
368
176
64
-16
-112
-192
-208
-208
-240
-320
-352
-160
-32
32
112
160
192
208
224
320
384
192
64
-16
-112
-192
-208
-208
-240
-320
-352
-160
-48
16
112
160
192
208
224
320
384
192
80
-16
-112
-192
-208
-208
-240
-304
-368
-176
-48
16
96
160
192
208
224
304
384
208
80
-16
-96
-192
-208
-208
-224
-304
-368
-176
-48
16
96
160
176
208
224
304
384
208
80
0
-96
-176
-208
-208
-224
-304
-368
-192
-48
16
96
160
176
208
224
304
384
224
80
0
-96
-176
-208
-208
-224
-304
-368
-192
-64
16
96
160
176
208
208
304
384
224
80
0
-96
-176
-208
-208
-224
-288
-368
-208
-64
0
80
160
176
208
208
288
384
240
96
0
-80
-176
-208
-208
-224
-288
-368
-224
-64
0
80
160
176
208
208
288
384
240
96
0
-80
-176
-208
-208
-224
-288
-368
-224
-64
0
80
160
176
208
208
288
384
256
96
16
-80
-176
-192
-208
-224
-288
-368
-240
-80
0
64
144
176
208
208
288
384
256
96
16
-64
-176
-208
-208
-208
-288
-368
-240
-80
0
64
160
176
208
208
272
384
272
112
16
-64
-176
-192
-208
-208
-272
-368
-256
-80
0
64
160
176
208
208
272
384
288
112
16
-64
-160
-192
-208
-208
-272
-368
-272
-80
-16
64
160
176
208
208
272
384
304
128
32
-48
-160
-192
-208
-208
-272
-352
-272
-80
-16
64
144
176
208
208
272
368
304
128
32
-48
-160
-192
-208
-208
-272
-352
-288
-96
-16
64
144
176
208
208
272
368
320
128
32
-48
-144
-192
-208
-208
-256
-352
-288
-96
-16
48
144
176
208
208
272
368
320
144
32
-48
-144
-192
-208
-208
-256
-352
-304
-96
-16
48
144
176
208
208
256
368
336
144
32
-48
-144
-192
-208
-208
-256
-352
-304
-112
-16
48
144
176
192
208
256
352
336
144
48
-32
-144
-192
-208
-208
-256
-336
-320
-112
-16
48
128
176
192
208
256
352
352
144
48
-32
-144
-192
-208
-208
-256
-336
-320
-112
-32
48
128
176
192
208
256
352
352
160
48
-32
-128
-192
-208
-208
-256
-336
-336
-128
-32
32
128
176
192
208
240
352
368
160
48
-32
-128
-192
-208
-208
-240
-336
-336
-128
-32
32
128
176
192
208
240
336
368
160
64
-32
-128
-192
-208
-208
-240
-320
-336
-144
-32
32
112
160
192
208
240
336
368
176
64
-16
-128
-192
-208
-208
-240
-320
-352
-144
-32
32
112
160
192
208
240
336
368
176
64
-16
-112
-192
-208
-208
-240
-320
-352
-160
-32
32
112
160
192
208
240
320
384
192
64
-16
-112
-192
-208
-208
-240
-320
-352
-160
-48
16
112
160
192
208
224
320
384
192
64
-16
-112
-192
-208
-208
-240
-320
-368
-160
-48
16
112
160
192
208
224
320
384
208
80
-16
-96
-192
-208
-208
-224
-304
-368
-176
-48
16
96
160
192
208
224
320
384
208
80
-16
-96
-192
-208
-208
-224
-304
-368
-176
-48
16
96
160
192
208
224
304
384
224
80
0
-96
-192
-208
-208
-224
-304
-368
-192
-64
16
96
160
176
208
224
304
384
224
80
0
-96
-192
-208
-208
-224
-304
-368
-208
-64
0
80
160
176
208
224
304
384
240
96
0
-80
-176
-208
-224
-224
-304
-368
-224
-64
0
80
160
176
208
208
288
384
240
96
0
-80
-176
-208
-224
-224
-288
-368
-224
-64
0
80
160
176
208
208
288
384
256
96
16
-80
-176
-208
-208
-224
-288
-368
-240
-64
0
80
160
176
208
208
288
384
256
96
16
-64
-176
-208
-208
-224
-288
-368
-240
-64
0
64
160
176
208
208
288
384
272
112
16
-64
-176
-192
-208
-208
-288
-368
-256
-80
0
64
160
176
208
208
272
384
288
112
16
-64
-176
-208
-208
-208
-272
-368
-256
-80
0
64
160
176
208
208
272
384
288
112
16
-64
-160
-192
-208
-208
-272
-352
-272
-80
-16
64
144
176
208
208
272
384
304
128
32
-48
-160
-192
-208
-208
-272
-352
-272
-80
-16
48
144
176
208
208
272
368
304
128
32
-48
-160
-192
-208
-208
-272
-352
-288
-96
-16
48
144
176
208
208
272
368
320
128
32
-48
-160
-192
-208
-208
-272
-352
-304
-96
-16
48
144
160
192
208
256
368
320
128
32
-48
-144
-192
-208
-208
-272
-352
-304
-96
-16
48
128
160
192
208
256
368
336
128
32
-48
-144
-192
-208
-208
-256
-352
-320
-112
-32
48
128
160
192
192
256
352
336
144
32
-32
-144
-192
-208
-208
-256
-352
-320
-112
-32
32
128
160
192
192
256
352
352
144
48
-32
-144
-192
-208
-208
-256
-336
-336
-128
-32
32
128
160
192
192
240
336
352
160
48
-32
-144
-192
-208
-208
-256
-336
-336
-128
-32
32
128
160
192
192
240
336
352
160
48
-32
-128
-192
-208
-208
-256
-336
-336
-144
-48
32
112
160
192
192
240
336
368
160
48
-32
-128
-192
-208
-208
-240
-320
-352
-144
-48
16
112
160
192
192
240
336
368
176
64
-32
-128
-192
-208
-208
-240
-320
-352
-144
-48
16
112
160
192
192
224
320
368
176
64
-16
-112
-192
-208
-208
-240
-320
-352
-160
-48
16
112
160
192
192
224
320
368
192
64
-16
-112
-192
-208
-208
-240
-320
-352
-160
-48
16
96
160
176
192
224
320
368
192
64
-16
-112
-192
-208
-208
-240
-320
-368
-176
-48
16
96
160
176
192
224
304
384
192
64
-16
-112
-192
-208
-224
-240
-320
-368
-192
-48
16
96
160
176
192
224
304
384
208
80
-16
-96
-192
-208
-224
-240
-304
-368
-192
-64
0
80
160
176
192
224
304
384
224
80
0
-96
-192
-208
-224
-224
-304
-368
-192
-64
0
80
160
176
192
208
288
384
224
80
0
-96
-192
-208
-224
-224
-304
-368
-208
-64
0
80
160
176
192
208
288
384
224
80
0
-96
-192
-208
-224
-224
-304
-368
-224
-64
0
80
144
176
192
208
288
384
240
80
0
-80
-192
-208
-224
-224
-304
-368
-224
-80
0
64
144
176
192
208
272
368
240
96
0
-80
-176
-208
-224
-224
-304
-368
-240
-80
0
64
144
160
192
208
272
368
256
96
0
-80
-176
-208
-224
-224
-288
-368
-256
-80
-16
64
144
160
192
192
272
368
256
96
0
-64
-176
-208
-224
-224
-288
-368
-256
-80
-16
64
144
160
192
192
272
368
272
96
16
-64
-176
-208
-224
-224
-288
-368
-272
-96
-16
48
144
160
192
192
256
368
288
112
16
-64
-176
-208
-224
-224
-288
-368
-288
-96
-16
48
144
160
192
192
256
368
288
112
16
-64
-176
-208
-224
-224
-288
-368
-288
-96
-16
48
144
160
192
192
256
368
304
112
16
-48
-160
-208
-224
-224
-272
-352
-288
-96
-16
48
128
160
192
192
256
352
304
128
32
-48
-160
-208
-224
-224
-272
-352
-304
-112
-32
48
128
160
192
192
256
352
320
128
32
-48
-160
-192
-224
-224
-272
-352
-304
-112
-32
32
128
160
192
192
256
352
320
128
32
-48
-144
-192
-224
-224
-272
-352
-320
-112
-32
32
128
160
192
192
240
352
336
128
32
-48
-144
-192
-224
-224
-256
-352
-320
-128
-32
32
128
160
192
192
240
336
336
144
32
-48
-144
-208
-224
-224
-272
-352
-336
-128
-32
32
112
160
192
192
240
336
352
144
48
-48
-144
-208
-224
-224
-256
-336
-352
-144
-32
32
112
160
192
192
240
336
352
160
48
-32
-128
-192
-208
-208
-256
-336
-352
-144
-48
16
112
160
192
192
224
336
368
160
48
-32
-128
-192
-208
-208
-256
-336
-352
-144
-48
16
112
160
176
192
224
320
368
176
64
-32
-128
-192
-208
-224
-256
-336
-368
-160
-48
16
96
160
176
192
224
320
368
176
64
-32
-128
-192
-208
-224
-240
-320
-368
-160
-48
16
96
160
176
192
224
320
368
176
64
-16
-112
-192
-208
-224
-240
-320
-368
-176
-64
16
96
144
176
192
224
304
368
192
64
-16
-112
-192
-208
-224
-240
-320
-368
-176
-48
0
96
144
176
192
208
304
384
192
64
-16
-112
-192
-208
-224
-240
-320
-384
-192
-64
0
80
144
176
192
208
304
368
208
64
-16
-112
-192
-208
-224
-240
-320
-384
-208
-64
0
80
144
176
192
208
304
384
208
80
-16
-96
-192
-208
-224
-240
-304
-384
-208
-80
0
80
144
176
192
208
288
384
224
80
-16
-96
-192
-208
-224
-240
-304
-384
-224
-80
0
80
144
160
192
208
288
384
224
80
0
-96
-192
-208
-224
-240
-304
-384
-224
-80
0
64
144
160
192
208
288
384
240
96
0
-96
-192
-208
-224
-224
-304
-384
-240
-80
0
64
144
160
192
208
272
368
240
96
0
-80
-176
-208
-224
-224
-304
-384
-256
-80
-16
64
144
160
192
192
272
368
256
96
0
-80
-176
-208
-224
-224
-288
-384
-256
-96
-16
64
144
160
192
192
272
368
272
96
0
-80
-176
-208
-224
-224
-288
-384
-272
-96
-16
48
144
160
192
192
272
368
272
96
16
-80
-176
-208
-224
-224
-288
-368
-272
-96
-16
48
128
160
192
192
256
368
272
112
16
-64
-176
-208
-224
-224
-288
-368
-288
-96
-32
48
128
160
192
192
256
368
288
112
16
-64
-176
-208
-224
-224
-288
-368
-288
-112
-32
48
128
160
192
192
256
352
304
112
16
-64
-176
-208
-224
-224
-288
-368
-304
-112
-32
32
128
160
192
192
256
352
304
128
16
-64
-160
-208
-224
-224
-272
-368
-304
-112
-32
32
112
144
176
192
240
352
304
128
32
-64
-160
-208
-224
-224
-272
-368
-320
-128
-32
32
112
144
192
192
240
336
320
128
32
-48
-160
-208
-224
-224
-272
-352
-336
-128
-48
32
112
144
192
192
240
336
320
128
32
-48
-144
-208
-224
-224
-272
-352
-336
-128
-32
16
112
144
176
192
240
336
336
144
32
-48
-144
-208
-224
-224
-272
-352
-336
-144
-48
16
112
144
176
192
224
336
336
144
48
-48
-144
-208
-224
-224
-256
-352
-352
-144
-48
16
112
144
176
192
224
336
352
144
48
-32
-144
-208
-224
-224
-256
-336
-352
-144
-48
16
96
144
176
192
224
320
352
160
48
-32
-128
-192
-224
-224
-256
-336
-352
-160
-48
16
96
144
176
192
224
320
352
160
64
-32
-128
-192
-208
-224
-256
-336
-368
-160
-48
16
96
144
176
192
208
304
368
176
64
-32
-128
-192
-224
-224
-240
-320
-368
-176
-64
0
80
144
176
192
208
304
368
176
64
-16
-112
-192
-208
-224
-240
-320
-368
-176
-64
0
80
144
176
176
208
304
368
192
64
-16
-112
-192
-224
-224
-240
-320
-368
-192
-64
0
80
144
176
192
208
304
368
192
64
-16
-112
-192
-208
-224
-240
-304
-368
-192
-64
0
80
144
176
192
208
304
384
208
80
-16
-96
-192
-208
-208
-224
-304
-368
-192
-64
0
80
144
176
192
208
304
384
224
80
0
-96
-192
-208
-208
-224
-304
-368
-208
-64
0
80
144
176
192
208
304
384
224
96
0
-96
-176
-208
-208
-224
-304
-368
-208
-64
0
80
144
176
208
208
288
384
240
96
0
-80
-176
-208
-224
-224
-288
-368
-224
-64
0
80
160
176
208
208
288
384
256
96
0
-80
-176
-208
-224
-224
-288
-368
-224
-64
0
80
160
176
208
208
288
384
256
96
16
-80
-176
-208
-224
-224
-288
-368
-240
-64
0
80
144
176
208
208
288
384
272
112
16
-64
-176
-192
-208
-208
-272
-368
-240
-64
0
80
160
192
224
224
288
384
272
112
16
-64
-160
-192
-208
-224
-272
-368
-256
-80
0
80
160
176
208
208
288
384
288
112
16
-64
-176
-208
-224
-224
-288
-368
-272
-80
-16
64
144
176
208
208
272
384
288
112
16
-64
-176
-208
-224
-224
-288
-368
-272
-80
-16
64
144
176
208
208
272
384
304
112
16
-64
-176
-208
-224
-224
-272
-352
-288
-96
-16
64
144
176
208
208
272
368
304
128
32
-64
-160
-208
-224
-224
-272
-352
-288
-96
-16
48
144
160
208
208
256
368
320
128
32
-48
-160
-208
-224
-224
-272
-352
-304
-112
-32
48
128
160
192
192
256
352
320
128
32
-48
-160
-208
-224
-224
-272
-352
-320
-112
-32
32
128
160
192
192
240
352
320
144
32
-48
-144
-192
-208
-208
-256
-352
-320
-128
-32
32
112
160
192
192
240
336
336
144
48
-32
-144
-192
-208
-208
-256
-336
-320
-128
-32
32
112
144
176
192
240
336
336
144
48
-32
-144
-192
-208
-208
-256
-336
-336
-128
-48
16
112
144
176
192
224
336
352
144
48
-32
-128
-192
-208
-208
-256
-336
-336
-144
-48
16
112
144
176
192
224
336
352
160
48
-32
-128
-192
-208
-208
-240
-320
-336
-144
-48
16
96
144
176
192
224
320
352
160
64
-16
-128
-192
-208
-208
-240
-320
-352
-160
-48
16
96
144
176
192
224
320
368
176
64
-16
-128
-192
-208
-208
-240
-320
-352
-160
-48
16
96
144
176
192
224
320
368
176
64
-16
-112
-192
-208
-208
-240
-320
-352
-160
-48
16
96
144
176
192
224
304
368
192
64
-16
-112
-192
-208
-208
-240
-320
-368
-176
-48
16
96
160
176
192
224
304
368
192
80
-16
-96
-192
-208
-208
-240
-304
-368
-176
-48
16
96
144
176
192
208
304
384
208
80
-16
-96
-192
-208
-208
-240
-304
-368
-192
-64
0
80
144
176
192
208
304
384
208
80
0
-96
-192
-208
-208
-224
-304
-368
-192
-64
0
80
144
176
192
208
288
384
224
80
0
-96
-176
-208
-208
-224
-304
-368
-208
-64
0
80
144
176
192
208
288
384
224
96
0
-80
-176
-208
-208
-224
-288
-368
-208
-64
0
80
144
176
192
208
288
384
240
96
0
-80
-176
-208
-224
-224
-288
-368
-224
-64
0
80
144
176
192
208
288
384
240
96
0
-80
-176
-208
-208
-224
-288
-368
-224
-64
0
64
144
176
192
208
288
384
256
96
16
-80
-176
-208
-208
-224
-288
-368
-240
-80
0
64
144
160
192
208
272
368
256
96
16
-64
-176
-208
-224
-224
-288
-368
-256
-80
-16
64
144
160
192
192
272
368
256
96
16
-64
-176
-208
-224
-224
-288
-368
-256
-80
-16
64
144
176
192
192
272
368
272
112
16
-64
-160
-192
-208
-208
-272
-368
-272
-80
-16
64
144
160
192
192
256
368
288
112
16
-64
-160
-192
-208
-208
-272
-352
-272
-96
-16
48
128
160
192
192
256
368
288
112
16
-64
-160
-208
-224
-208
-272
-352
-288
-96
-16
48
128
160
192
192
256
352
304
128
32
-48
-160
-208
-224
-208
-272
-352
-288
-96
-16
48
128
160
192
192
256
352
304
128
32
-48
-160
-208
-224
-208
-272
-352
-304
-112
-32
48
128
160
192
192
240
352
320
128
32
-48
-144
-192
-224
-208
-272
-352
-304
-112
-32
32
128
160
192
192
256
352
320
144
32
-48
-144
-192
-208
-208
-256
-336
-320
-112
-16
32
128
160
192
192
240
352
336
144
48
-32
-128
-192
-208
-208
-256
-336
-320
-112
-32
32
128
160
192
192
240
352
352
144
48
-32
-128
-192
-208
-208
-256
-336
-320
-128
-32
32
112
160
192
192
240
336
352
144
48
-32
-128
-192
-208
-208
-256
-336
-336
-128
-32
32
112
160
192
192
240
336
352
160
48
-32
-128
-192
-208
-208
-256
-336
-352
-144
-48
16
112
160
192
192
224
320
352
160
48
-32
-128
-192
-208
-208
-240
-320
-352
-144
-32
16
96
144
176
192
224
320
352
160
48
-32
-128
-208
-224
-224
-240
-320
-352
-160
-48
16
96
144
176
192
224
304
352
176
48
-32
-128
-208
-224
-224
-256
-320
-368
-176
-64
0
96
144
176
192
208
304
368
176
48
-32
-128
-208
-224
-224
-256
-320
-368
-176
-64
0
80
144
176
192
208
304
368
192
64
-32
-112
-208
-224
-224
-240
-320
-368
-192
-64
0
80
144
176
192
208
288
368
192
64
-32
-112
-208
-224
-224
-240
-320
-368
-192
-64
0
80
144
176
192
208
288
368
192
64
-16
-112
-192
-224
-224
-240
-320
-384
-208
-64
0
80
144
160
192
208
288
368
208
64
-16
-96
-192
-224
-224
-240
-304
-384
-208
-64
0
64
144
160
192
192
288
368
208
64
-16
-96
-192
-224
-224
-240
-304
-384
-224
-80
-16
64
144
160
192
192
272
368
224
80
-16
-96
-192
-224
-224
-240
-304
-384
-240
-80
-16
64
144
160
192
192
272
368
240
80
-16
-96
-192
-224
-224
-240
-304
-384
-240
-80
-16
48
128
160
192
192
272
368
240
80
-16
-96
-192
-224
-240
-240
-304
-384
-256
-96
-16
48
128
160
176
192
256
368
240
80
0
-80
-192
-224
-240
-240
-304
-384
-272
-96
-16
48
128
160
176
192
256
368
256
96
0
-80
-192
-224
-240
-240
-288
-384
-272
-96
-32
48
128
160
192
192
256
352
272
96
0
-80
-176
-224
-240
-240
-288
-384
-288
-96
-32
48
128
160
192
192
256
368
288
96
0
-64
-176
-208
-224
-224
-288
-368
-288
-96
-32
32
128
160
192
192
256
352
288
112
16
-64
-176
-208
-224
-224
-288
-368
-304
-112
-16
32
128
160
192
192
240
352
304
112
16
-64
-160
-208
-224
-224
-272
-368
-304
-112
-32
32
128
160
192
192
240
352
304
112
16
-64
-160
-208
-224
-224
-272
-368
-320
-112
-32
32
128
160
192
192
240
352
320
128
16
-48
-160
-208
-224
-224
-272
-352
-320
-112
-32
32
128
160
192
192
240
336
320
128
32
-48
-160
-208
-224
-224
-272
-352
-336
-128
-32
32
112
160
192
192
240
336
336
128
32
-48
-144
-208
-224
-224
-272
-352
-336
-128
-32
16
112
160
192
192
224
336
336
144
32
-48
-144
-208
-224
-224
-272
-352
-352
-144
-48
16
112
160
192
192
224
336
352
144
32
-48
-144
-208
-224
-224
-256
-352
-352
-144
-48
16
112
160
192
192
224
320
352
160
48
-32
-128
-208
-224
-224
-256
-336
-352
-144
-48
16
96
160
176
192
224
320
352
160
48
-32
-128
-208
-224
-224
-256
-336
-368
-160
-48
16
96
144
176
192
224
320
368
176
48
-32
-128
-208
-224
-224
-256
-336
-368
-176
-48
16
96
160
176
192
224
304
368
176
48
-32
-128
-208
-224
-224
-256
-320
-368
-176
-48
16
96
160
176
192
208
304
368
176
64
-32
-112
-192
-224
-224
-240
-320
-368
-176
-48
16
96
160
176
192
208
304
368
192
64
-16
-112
-192
-224
-224
-240
-320
-368
-192
-64
0
80
144
176
192
208
304
368
208
64
-16
-112
-192
-208
-224
-240
-320
-384
-208
-64
0
80
144
176
192
208
288
368
208
64
-16
-96
-192
-224
-224
-240
-320
-384
-208
-64
0
80
144
176
192
208
288
368
224
80
-16
-96
-192
-208
-224
-240
-304
-384
-224
-64
0
80
144
176
192
208
288
384
224
80
-16
-96
-192
-208
-224
-240
-304
-384
-224
-64
0
64
144
176
192
208
288
384
240
80
0
-96
-192
-208
-224
-240
-304
-384
-240
-80
0
64
144
176
192
192
272
368
240
80
0
-80
-192
-208
-224
-224
-288
-384
-240
-80
-16
64
144
160
192
192
272
368
256
96
0
-80
-176
-208
-224
-224
-288
-368
-256
-80
-16
64
144
160
192
192
272
368
256
96
0
-80
-176
-208
-224
-224
-288
-368
-272
-80
-16
48
144
160
192
192
272
368
272
96
0
-80
-176
-208
-224
-224
-288
-368
-272
-96
-16
48
144
160
192
208
272
368
288
112
16
-64
-176
-208
-224
-224
-272
-368
-272
-96
-16
48
144
160
192
208
272
368
288
112
16
-64
-160
-208
-224
-224
-272
-352
-288
-96
-16
48
144
160
192
192
256
368
304
112
16
-64
-160
-208
-224
-224
-272
-352
-304
-96
-16
48
128
160
192
192
256
352
320
128
32
-48
-160
-208
-224
-224
-272
-352
-304
-112
-16
48
128
160
192
192
256
352
320
128
32
-48
-160
-208
-224
-224
-272
-352
-320
-112
-16
32
128
160
192
192
240
352
320
128
32
-48
-144
-208
-224
-224
-256
-352
-320
-112
-32
32
112
160
192
192
240
336
320
128
32
-48
-160
-208
-224
-224
-272
-352
-336
-128
-32
32
112
160
192
192
240
336
336
144
32
-48
-144
-208
-224
-224
-256
-336
-336
-128
-32
32
112
160
192
192
240
336
336
144
32
-48
-144
-208
-224
-224
-256
-336
-352
-144
-48
32
112
160
192
192
224
320
352
144
48
-32
-144
-208
-224
-224
-256
-336
-352
-144
-48
16
112
144
192
192
224
320
352
160
48
-32
-128
-208
-224
-224
-256
-336
-352
-160
-48
16
112
160
192
192
224
320
352
160
48
-32
-128
-208
-224
-224
-256
-336
-352
-160
-48
16
96
160
176
192
224
304
352
160
48
-32
-128
-208
-224
-224
-256
-320
-368
-160
-48
16
96
160
192
192
224
304
368
176
48
-32
-128
-208
-224
-224
-256
-320
-368
-176
-48
16
96
160
192
192
224
304
368
176
48
-32
-128
-224
-240
-240
-256
-336
-384
-192
-48
16
96
160
176
192
224
304
352
176
48
-48
-144
-224
-240
-240
-256
-320
-384
-192
-64
16
96
160
192
208
208
288
368
176
48
-48
-128
-224
-240
-240
-256
-320
-368
-192
-48
16
96
160
176
192
208
288
368
192
64
-32
-128
-208
-224
-240
-240
-304
-368
-208
-64
16
80
160
176
208
208
288
368
208
64
-32
-112
-208
-224
-240
-240
-304
-368
-208
-64
16
80
160
176
208
208
288
368
208
64
-32
-112
-208
-224
-240
-240
-304
-368
-224
-64
0
80
160
176
208
208
288
368
224
80
-16
-96
-192
-224
-224
-240
-288
-368
-224
-64
0
80
160
176
208
208
288
368
240
80
0
-96
-192
-208
-224
-224
-288
-368
-240
-80
0
80
144
176
208
208
272
368
256
96
0
-80
-192
-208
-224
-224
-288
-368
-240
-80
0
64
144
176
208
208
272
368
256
96
0
-80
-176
-208
-224
-224
-288
-368
-256
-80
0
64
144
176
192
208
272
368
272
96
16
-64
-176
-208
-224
-224
-272
-352
-256
-80
-16
64
144
160
192
208
256
368
272
112
16
-64
-160
-208
-224
-224
-272
-352
-272
-96
-16
48
144
160
192
192
256
352
288
112
16
-64
-160
-208
-224
-224
-272
-352
-272
-96
-16
48
128
160
192
192
256
352
288
112
16
-64
-160
-208
-224
-208
-272
-352
-288
-96
-16
48
128
160
192
192
240
352
304
112
32
-48
-160
-192
-224
-208
-256
-352
-288
-96
-16
48
128
160
192
192
240
352
304
128
32
-48
-160
-192
-208
-208
-256
-336
-304
-112
-32
32
128
160
192
192
240
336
304
128
32
-48
-144
-192
-208
-208
-256
-336
-304
-112
-32
32
128
160
192
192
240
336
320
128
32
-48
-144
-192
-208
-208
-256
-336
-320
-128
-32
32
112
160
192
192
240
336
320
144
48
-32
-144
-192
-208
-208
-256
-336
-320
-128
-32
32
112
144
192
192
240
336
336
144
48
-32
-128
-192
-208
-208
-240
-320
-320
-128
-48
16
112
144
176
192
224
336
336
160
64
-16
-112
-176
-208
-208
-240
-320
-336
-144
-48
16
96
144
176
192
224
320
352
176
64
-16
-112
-176
-192
-208
-240
-320
-336
-144
-48
0
96
144
176
192
224
320
352
176
80
0
-96
-176
-192
-208
-240
-320
-352
-160
-64
0
80
144
176
192
224
320
368
192
96
0
-96
-160
-192
-192
-224
-320
-352
-176
-64
0
80
128
176
176
208
304
368
192
96
16
-80
-160
-192
-192
-224
-304
-352
-176
-80
-16
64
128
160
176
208
304
368
208
96
16
-80
-160
-176
-192
-224
-304
-368
-192
-80
-16
64
128
160
176
208
304
384
224
112
32
-64
-144
-176
-192
-224
-304
-368
-192
-80
-16
64
128
160
176
208
304
384
224
112
32
-64
-144
-176
-192
-224
-304
-368
-208
-80
-16
64
128
160
176
208
304
384
224
112
32
-64
-144
-176
-192
-224
-288
-368
-208
-80
-16
64
128
160
192
208
288
384
240
112
32
-64
-144
-176
-192
-208
-288
-368
-224
-80
-16
48
128
160
192
208
288
384
240
112
32
-48
-144
-176
-192
-208
-288
-368
-224
-96
-16
48
128
160
192
208
288
384
256
128
32
-48
-144
-176
-192
-208
-288
-368
-224
-96
-16
48
128
160
192
208
288
384
256
128
32
-48
-144
-176
-192
-208
-288
-368
-240
-96
-16
48
128
160
192
208
288
384
272
128
32
-48
-144
-176
-192
-208
-272
-368
-240
-96
-32
48
128
160
192
208
272
384
272
128
48
-32
-128
-176
-192
-192
-272
-352
-256
-112
-32
32
112
144
176
192
272
384
288
144
64
-16
-112
-160
-176
-192
-256
-352
-256
-112
-48
16
96
144
176
192
256
384
304
160
80
0
-96
-144
-160
-176
-256
-352
-256
-112
-48
16
96
128
176
192
256
368
304
160
80
0
-96
-144
-160
-176
-240
-336
-272
-112
-48
16
96
128
176
176
256
368
304
160
80
0
-96
-144
-160
-176
-240
-336
-272
-112
-48
16
96
128
176
176
240
352
304
160
80
0
-96
-144
-176
-176
-240
-336
-272
-112
-48
16
96
128
176
176
240
352
320
160
80
0
-96
-144
-176
-176
-240
-320
-288
-112
-48
16
96
128
176
176
240
352
320
160
80
0
-96
-144
-160
-176
-224
-320
-304
-128
-64
-16
64
112
144
160
224
336
320
176
96
16
-80
-128
-144
-160
-224
-320
-304
-128
-64
-16
64
112
144
160
208
320
320
176
96
32
-64
-128
-144
-160
-208
-304
-304
-144
-64
-16
64
112
144
160
208
320
336
176
96
32
-64
-112
-144
-160
-208
-304
-304
-144
-64
-16
64
96
144
144
208
304
320
176
96
16
-64
-128
-144
-160
-208
-304
-320
-144
-64
-16
64
96
144
144
208
304
336
176
96
16
-64
-128
-160
-160
-208
-304
-320
-144
-64
-16
64
96
144
160
192
304
336
176
96
16
-64
-128
-160
-160
-208
-288
-320
-144
-64
-16
64
112
144
160
192
304
336
176
96
16
-64
-128
-160
-160
-208
-288
-320
-160
-64
-16
64
112
144
160
192
288
352
176
96
32
-64
-128
-144
-160
-192
-288
-320
-160
-64
-16
64
112
144
160
192
288
352
192
96
32
-64
-128
-144
-160
-192
-272
-320
-160
-64
-16
64
112
144
160
192
288
352
192
96
32
-48
-128
-144
-160
-192
-272
-320
-160
-64
-16
64
112
144
160
192
288
352
192
96
32
-48
-128
-160
-160
-192
-272
-320
-160
-64
-16
64
112
144
160
192
288
352
208
112
32
-48
-128
-144
-160
-192
-272
-320
-176
-64
-16
64
112
144
176
192
272
352
208
112
32
-48
-128
-144
-160
-176
-256
-320
-176
-64
-16
64
112
144
176
192
272
352
224
112
32
-48
-128
-144
-160
-176
-256
-320
-176
-64
0
64
128
160
176
192
272
352
224
112
32
-48
-128
-144
-160
-176
-256
-320
-176
-64
0
64
128
144
176
192
272
368
224
112
32
-48
-128
-144
-160
-176
-240
-320
-192
-64
0
64
128
144
176
192
272
352
240
112
32
-48
-128
-144
-160
-176
-240
-320
-192
-64
0
64
128
144
176
192
256
352
240
112
32
-32
-128
-144
-160
-176
-240
-320
-192
-64
0
64
128
160
176
192
256
352
256
128
48
-32
-128
-144
-160
-176
-240
-320
-208
-64
0
64
128
160
176
192
256
352
256
128
48
-32
-112
-144
-160
-176
-240
-320
-208
-64
0
48
128
144
176
192
256
352
256
128
48
-32
-128
-144
-176
-176
-240
-320
-224
-64
0
48
128
144
176
192
256
352
272
128
48
-32
-128
-144
-176
-176
-224
-320
-224
-80
0
48
128
144
176
176
240
352
272
128
48
-32
-112
-160
-176
-160
-224
-304
-240
-80
-16
48
128
144
176
192
240
352
288
128
48
-16
-112
-144
-176
-160
-224
-304
-240
-80
-16
48
112
144
176
176
240
336
288
128
48
-32
-128
-160
-176
-176
-224
-304
-256
-80
-16
48
112
144
176
176
240
336
288
128
48
-16
-112
-160
-176
-176
-224
-304
-256
-80
-16
48
112
144
176
176
224
336
304
128
48
-16
-112
-160
-176
-176
-224
-304
-256
-96
-16
32
112
144
176
176
224
320
304
128
48
-16
-112
-160
-176
-176
-224
-304
-272
-96
-32
32
112
144
176
176
224
320
304
144
48
-16
-112
-160
-176
-176
-208
-288
-272
-96
-16
32
112
144
176
176
224
320
304
144
48
-16
-112
-160
-176
-176
-208
-288
-288
-112
-32
32
112
144
176
176
208
304
320
144
48
-16
-112
-160
-176
-176
-208
-288
-288
-112
-32
32
112
144
176
176
224
304
320
160
64
-16
-96
-160
-176
-176
-208
-288
-288
-112
-32
32
112
144
176
176
208
304
320
160
64
0
-96
-144
-176
-176
-208
-272
-288
-112
-32
32
112
144
176
176
208
304
336
160
64
0
-96
-160
-176
-176
-208
-272
-304
-128
-32
32
96
144
176
176
208
288
336
160
64
0
-96
-160
-176
-176
-208
-272
-304
-128
-32
32
96
144
160
176
208
288
336
176
64
0
-96
-160
-176
-176
-192
-272
-304
-128
-32
16
96
144
176
176
208
288
336
176
80
0
-80
-160
-176
-176
-192
-272
-304
-144
-32
16
96
144
176
176
208
288
336
176
80
0
-80
-160
-176
-176
-192
-256
-304
-144
-32
16
96
144
160
176
192
272
336
192
80
0
-80
-144
-176
-176
-192
-256
-320
-160
-48
16
80
144
160
176
192
272
352
192
80
0
-80
-144
-176
-176
-192
-256
-320
-160
-48
16
80
144
160
176
192
272
352
208
80
0
-64
-144
-160
-176
-192
-256
-320
-160
-48
16
80
144
160
176
192
272
352
208
80
16
-64
-144
-176
-176
-192
-256
-320
-176
-48
16
80
128
160
176
192
256
352
208
96
16
-64
-144
-176
-176
-192
-240
-320
-176
-48
16
80
144
160
176
192
256
336
224
96
16
-64
-144
