-96
-112
-128
-192
-304
-240
-112
-32
16
80
112
128
144
208
320
288
160
80
-16
-96
-112
-112
-144
-192
-304
-240
-112
-48
16
80
112
128
144
208
320
288
160
80
-16
-96
-96
-112
-128
-192
-288
-256
-128
-48
16
80
112
128
144
192
320
288
160
80
-16
-96
-96
-112
-128
-192
-288
-256
-128
-48
16
80
112
128
144
192
304
304
176
96
0
-80
-96
-112
-128
-176
-288
-256
-128
-48
16
80
112
128
144
192
304
304
176
96
0
-80
-96
-112
-128
-176
-272
-272
-128
-48
16
80
112
128
144
192
304
320
176
96
0
-80
-96
-112
-128
-176
-272
-272
-128
-48
16
80
112
128
144
192
288
320
192
112
0
-80
-96
-112
-128
-176
-272
-288
-144
-48
16
80
112
128
144
192
288
320
192
112
16
-64
-96
-112
-128
-160
-256
-288
-144
-48
16
80
112
128
144
192
288
336
192
112
16
-64
-96
-112
-128
-160
-256
-288
-144
-64
0
64
112
128
144
176
272
336
208
112
16
-64
-96
-112
-112
-160
-256
-288
-144
-64
0
64
112
128
144
176
272
336
208
128
16
-64
-96
-112
-128
-160
-240
-304
-160
-64
0
64
112
128
144
176
272
336
208
128
32
-64
-96
-112
-128
-160
-240
-304
-160
-80
0
64
-96
-112
-128
-160
-224
-304
-176
-80
-16
48
96
128
144
176
240
336
224
144
48
-48
-96
-112
-128
-160
-224
-304
-192
-80
0
48
96
112
144
176
240
336
240
144
48
-48
-96
-112
-112
-144
-224
-320
-192
-96
-16
48
96
112
144
176
240
352
240
144
48
-32
-96
-112
-112
-144
-208
-304
-208
-96
-16
48
96
112
144
176
240
352
256
144
48
-32
-96
-96
-112
-144
-208
-304
-208
-96
-16
48
96
112
144
160
224
336
256
160
64
-32
96
112
144
160
224
336
272
160
80
-16
-96
-112
-112
-144
-192
-304
-240
-112
-32
16
96
112
128
160
208
336
288
160
80
-16
-96
-112
-112
-144
-192
-304
-240
-112
-32
16
96
112
128
160
208
320
288
160
80
-16
80
112
128
144
192
304
304
176
96
0
-80
-112
-112
-128
-176
-288
-272
-128
-48
16
80
112
128
144
192
304
320
176
96
0
-80
-112
-112
-128
-176
-272
-272
-128
-48
16
80
112
128
144
192
304
320
192
96
0
-80
-112
-112
-128
-176
-272
-288
-144
-64
0
80
112
128
144
192
288
320
192
112
0
-80
-112
-112
-128
-176
-272
-288
-144
-64
0
80
112
128
144
192
288
336
192
112
16
-80
-112
-112
-128
-176
-272
-304
-144
-64
0
64
112
128
144
192
288
336
192
112
16
-80
-112
-112
-128
-176
-256
-304
-160
-64
0
64
112
128
144
176
272
336
208
112
16
-64
-112
-112
-128
-176
-256
-304
-160
-64
0
64
112
128
144
176
272
336
208
128
16
48
96
112
144
176
256
352
224
128
32
-48
-112
-112
-128
-160
-240
-320
-192
-96
-16
48
96
112
144
176
240
336
240
144
32
-48
-96
-112
-128
-160
-224
-320
-192
-96
-16
48
96
112
144
176
240
336
240
144
48
-48
-96
-112
-128
-160
-224
-320
-192
-96
-16
32
96
112
144
160
240
336
240
144
48
-32
-96
-112
-128
-144
-224
-304
-208
-96
-16
48
96
112
144
160
240
336
256
144
48
-32
-96
-112
-128
-144
-208
-304
-208
-96
-16
32
96
112
144
160
224
336
256
144
48
-32
-96
-112
-112
-144
-208
-304
-208
-96
-16
32
96
112
128
160
224
336
272
160
64
-32
-96
-96
-112
-144
-208
-304
-224
-112
-32
32
96
112
128
160
224
336
272
160
64
-32
-96
-96
-112
-144
-192
-304
-224
-112
-32
32
96
112
128
160
208
336
272
160
80
-16
-96
-96
-112
-144
-192
-304
-240
-112
-32
32
96
112
128
160
208
320
288
160
80
-16
-96
-112
-112
-144
-192
-304
-240
-112
-32
16
80
112
128
144
208
320
288
160
80
-16
-96
-112
-112
-144
-192
-288
-256
-112
-32
16
80
112
128
160
208
320
288
160
80
-16
-96
-112
-112
-144
-192
-288
-256
-128
-48
16
80
112
128
144
192
304
304
176
80
-16
-96
-112
-112
-128
-192
-288
-256
-128
-48
16
80
112
128
144
192
304
304
176
96
0
-80
-112
-112
-128
-192
-288
-272
-128
-48
16
80
112
128
144
192
304
304
176
96
0
-80
-112
-112
-128
-176
-272
-272
-144
-48
16
64
112
128
144
192
288
320
176
96
0
-80
-112
-112
-128
-176
-272
-288
-144
-64
0
80
112
128
144
192
288
320
176
96
0
-80
-112
-112
-128
-176
-272
-288
-144
-64
0
64
112
128
144
176
288
320
192
112
0
64
96
112
144
176
272
336
192
112
16
-64
-112
-112
-128
-160
-256
-304
-160
-80
0
48
96
112
128
176
256
336
208
128
32
-64
-112
-112
-128
-160
-240
-304
-176
-80
-16
48
96
112
144
176
256
336
208
128
32
-64
-112
-112
-128
-160
-240
-304
-176
-80
-16
48
96
112
128
176
256
336
224
128
32
-64
-112
-112
-128
-160
-240
-320
-192
-80
-16
48
96
112
128
160
240
336
224
128
32
-48
-112
-112
-128
-160
-224
-304
-192
-96
-16
48
96
112
128
160
240
336
224
128
32
-48
-112
-112
-128
-160
-224
-320
-192
-96
-16
48
96
112
128
160
224
336
240
144
48
-48
-112
-112
-128
-160
-224
-320
-208
-96
-32
32
96
112
128
160
224
336
240
144
-32
32
96
112
128
160
224
336
272
160
64
-32
-96
-112
-112
-144
-208
-304
-224
-112
-32
32
96
112
128
160
208
320
272
160
64
-16
-96
-112
-112
-144
-192
-304
-240
-112
-32
16
96
112
128
144
208
320
272
160
64
-16
-96
-112
-112
-144
-192
-304
-240
-112
-32
16
80
112
128
144
208
320
288
160
80
-16
-96
-112
-112
-144
-192
-304
-256
-128
-48
16
80
112
128
144
208
320
288
160
80
-16
-96
-112
-112
-144
-192
-288
-256
-128
96
0
-80
-112
-112
-128
-176
-272
-272
-128
-48
0
80
96
128
144
192
288
304
176
96
0
-80
-112
-112
-128
-176
-272
-272
-144
-64
0
64
96
112
128
176
288
304
176
96
0
-80
-112
-112
-128
-176
-272
-288
-144
-64
0
64
96
112
144
176
272
320
176
96
0
-80
-112
-112
-128
-176
-272
-288
-144
-64
0
64
96
112
128
176
272
320
192
112
16
-80
-112
-112
-128
-176
-256
-288
-160
-64
0
64
96
112
128
176
272
320
192
112
16
-64
-112
-112
-128
-160
-256
-288
-160
-64
0
48
96
112
128
176
256
320
192
112
16
-64
-112
-112
-128
-160
-240
-304
-160
-80
-16
48
96
112
128
160
256
320
208
112
16
-64
-112
-112
-128
-160
-240
-304
-160
128
32
-48
-96
-112
-128
-160
-224
-304
-176
-80
-16
48
96
112
128
160
240
320
224
128
32
-48
-112
-112
-128
-144
-224
-304
-192
-96
-16
32
96
112
128
160
224
320
224
128
32
-48
-112
-112
-128
-144
-224
-304
-192
-96
-16
32
96
112
128
160
224
320
224
128
32
-48
-112
-112
-112
-144
-208
-304
-192
-96
-32
32
80
112
128
160
224
320
240
144
48
-32
-96
-112
-128
-144
-208
-304
-208
-96
-16
32
96
112
128
160
208
320
240
144
48
-32
-96
-96
-112
-144
-208
-304
-208
-96
-32
32
96
112
128
144
208
320
256
144
64
-32
-96
-96
-112
-144
-192
-304
-208
-96
-32
32
96
112
128
144
208
320
256
144
64
-32
-96
-96
-112
-144
-192
-304
-224
-112
-32
32
80
112
128
144
208
320
256
144
64
-16
-96
-96
-112
-128
-192
-288
-224
-112
-32
16
80
96
128
144
208
320
272
160
64
-16
-96
-96
-112
-128
-192
-288
-240
-112
-32
16
80
96
112
144
192
304
272
-112
-48
16
80
96
128
144
192
288
288
160
80
0
-80
-96
-112
-128
-176
-272
-256
-128
-48
16
80
96
112
144
176
288
288
176
96
0
-80
-96
-112
-128
-176
-272
-256
-128
-48
0
80
96
128
144
176
288
304
176
96
0
-80
-96
-112
-128
-160
-256
-272
-128
-48
0
64
96
112
144
176
272
304
176
96
0
-80
-96
-112
-128
-160
-256
-272
-128
-48
0
64
96
112
144
176
272
304
176
96
0
-64
-96
-112
-128
-160
-256
-272
-144
-48
0
64
96
112
128
176
272
304
176
96
16
-64
-96
-112
-128
-160
-256
-272
-144
-64
0
64
96
112
128
176
256
320
192
112
16
-64
-96
-96
-112
-160
-240
-288
-144
-64
0
64
96
112
128
160
256
320
192
112
16
-64
-96
-112
-128
-160
-240
-288
-160
-80
-16
48
96
112
128
160
256
320
192
112
16
-64
-96
-96
-112
-160
-240
-288
-160
-64
0
48
96
112
128
160
240
320
192
112
32
-48
-96
-96
-112
-144
-224
-288
224
128
32
-48
-96
-96
-112
-144
-208
-288
-176
-80
-16
48
96
112
128
160
224
320
224
128
48
-48
-96
-96
-112
-144
-208
-288
-176
-80
-16
32
96
112
128
160
224
320
224
128
48
-32
-96
-96
-112
-144
-208
-288
-192
-80
-16
32
96
112
128
144
224
320
224
128
48
-32
-96
-96
-112
-144
-208
-288
-192
-96
-16
32
96
112
128
144
208
320
240
144
48
-32
-96
-96
-112
-144
-192
-288
-192
-96
-32
32
80
96
128
144
208
320
240
144
48
-32
-96
-96
-112
-128
-192
-288
-208
-96
-32
32
80
96
128
144
208
304
240
144
64
-32
-96
-96
-112
-128
-192
-288
-208
-96
-32
16
80
96
112
144
192
304
240
144
64
-32
-96
-96
-112
-128
-192
-288
-224
-112
-32
16
80
96
112
144
192
304
256
144
64
-16
-96
-96
-112
-128
-192
-288
-224
-112
-32
16
80
96
112
144
192
304
256
144
64
-16
-80
-96
-112
-128
-176
-288
-224
-112
-32
16
80
96
112
144
192
304
-240
-112
-48
16
80
96
112
144
176
288
288
160
80
0
-80
-96
-112
-128
-160
-272
-256
-128
-48
0
64
96
112
144
176
288
288
160
96
0
-80
-96
-112
-112
-160
-256
-256
-128
-48
0
64
96
112
128
176
272
288
176
96
0
-80
-96
-96
-128
-160
-256
-256
-128
-48
0
64
96
112
128
176
272
288
176
96
16
-64
-96
-96
-112
-160
-256
-256
-128
-48
0
64
96
112
128
176
272
304
176
96
0
-64
-96
-96
-112
-160
-240
304
176
112
16
-64
-96
-96
-112
-144
-240
-272
-144
-64
-16
48
96
112
128
160
240
304
176
112
16
-64
-96
-112
-128
-160
-240
-288
-160
-80
0
48
96
96
128
160
240
304
192
112
16
-64
-96
-112
-112
-144
-224
-288
-160
-80
-16
48
96
112
128
160
240
304
192
112
16
-64
-96
-96
-112
-144
-224
-288
-160
-80
-16
32
96
112
128
160
224
320
192
112
32
-48
-96
-96
-112
-144
-224
-288
-160
-80
-16
48
96
96
112
144
224
-288
-176
-80
-16
32
80
96
112
144
208
304
224
128
48
-48
-96
-96
-112
-144
-192
-288
-192
-96
-16
32
80
96
112
144
208
304
224
128
48
-32
-96
-96
-112
-144
-192
-288
-192
-96
-32
32
96
96
112
144
208
304
224
128
48
-32
-96
-96
-112
-128
-192
-288
-192
-96
-32
16
80
96
112
144
192
304
240
128
48
-32
-96
-96
-112
-128
-192
-288
-208
-96
-32
16
80
96
112
144
192
304
240
144
64
-32
-96
-96
-112
-128
-192
288
256
144
64
-16
-80
-96
-112
-128
-176
-272
-240
-112
-32
16
80
96
112
128
176
288
256
144
64
-16
-80
-96
-112
-128
-176
-272
-240
-112
-48
16
80
96
112
128
176
288
272
144
80
-16
-80
-96
-112
-128
-176
-272
-240
-112
-48
0
64
96
112
128
176
288
272
160
80
-16
-80
-96
-112
-128
-160
-272
-240
-128
-48
0
64
96
112
128
176
272
272
160
80
0
-80
-96
-112
-128
-160
-256
-256
-128
-48
0
64
96
112
128
176
272
288
160
80
0
-80
-96
-112
-128
-160
-256
-256
-128
-48
0
64
96
112
128
176
272
288
160
96
0
-80
-96
-96
-112
-160
-256
-256
-128
-48
0
64
96
112
128
160
256
288
160
96
0
-80
-96
-96
-112
-160
256
304
176
96
16
-64
-96
-96
-112
-160
-240
-272
-144
-64
-16
48
96
112
128
160
240
304
176
112
16
-64
-96
-96
-112
-144
-224
-272
-144
-64
-16
48
96
96
128
160
240
304
176
112
16
-64
-96
-112
-112
-144
-224
-288
-160
-80
0
48
96
96
112
144
224
304
192
112
16
-64
-96
-112
-112
-144
-224
-288
-160
-80
-16
48
80
96
112
144
224
304
192
112
16
-48
-96
-96
-112
-144
-224
-288
-160
-80
-16
32
80
96
112
144
224
304
192
112
32
-64
-96
-112
-112
-144
-224
-288
-176
-80
-16
32
80
96
112
144
208
304
192
112
16
-48
-112
-112
-128
-144
-224
-304
-176
-96
-32
32
80
96
112
144
208
304
208
112
32
-48
-112
-112
-112
-144
192
304
224
128
32
-48
-96
-112
-112
-144
-208
-288
-208
-96
-32
16
80
96
112
128
192
304
224
128
48
-32
-96
-112
-112
-144
-192
-288
-208
-112
-32
16
80
96
112
128
192
304
240
128
48
-32
-96
-112
-112
-144
-192
-288
-208
-112
-32
16
80
96
112
144
192
304
240
144
48
-32
-96
-96
-112
-144
-192
-288
-224
-112
-32
16
80
96
112
128
192
304
240
144
64
-32
-96
-112
-112
-144
-192
-288
-224
-112
-32
16
80
96
112
128
176
304
256
144
64
-16
-96
-112
-112
-128
-192
-288
-240
-112
-48
0
80
96
112
128
192
304
272
144
64
-16
-96
-96
-112
-128
-176
-288
-240
-128
-48
16
80
96
112
128
176
288
272
144
64
-16
-96
-112
-112
-128
176
272
288
160
80
0
-80
-112
-112
-128
-176
-272
-272
-128
-48
0
64
96
112
128
176
272
288
160
80
0
-80
-112
-112
-128
-176
-272
-272
-144
-64
0
64
96
112
128
160
272
304
160
96
0
-80
-112
-112
-128
160
256
320
176
112
16
-80
-112
-112
-128
-160
-256
-288
-160
-64
0
48
96
112
128
160
240
320
192
112
16
-64
-112
-112
-128
-160
-240
-304
-160
-80
-16
48
96
112
128
160
240
320
192
112
16
-64
-112
-112
-128
-160
-240
-304
-160
-80
-16
48
96
112
128
160
240
320
192
112
16
-64
-112
-112
-128
-160
-240
-304
-176
-80
-16
48
96
96
112
144
224
320
192
112
16
-64
-112
-112
-128
-160
-240
-304
-176
-96
-16
48
96
96
128
160
224
320
208
112
32
-64
-112
-112
-128
-160
-240
-320
-192
-96
-16
32
96
96
128
144
224
320
208
128
32
-64
-112
-112
-128
-160
-224
-304
-192
-96
-16
32
96
96
128
144
224
320
224
128
32
-48
-112
-112
-128
144
208
320
240
128
48
-48
-112
-112
-128
-144
-208
-304
-208
-112
-32
16
80
96
112
144
208
320
240
128
48
-32
-112
-112
-128
-144
-208
-304
-224
-112
-32
32
80
96
112
144
208
320
256
144
48
-32
-96
-112
-128
-144
-208
-304
-224
-112
-32
16
80
96
112
144
192
320
256
144
64
-32
-96
-112
-128
-144
-192
-304
-240
-112
-48
16
80
96
112
144
192
304
272
144
64
-32
-96
-112
-112
-144
-192
-304
-240
-128
-48
16
80
96
112
-144
-192
-288
-256
-128
-48
0
64
96
112
128
176
288
288
160
80
-16
-96
-112
-112
-128
-176
-288
-272
-128
-64
0
64
96
112
128
176
288
288
160
80
-16
-96
-112
-112
-128
-176
-272
-272
-128
-64
0
64
96
112
128
176
288
304
176
96
0
-80
-112
-112
-128
-176
-272
-272
-144
-64
0
64
96
112
128
176
272
304
176
96
0
-80
-112
-112
-128
-176
-272
-288
-144
-64
0
64
96
112
128
176
272
304
176
96
0
-80
-112
-112
-128
-176
-256
-288
-144
-64
0
64
96
112
128
176
272
320
176
96
0
-80
-112
-112
-128
-176
-256
-288
-160
-64
0
64
96
112
128
160
256
320
192
112
16
-80
-112
-112
-128
-160
-256
-288
-160
-80
-16
48
96
112
-128
-160
-240
-304
-176
-80
-16
48
96
112
128
160
240
320
208
112
16
-64
-112
-112
-128
-160
-240
-304
-176
-80
-16
48
96
112
128
160
240
320
208
128
32
-64
-112
-112
-128
-160
-224
-304
-176
-96
-16
32
96
96
128
160
224
320
208
128
32
-48
-112
-112
-128
-160
-224
-304
-192
-96
-32
32
80
96
128
144
224
320
208
128
32
-48
-112
-112
-128
-160
-224
-304
-192
-96
-32
32
80
96
112
144
224
320
224
128
32
-48
-112
-112
-128
-144
-224
-304
-208
-96
-32
32
96
96
112
144
208
320
224
128
48
-48
-96
-112
-112
-144
-208
-304
-208
-96
-32
32
80
96
112
144
208
320
224
128
48
-48
-96
-112
-112
-144
-208
-304
-208
-96
-32
32
80
96
-112
-144
-192
-288
-224
-112
-32
16
80
96
112
144
192
304
256
144
64
-32
-96
-96
-112
-144
-192
-288
-224
-112
-32
16
80
96
112
144
192
304
256
144
64
-32
-96
-112
-112
-128
-192
-288
-240
-112
-48
16
80
96
112
128
176
288
256
144
64
-16
-96
-112
-112
-128
-192
-288
-240
-112
-48
0
64
96
112
128
176
288
272
144
64
-16
-96
-96
-112
-128
-176
-288
-256
-128
-48
16
80
96
112
128
176
288
272
144
80
-16
-96
-112
-112
-128
-176
-272
-256
-128
-48
0
64
96
112
128
176
272
272
160
80
-16
-96
-96
-112
-128
-176
-272
-256
-128
-48
0
64
96
112
128
160
272
272
160
80
-16
-80
-96
-112
-128
-176
-272
-256
-128
-64
0
64
96
-112
-128
-160
-256
-272
-144
-64
-16
48
80
96
112
160
256
288
160
96
0
-80
-96
-112
-128
-160
-240
-272
-144
-64
-16
48
80
96
112
160
240
288
176
96
0
-64
-96
-112
-128
-160
-240
-288
-144
-80
-16
48
80
96
112
144
240
288
176
96
16
-64
-96
-112
-112
-160
-240
-288
-160
-80
-16
32
80
96
112
144
224
304
176
96
16
-64
-96
-112
-112
-160
-224
-288
-160
-80
-16
48
80
96
112
144
224
304
176
96
16
-64
-112
-128
-144
-160
-240
-304
-176
-96
-32
48
80
96
112
144
224
288
176
96
0
-80
-128
-128
-144
-176
-240
-304
-176
-96
-32
32
80
96
112
144
208
288
176
96
0
-80
-128
-128
-128
-160
-240
-304
-176
-80
-16
32
80
96
112
144
224
304
192
112
16
-64
-112
-112
-128
-160
-224
-304
-176
-96
-16
32
80
96
112
128
208
304
192
112
32
-48
-96
-96
-112
-144
-208
-288
-176
-96
-16
32
80
96
112
144
208
304
208
112
32
-48
-112
-112
-128
-144
-208
-288
-176
-96
-16
32
96
96
128
144
208
304
224
128
48
-32
-80
-96
-96
-128
-192
-288
-176
-96
-32
32
80
96
112
144
192
304
224
128
48
-32
-96
-96
-112
-128
-192
-288
-192
-96
-16
32
80
-96
-96
-128
-176
-288
-208
-96
-32
16
80
96
112
128
192
288
240
144
64
-16
-80
-96
-96
-128
-176
-272
-208
-96
-32
16
64
80
96
128
176
288
240
144
64
-16
-80
-96
-112
-128
-176
-272
-224
-112
-32
16
80
96
112
128
176
288
256
144
64
-16
-80
-96
-112
-128
-176
-272
-224
-112
-48
16
64
96
112
128
176
288
256
144
64
-16
-80
-96
-96
-128
-176
-272
-224
-112
-48
16
64
80
96
128
176
272
256
144
64
-16
-80
96
112
128
160
256
272
160
80
0
-80
-96
-96
-112
-160
-256
-256
-128
-64
0
64
80
96
128
160
256
272
160
80
0
-80
-96
-96
-112
-160
-256
-256
-128
-64
0
64
80
96
112
160
256
272
160
96
0
-64
80
96
112
144
240
288
176
96
16
-64
-96
-96
-112
-144
-240
-272
-144
-80
-16
48
80
96
112
144
240
288
176
96
16
-64
-96
-96
-112
-144
-224
-272
-144
-64
0
48
96
96
112
144
224
304
176
112
16
-64
-96
-96
-112
-144
-224
-272
-144
-64
-16
48
96
96
112
144
224
304
176
112
16
-48
-96
-96
-112
-144
-224
-272
-144
-80
-16
48
80
96
112
144
224
304
192
112
32
-48
-96
-96
-112
-144
-208
-272
-160
-80
-16
32
-96
-96
-112
-144
-208
-288
-176
-80
-16
32
80
96
112
144
208
304
192
112
32
-48
-96
-96
-112
-144
-208
-288
-176
-96
-32
32
80
96
112
128
192
304
208
128
32
-48
-96
-96
-112
-128
-192
-288
-192
-96
-16
32
-96
-96
-112
-128
-192
-288
-208
-96
-32
16
80
96
112
128
192
288
224
128
48
-32
-96
-96
-112
-128
-176
-272
-208
-96
-32
16
80
96
112
128
176
288
224
128
48
-32
-96
-96
-112
-128
-176
-288
-208
-112
-32
16
80
96
112
128
176
288
240
144
64
-32
-96
-96
-112
-128
-176
-272
-224
-112
-32
16
80
96
112
128
176
288
240
144
64
-16
-80
-96
-112
-128
-176
-272
-224
-112
-32
16
80
96
112
128
176
288
256
144
64
-16
64
96
112
128
160
272
272
160
80
0
-80
-96
-112
-112
-160
-256
-240
-112
-48
0
64
96
112
128
160
272
272
160
80
0
-80
-96
-96
-112
-160
-256
-240
-112
-48
0
64
96
112
128
160
256
272
160
80
0
-80
-96
-96
-112
-160
-240
-256
-128
-64
0
64
96
112
128
160
256
272
160
96
0
-64
-96
-96
-112
-160
-256
-256
-128
-48
0
64
96
96
128
160
256
288
160
96
0
-64
-96
-96
-112
-160
-240
-256
-128
-48
0
-64
-96
-96
-112
-144
-224
-272
-144
-64
-16
48
96
112
128
160
240
304
176
112
16
-64
-96
-96
-112
-144
-224
-272
-144
-64
0
48
96
96
128
144
224
304
176
112
16
-48
-96
-96
-112
-144
-224
-272
-144
-64
-16
-48
-96
-96
-112
-144
-208
-272
-160
-80
-16
32
80
96
112
144
208
304
192
112
32
-48
-96
-96
-112
-128
-208
-272
-160
-80
-16
32
80
96
112
144
208
304
208
128
32
-48
-96
-96
-112
-128
-192
-288
-176
-80
-16
-32
-96
-96
-112
-128
-192
-288
-192
-96
-32
32
80
96
112
144
192
304
224
128
48
-32
-96
-96
-112
-128
-176
-272
-192
-96
-16
32
80
96
112
128
192
288
224
128
48
-32
-96
-96
-112
-128
-176
-272
-192
-96
-16
32
80
96
112
128
192
288
240
128
48
-32
-96
-96
-112
-128
-176
-272
-208
-96
-32
16
80
96
112
128
192
288
240
128
48
-32
-96
-96
-112
-128
-176
-272
-208
-96
-32
32
80
96
112
128
176
288
240
144
64
16
80
96
112
128
176
272
256
144
64
-16
-80
-96
-112
-128
-160
-256
-240
-112
-48
16
64
96
112
128
176
272
256
144
80
-16
-80
-96
-112
-128
-160
-256
-240
-112
-48
16
80
96
112
128
160
272
272
144
80
-16
-80
-96
-112
-128
-160
-256
-240
-112
-48
16
80
96
112
128
176
272
272
160
80
0
-80
-96
-112
-112
-160
-256
-240
-112
-48
0
64
96
112
128
160
272
272
160
96
0
-80
-96
-96
-112
-160
-240
-256
-128
-48
0
-64
-96
-96
-112
-144
-240
-256
-128
-64
0
64
96
112
128
160
240
288
176
96
16
-64
-96
-96
-112
-144
-224
-272
-128
-64
0
48
96
112
128
144
240
288
176
96
16
-64
-96
-96
-112
-144
-224
-272
-144
-64
-16
48
96
112
128
160
240
288
176
112
16
-64
-96
-96
-112
-144
-224
-272
-144
-64
0
48
96
112
112
144
224
304
176
112
16
-64
-96
-96
-112
-144
-224
-272
-144
-64
0
48
96
112
128
144
224
304
176
112
-16
48
96
96
128
144
208
304
192
112
32
-48
-96
-96
-112
-128
-192
-272
-160
-80
-16
48
96
96
112
144
208
304
208
128
32
-48
-96
-96
-112
-128
-192
-272
-176
-80
-16
32
96
96
112
144
208
304
208
128
-16
32
80
96
112
144
192
304
224
128
48
-32
-96
-96
-112
-128
-176
-272
-192
-96
-16
32
80
96
112
144
192
288
224
128
48
-32
-80
-96
-112
-128
-176
-272
-192
-96
-16
32
80
96
112
128
176
288
240
128
48
-32
-80
-96
-112
-128
-176
-272
-208
-96
-32
16
80
96
112
128
176
288
240
144
64
-32
-96
-96
-112
-128
-176
-272
-208
-96
-32
16
80
96
112
128
176
288
240
144
64
-16
-80
-96
-112
-128
-176
-272
-208
-96
-32
16
80
96
112
128
176
288
240
144
64
-16
-80
-96
-112
-128
-160
-256
-224
-112
-32
16
80
96
112
128
176
272
256
144
64
-16
-80
-96
-112
-112
-160
-256
-224
-112
-48
0
64
80
112
128
160
272
256
144
-48
0
64
80
96
112
160
256
272
144
80
0
-80
-96
-96
-112
-160
-256
-240
-128
-48
0
64
80
96
112
160
256
272
160
80
0
-80
-96
-96
-112
-160
-240
-256
-128
-64
0
48
80
96
112
160
256
272
160
80
0
-80
-96
-96
-112
-160
-240
-256
-128
-64
-16
48
80
96
112
144
240
272
160
80
0
-80
-96
-96
-112
-144
-240
-256
-128
-64
0
48
80
96
112
144
240
272
160
96
0
-64
-96
-112
-112
-144
-240
-256
-128
-80
-16
48
80
96
112
144
208
288
176
112
16
-48
-96
-96
-112
-144
-208
-272
-160
-80
-16
32
80
96
112
144
208
288
192
112
32
-48
-96
-96
-112
-144
-208
-272
-160
-80
-16
32
80
96
112
128
208
288
192
128
48
-32
-96
-96
-112
-128
-192
-288
-192
-96
-32
16
80
96
112
128
176
288
224
128
48
-32
-96
-96
-112
-128
-176
-272
-208
-96
-32
16
80
96
112
128
176
288
224
128
48
-32
-96
-96
-112
-128
-176
-272
-208
-96
-32
32
80
96
112
128
176
288
240
144
64
-32
-96
-96
-112
-128
-176
-272
-208
-96
-32
16
80
96
112
128
176
288
240
144
64
-16
-96
-96
-112
-128
-176
-272
-224
-112
-32
16
80
96
112
128
176
288
256
144
64
-16
-96
-96
-112
-128
-176
-272
-224
-112
-32
16
80
96
112
128
176
288
256
144
64
-16
-96
-96
-112
-128
-176
-272
-224
-112
-32
16
80
96
112
128
176
272
256
144
80
-16
-80
-96
-112
-128
-160
-272
-240
-112
-48
16
64
96
112
128
160
272
272
144
80
-16
-80
-96
-112
-128
-160
-272
-240
-128
-48
0
64
96
112
128
160
272
272
160
80
-16
-80
-96
-112
-128
-160
-256
-256
-128
-48
0
64
96
112
128
160
272
288
-144
-64
0
64
96
112
128
160
256
288
176
96
16
-64
-96
-96
-112
-144
-240
-272
-144
-64
0
48
96
112
128
160
256
304
176
112
16
-64
-96
-96
-112
-144
-240
-272
-144
-64
0
48
96
112
128
160
240
304
176
112
16
-64
-96
-96
-112
-144
-224
-272
-144
-64
0
48
96
112
128
160
240
304
176
112
16
-64
-96
-96
-112
-144
-224
-272
-144
-64
-16
48
96
112
128
144
240
304
192
112
16
-64
-96
-96
-112
-144
-224
-288
192
112
32
-48
-96
-96
-112
-144
-208
-288
-176
-80
-16
32
80
96
112
144
208
304
208
128
32
-48
-96
-96
-112
-144
-208
-288
-176
-96
-16
32
80
96
112
144
208
304
208
128
32
-48
-96
-112
-112
-144
-208
-288
-176
-96
-16
32
80
96
112
144
208
304
208
128
48
-48
-96
-96
-112
-144
-208
-288
-192
-96
-16
32
80
96
112
144
208
304
224
128
48
-32
-96
-96
-112
-128
-192
-288
-192
-96
-32
32
80
96
112
144
208
304
-208
-96
-32
32
80
96
112
144
192
304
240
144
64
-32
-96
-96
-112
-128
-176
-288
-208
-112
-32
16
80
96
112
128
192
304
256
144
64
-16
-96
-96
-112
-128
-176
-272
-224
-112
-32
16
80
96
112
128
192
288
256
144
64
-16
-80
-96
-112
-128
-176
-272
-224
-112
-48
0
64
96
112
128
176
288
256
144
80
-16
-80
-96
-112
-128
-176
-272
-240
-112
-48
0
64
96
112
128
176
288
256
144
80
-16
-80
-96
-112
-128
-176
-272
-240
-112
-48
16
64
96
112
128
176
288
272
160
80
-16
-80
-96
-112
-128
-176
-272
-240
-112
-48
16
80
96
112
128
176
288
288
160
80
0
-80
-96
-96
-112
-160
-256
-240
-112
-48
16
80
96
112
128
176
272
-256
-128
-64
0
64
96
112
128
160
256
304
176
96
16
-64
-96
-96
-112
-160
-240
-272
-128
-64
0
64
96
112
128
160
256
304
176
112
16
-64
-96
-96
-112
-144
-240
-272
-128
-64
0
64
96
112
128
160
256
304
176
112
16
-64
-96
-96
-112
-144
-240
-272
-144
-64
0
64
96
112
128
160
256
304
176
112
16
-64
-96
-96
-112
-144
-240
-288
-144
-64
0
48
96
112
128
160
240
304
192
112
16
-64
-96
-112
-112
-144
-224
304
192
112
32
-48
-96
-96
-112
-144
-224
-288
-176
-80
-16
48
80
96
112
144
224
304
192
128
32
-48
-96
-96
-112
-144
-208
-288
-176
-96
-16
32
80
96
112
144
224
320
208
128
32
-48
-96
-96
-112
-144
-208
-288
-176
-96
-32
32
80
96
112
144
208
304
208
128
48
-48
-96
-96
-112
-144
-208
-288
-192
-96
-16
32
80
96
112
144
208
320
224
128
48
-32
-96
-96
-112
-144
-192
-288
-192
-96
-32
32
80
96
112
144
208
-288
-208
-112
-32
16
80
96
112
144
192
304
240
144
64
-32
-96
-96
-112
-128
-192
-288
-208
-112
-32
16
80
96
112
128
192
304
240
144
64
-32
-96
-96
-112
-128
-192
-288
-224
-112
-48
16
80
96
112
128
176
288
256
144
64
-16
-96
-96
-112
-128
-192
-288
-224
-112
-48
0
64
96
112
128
176
288
256
144
64
-16
-96
-96
-112
-128
-176
-288
-240
-112
-48
16
80
96
112
128
176
288
256
144
80
-16
-80
-96
-112
-128
-176
-272
-240
-112
-48
0
64
96
112
128
176
288
272
144
80
-16
-80
-96
-112
-128
-176
-272
-240
-128
-48
0
64
96
112
128
176
288
272
160
80
0
-80
-96
-112
-128
-176
-272
-240
-128
-48
0
64
96
112
128
176
272
272
160
80
0
-80
-96
-112
-128
-160
-272
-256
-128
-48
16
64
96
112
128
160
272
288
160
80
0
-80
-96
-112
-128
-160
-256
-256
-128
-48
0
64
96
112
128
160
272
288
160
96
0
-80
-96
-112
-128
-160
256
288
176
96
16
-64
-96
-96
-112
-160
-240
-272
-144
-64
-16
48
96
112
128
160
256
304
176
96
16
-64
-96
-96
-112
-160
-240
-272
-144
-80
-16
48
80
112
128
160
240
304
176
112
16
-64
-96
-96
-112
-144
224
304
192
112
32
-48
-96
-96
-112
-144
-224
-288
-160
-80
-16
48
96
112
128
144
224
304
192
128
32
-48
-96
-96
-112
-144
-208
-288
-160
-80
-16
48
96
112
128
144
224
304
208
128
32
-48
-96
-96
-112
-144
-208
-288
-176
-80
-16
32
80
96
112
144
208
304
208
128
32
-48
-96
-96
-112
-144
-208
-288
-176
-80
-16
32
80
96
112
144
208
304
208
128
48
-32
-96
-96
-112
-144
-192
-288
-176
-96
-16
32
80
96
112
144
-192
-288
-192
-96
-32
32
80
96
112
144
192
304
240
144
48
-32
-96
-96
-112
-128
-192
-288
-208
-96
-32
16
80
96
112
128
192
304
240
144
64
-32
-96
-96
-112
-128
-176
-288
-208
-112
-32
16
80
96
112
128
192
304
240
144
64
-16
-80
-96
-112
-128
-176
-288
-224
-112
-32
16
80
96
112
128
192
288
256
144
64
-16
-96
-96
-112
-128
-176
-272
-224
-112
-32
16
80
96
112
128
176
288
256
144
64
-16
-80
-96
-112
-128
176
272
272
160
80
-16
-80
-96
-112
-128
-160
-272
-240
-112
-48
0
64
96
112
128
176
272
272
160
80
-16
-80
-96
-112
-112
-160
-256
-256
-128
-48
0
64
96
112
128
160
272
288
160
96
0
-80
-96
-96
-112
-160
-256
-256
-128
-48
0
64
96
112
128
160
272
288
160
96
0
-80
-96
-96
-112
-160
-256
-256
-128
-64
0
64
96
112
128
160
256
288
160
96
0
-80
-96
-112
-112
-160
-240
-256
-128
-64
0
64
96
112
128
160
256
288
176
96
16
-64
-96
-96
-112
-160
-240
-272
-128
-64
0
64
96
112
128
160
256
288
176
96
16
-64
-96
-96
-112
-144
-240
-272
-144
-64
0
48
96
112
128
160
240
304
176
96
16
-64
-96
-96
-112
-144
-240
-272
-144
-64
0
64
96
112
128
160
240
304
176
112
16
-64
-96
-96
-112
-144
-224
-272
-144
-64
0
48
80
96
128
144
240
304
176
112
16
-64
-96
-96
-112
-144
-224
-288
-160
-80
-16
48
96
96
128
-144
-208
-288
-160
-80
-16
48
80
96
128
144
224
304
192
112
32
-48
-96
-96
-112
-144
-208
-288
-176
-96
-32
32
80
96
112
144
208
304
208
128
32
-48
-96
-96
-112
-144
-208
-288
-176
-96
-16
32
80
96
112
-128
-192
-288
-192
-96
-16
32
80
96
112
144
192
304
224
128
48
-32
-96
-96
-112
-128
-192
-288
-192
-96
-32
16
80
96
112
144
192
288
224
128
48
-32
-96
-96
-112
-128
-176
-272
-192
-96
-32
16
80
96
112
128
192
288
240
144
64
-32
-96
-96
-112
-128
-176
-272
-208
-96
-32
16
80
96
112
128
192
288
240
144
64
-16
-80
-96
-112
-128
-176
-272
-208
-96
-32
16
80
96
112
128
176
288
240
144
64
-16
-80
-96
-96
-112
-160
-272
-208
-96
-32
16
80
96
112
128
176
288
256
144
64
-16
-80
-96
-96
-128
-176
-272
-208
-96
-32
16
64
96
112
128
176
288
256
144
64
-16
-80
-96
-96
-112
-160
-256
-224
-112
-32
16
64
96
112
-112
-160
-256
-240
-112
-48
0
64
96
112
128
160
272
272
160
80
0
-80
-96
-96
-112
-160
-240
-240
-112
-48
0
64
96
112
128
160
256
272
160
80
0
-64
-96
-96
-112
-144
-240
-240
-112
-48
0
64
96
112
128
160
256
272
160
96
0
-64
-80
-96
-112
-144
-240
-240
-128
-48
0
64
96
112
128
160
256
272
160
96
16
-64
-80
-96
-112
-144
-224
-240
-128
-48
0
64
96
112
128
160
240
288
160
96
16
-64
-80
-96
112
144
224
288
176
112
16
-64
-96
-96
-112
-144
-208
-256
-128
-64
0
48
80
96
112
144
224
288
176
112
16
-64
-96
-96
-112
-144
-208
-256
-144
-64
0
48
80
96
112
144
224
288
176
112
16
-48
-96
-96
-112
-144
-208
-272
-144
-64
0
48
80
96
112
144
208
288
176
112
32
-48
-96
-96
-112
-128
-208
-272
-144
-80
-16
32
80
96
112
144
208
288
176
112
32
-48
-96
-96
-112
-128
-208
-272
-160
-80
-16
32
80
96
112
144
208
288
192
112
32
-48
-96
-96
-112
-128
-192
-272
-160
-80
-16
32
80
96
112
144
208
288
192
112
32
-48
-96
-96
-112
-128
-192
-272
-160
-80
-16
32
80
96
112
144
192
288
208
128
32
-32
-80
-96
112
128
192
288
208
128
48
-32
-96
-96
-96
-128
-176
-272
-176
-96
-32
32
80
96
112
128
176
288
224
128
48
-32
-80
-96
-112
-128
-176
-272
-192
-96
-32
32
80
96
112
128
176
288
224
128
48
-32
-80
-96
112
128
176
272
240
144
64
-16
-80
-96
-112
-128
-160
-256
-208
-96
-32
16
80
96
112
128
176
272
240
144
64
-16
-80
-80
-96
-112
-160
-256
-208
-112
-48
16
64
96
112
128
160
272
240
144
80
-16
-80
-80
-96
-112
-160
-256
-224
-112
-32
16
64
96
112
128
160
272
256
144
80
0
-80
-96
-96
-112
-160
-256
-224
-112
-48
16
64
96
112
128
160
256
256
144
80
0
-80
-96
-96
-112
-160
-240
-224
-112
-48
16
80
96
112
128
160
256
256
144
80
0
-80
-96
-96
-112
-144
-240
-240
-112
-48
0
64
96
96
112
160
256
272
160
80
0
-80
-96
-96
-112
-144
-240
-240
-112
-48
0
64
80
112
112
160
256
272
160
96
0
-64
-96
96
112
144
240
272
160
96
0
-80
-96
-96
-112
-144
-224
-256
-144
-64
-16
48
80
96
112
144
224
272
160
96
0
-64
-96
-112
-112
-144
-224
-272
-144
-64
-16
48
80
96
112
144
224
288
160
96
16
-64
-96
96
112
128
208
288
176
112
16
-48
-96
-96
-112
-144
-208
-272
-160
-80
-16
32
80
96
112
128
208
288
176
112
16
-48
-96
-96
-112
-144
-208
-272
-160
-80
-16
32
80
96
112
128
208
288
176
112
32
-48
-96
-96
-112
-128
-208
-272
-160
-80
-16
32
80
96
112
128
208
288
192
112
32
-48
-96
-96
-112
-128
-192
-272
-160
-80
-32
32
80
96
112
128
192
288
192
112
32
-48
-96
-96
-112
-128
-192
-272
-176
-96
-32
32
80
-96
-112
-128
-176
-272
-176
-96
-32
16
80
96
112
128
176
288
208
128
48
-32
-96
-96
-112
-128
-176
-272
-192
-96
-32
32
80
96
112
128
176
288
208
128
48
-32
-80
-96
-96
-128
-176
-272
-192
-96
-32
16
80
96
112
128
176
288
224
128
48
-32
-80
-96
-96
-128
-176
-272
-192
-96
-32
16
80
80
112
128
176
272
224
128
64
-16
-80
-96
-96
-112
-176
-272
-208
-96
-32
16
64
96
112
128
176
272
224
128
64
-16
-80
96
112
128
160
272
240
144
64
-16
-80
-96
-96
-112
-160
-256
-224
-112
-48
0
64
80
96
128
160
256
256
144
80
-16
-80
-80
-96
-112
-160
-256
-224
-112
-48
0
64
80
112
128
160
256
256
144
80
0
-80
-80
-96
-112
-144
-240
-224
-112
-48
0
64
80
96
112
160
256
256
144
80
0
-80
-96
-96
-112
-144
-240
-240
-112
-48
0
64
80
96
112
160
256
256
144
80
0
-80
-96
-96
-112
-144
-240
-240
-128
-64
0
64
-96
-96
-112
-144
-224
-256
-128
-64
0
48
80
96
112
144
240
272
160
96
16
-64
-96
-96
-112
-144
-224
-256
-128
-64
-16
48
80
96
112
144
224
272
160
96
16
-64
-96
-96
-112
-144
-224
-256
-128
-64
0
48
-96
-96
-112
-128
-208
-272
-144
-80
-16
48
80
96
112
144
208
288
176
112
32
-48
-96
-96
-112
-128
-208
-272
-144
-80
-16
32
80
96
112
128
208
288
176
112
32
-48
-96
-96
-112
-128
-208
-272
-160
-80
-16
32
80
96
112
144
208
288
192
112
32
-48
-96
-96
-112
-128
-192
-272
-160
-80
-16
48
80
96
112
128
192
288
192
112
32
-48
-96
-96
-96
-128
-192
-272
-160
-80
-16
32
80
96
112
128
192
288
192
128
32
-32
80
80
112
128
192
288
208
128
48
-32
-96
-96
-112
-128
-176
-272
-192
-96
-32
32
64
80
96
128
176
288
208
128
48
-32
-96
-96
-112
-128
-176
-272
-192
-96
-32
16
80
80
112
128
176
288
224
128
48
-32
-96
-96
-112
-128
-176
-272
-208
-96
-32
16
80
80
112
128
176
272
224
128
48
-32
-96
-96
-112
-128
-176
-272
-208
-112
-32
16
80
80
112
128
176
272
224
128
64
-16
-96
-96
-112
-128
-176
-272
-208
-96
-32
16
64
80
96
112
160
272
224
128
64
-16
-80
-96
-112
-128
-160
-272
-208
-112
-48
16
64
80
96
128
160
272
240
128
64
-16
-80
-96
-112
-128
-160
-256
-224
-112
-48
0
64
80
96
112
160
272
240
128
64
-16
64
80
96
112
160
256
256
144
64
-16
-80
-96
-112
-112
-160
-256
-240
-112
-48
0
48
80
96
112
144
256
256
144
80
0
-80
-96
-96
-112
-160
-240
-240
-128
-48
0
64
80
96
112
144
256
272
144
80
0
-80
-96
-96
-112
-144
-240
-240
-128
-64
-16
48
80
96
112
144
240
272
144
80
0
-64
-96
-96
-112
-144
-240
-240
-128
-64
0
64
80
96
112
144
240
272
160
96
0
-64
-96
-96
-112
-144
-224
-256
-128
-64
0
-64
-96
-96
-112
-144
-224
-256
-144
-64
0
48
80
96
112
144
224
288
176
112
16
-48
-80
-96
-96
-128
-208
-256
-128
-64
0
48
80
96
112
144
224
288
176
112
16
-48
-80
-96
-112
-128
-208
-256
-144
-64
-16
-48
-80
-96
-96
-128
-192
-272
-160
-80
-16
48
80
96
112
128
208
288
192
112
32
-48
-80
-96
-96
-128
-192
-272
-160
-80
-16
32
80
96
112
144
208
288
192
112
32
-32
-80
-80
-96
-128
-192
-272
-160
-80
-16
32
80
96
112
144
192
288
208
128
32
-32
-80
-80
-96
-128
-176
-272
-160
-80
-16
32
80
96
112
128
192
288
208
128
48
-32
-80
-80
-96
-128
-176
-272
-176
-80
-16
32
80
96
112
128
192
288
208
128
48
16
80
96
112
128
176
288
224
128
48
-16
-80
-96
-96
-112
-160
-256
-192
-96
-32
16
80
96
112
128
176
272
224
128
64
-16
-80
-80
-96
-128
-160
-256
-192
-96
-32
16
80
96
112
128
176
272
224
128
64
-16
-80
-96
-96
-112
-160
-256
-208
-96
-32
16
64
96
112
128
160
272
240
144
64
-16
-80
-80
-96
-112
-160
-256
-208
-96
-32
16
64
80
112
128
160
272
240
144
64
-16
-80
-80
-96
-112
-160
-256
-208
-96
-32
0
-80
-96
-96
-112
-144
-240
-224
-112
-48
0
64
80
96
112
160
256
256
144
80
0
-80
-96
-96
-112
-144
-240
-224
-112
-48
0
64
80
96
112
160
256
256
144
80
0
-80
-96
-96
-112
-144
-240
-240
-112
-48
0
64
80
96
112
144
240
256
144
80
0
-80
-96
-96
-112
-144
-240
-240
-112
-64
0
64
80
96
112
144
240
272
144
80
0
-64
-96
-96
-112
-144
-240
-240
-128
-64
0
48
80
96
112
144
240
272
144
96
0
48
80
96
112
144
224
288
160
96
16
-64
-96
-96
-112
-144
-208
-256
-128
-64
0
48
80
96
112
144
224
288
176
112
16
-64
-96
-96
-96
-128
-208
-256
-128
-64
0
48
80
96
112
144
224
288
176
112
16
-48
-80
-96
-96
-128
-208
-256
-144
-64
0
48
80
96
112
144
208
288
176
112
32
-48
-80
-96
-112
-128
-208
-272
-144
-64
-16
48
80
96
112
144
208
288
176
112
32
-48
-80
-96
-96
-128
-192
-272
-144
-64
32
-32
-80
-80
-96
-128
-192
-272
-160
-80
-16
32
80
96
112
128
192
288
192
112
32
-32
-96
-96
-96
-128
-176
-272
-160
-80
-16
32
80
96
112
128
192
288
192
112
32
-32
-96
-96
-96
-128
-176
-272
-176
-80
-16
32
80
96
112
128
176
288
208
128
48
-32
-80
-96
-96
-128
-176
-272
-176
-96
-32
16
80
96
112
128
176
288
208
128
48
-32
-80
-96
-112
-128
-176
-272
-176
-96
-32
16
80
80
112
128
176
272
208
128
-32
16
64
80
96
128
160
272
224
128
48
-16
-80
-96
-112
-128
-160
-256
-208
-96
-32
16
64
80
96
128
160
272
224
128
64
-32
-80
-96
-112
-128
-160
-256
-208
-112
-48
16
64
80
96
112
160
272
240
128
64
-16
-80
-96
-112
-112
-160
-256
-208
-112
-48
0
64
80
96
112
160
256
240
128
64
-16
-80
-96
-112
-112
-160
-256
-224
-112
-48
0
64
80
96
112
160
256
240
128
64
-16
-80
-96
-112
-112
-160
-256
-224
-112
80
0
-80
-96
-96
-112
-160
-240
-240
-112
-48
0
64
80
96
112
144
240
256
144
80
0
-80
-96
-96
-112
-144
-240
-240
-128
-64
0
64
80
96
112
144
240
256
144
80
0
-80
-96
-96
-112
-144
-224
-240
-128
-64
0
48
80
96
112
144
240
272
144
80
0
-80
-96
-96
-112
-144
-240
-256
-128
-64
-16
48
80
96
112
144
224
272
160
96
0
-64
-96
-96
-112
-144
-224
-256
-128
-64
0
48
80
96
112
144
224
272
160
-64
-16
48
80
96
112
144
208
288
160
96
16
-48
-96
-96
-112
-128
-208
-256
-144
-80
-16
48
80
96
112
128
208
288
176
96
16
-48
-96
-96
-112
-128
-208
-272
-144
-64
-16
48
80
96
112
128
208
288
176
112
16
-48
-96
-96
-112
-128
-192
-272
-144
-80
-16
32
80
96
112
128
208
288
176
112
32
-48
-96
-96
-112
-128
-192
-272
-160
-80
-16
32
80
96
112
128
192
288
192
112
32
-48
-96
-96
-112
-128
-192
-272
-160
112
32
-32
-96
-96
-112
-128
-176
-272
-176
-80
-16
32
80
96
112
128
176
288
208
112
48
-32
-96
-96
-112
-128
-176
-272
-176
-96
-32
32
80
96
112
128
176
288
208
128
48
-32
-96
-96
-112
-128
-176
-272
-192
-96
-32
16
80
80
112
128
176
288
208
128
48
-32
-96
-96
-112
-128
-176
-272
-192
-96
-32
16
80
80
112
128
176
272
208
128
48
-32
-96
-96
-112
-128
-176
-272
-192
-96
-16
16
64
80
96
128
176
272
224
128
48
-32
-96
-96
-112
-128
-176
-272
-208
-96
-32
16
64
96
112
128
160
272
224
128
48
-32
-96
-96
-112
-128
-176
-272
-208
-96
-32
16
80
96
112
128
160
272
240
128
64
-16
-80
-96
-96
-112
-160
-256
-208
144
64
-16
-80
-96
-96
-112
-160
-256
-224
-112
-48
16
64
80
96
128
160
256
256
144
80
-16
-80
-96
-96
-112
-160
-256
-224
-112
-48
0
64
80
96
112
160
256
256
144
80
0
-80
-96
-96
-112
-160
-240
-240
160
80
0
-80
-96
-96
-112
-144
-240
-256
-128
-64
0
64
80
96
112
144
240
272
160
96
0
-64
-96
-96
-112
-144
-224
-256
-128
-64
0
64
80
96
112
144
240
288
160
96
16
-64
-96
-96
-112
-144
-224
-256
-128
-64
-16
48
80
96
112
144
240
288
160
96
16
-64
-96
-96
-112
-144
-224
-272
-144
-64
-16
48
80
96
112
144
224
288
176
96
16
-64
-96
-96
-112
-144
-224
-272
-144
-64
0
48
80
96
112
144
224
288
-160
-80
-16
48
80
96
112
144
208
304
192
112
32
-48
-96
-96
-112
-144
-208
-288
-160
-80
-16
48
80
96
112
144
208
304
192
112
32
-48
-96
-96
-112
-144
-208
-288
-160
-80
-16
32
80
96
112
144
208
304
192
112
32
-48
-96
-96
-112
-144
-208
-288
-176
-96
-16
32
80
96
112
144
208
304
208
128
32
-48
-96
-96
-112
-128
-192
-288
-176
-96
-32
32
80
96
112
128
192
304
208
128
32
-48
-96
-96
-112
-144
-192
-288
224
128
48
-32
-96
-96
-112
-128
-192
-288
-208
-96
-32
16
80
96
112
128
192
288
240
144
64
-32
-96
-96
-112
-128
-176
-288
-208
-112
-32
16
80
96
112
128
176
288
240
128
64
-32
-96
-96
-112
-128
-176
-288
256
144
64
-16
-96
-96
-112
-128
-176
-272
-240
-112
-48
16
64
96
112
128
176
272
256
144
64
-16
-80
-96
-112
-128
-176
-272
-240
-112
-48
0
64
80
112
128
160
272
272
144
80
-16
-80
-96
-112
-128
-160
-272
-240
-128
-48
0
64
80
112
128
160
272
272
144
80
-16
-80
-96
-112
-128
-160
-272
-256
-128
-48
0
64
96
112
128
160
272
272
160
80
0
-80
-96
-112
-128
-160
-256
-256
-128
-64
0
64
96
112
128
160
256
-272
-128
-64
-16
48
80
96
128
160
240
288
160
96
0
-80
-96
-112
-128
-160
-240
-272
-144
-80
-16
48
80
96
112
144
240
288
160
96
16
-64
-96
-112
-128
-160
-240
-288
-144
-80
0
48
80
96
112
144
240
304
176
96
16
-64
-96
-112
-128
-160
-240
-288
-160
-80
-16
48
80
96
112
144
240
304
176
112
16
-64
-96
-112
-112
-144
-240
-288
-160
-80
-16
48
96
96
112
144
224
304
176
112
16
-64
-96
-112
-112
-144
-224
304
192
112
32
-48
-96
-112
-128
-144
-208
-288
-176
-96
-32
32
80
96
112
144
208
304
192
112
32
-48
-96
-112
-112
-144
-208
-288
-176
-96
-16
32
80
96
112
144
208
304
208
128
32
-48
-96
-96
-112
-144
-208
-288
-176
-96
-32
32
80
96
112
144
208
304
208
128
32
-48
-96
-96
-112
-144
-208
-288
-192
-96
-32
32
80
96
112
144
192
304
208
128
32
-48
-96
-112
-128
-144
-208
-288
-192
-96
-32
16
80
96
112
128
192
-288
-208
-112
-48
16
80
96
112
128
176
288
240
128
48
-32
-96
-112
-112
-144
-192
-288
-224
-112
-48
16
80
96
112
128
176
288
240
144
64
-32
-96
-96
-112
-144
-192
-288
-224
-112
-48
0
80
96
112
128
176
288
256
144
64
-16
-96
-96
-112
-128
-176
-288
-240
-112
-48
16
64
80
112
128
176
288
256
144
64
-16
-96
-96
-112
-128
-176
-272
-240
-112
-48
16
64
96
112
128
176
288
256
144
80
-16
-96
-96
-112
-128
-176
-272
-240
-128
-48
16
64
96
112
128
176
272
272
144
80
-16
-80
-96
-112
-128
-176
-272
-240
-128
-48
0
64
96
112
128
176
272
272
160
80
-16
-80
-96
-112
-128
-160
-256
-256
-128
-48
0
64
96
112
128
160
-256
-272
-128
-64
0
64
96
112
128
160
256
288
160
96
0
-80
-96
-112
-128
-160
-240
-272
-144
-64
0
48
96
112
128
160
256
288
160
96
0
-64
-96
-96
-112
-160
-240
-272
-144
-64
0
64
96
112
128
160
240
304
176
96
16
-64
-96
-96
-112
-160
-240
-272
-144
-64
0
48
96
96
128
160
240
304
176
112
16
-64
-96
-96
-112
-144
-240
-288
-144
-80
-16
48
96
96
128
160
240
304
176
112
16
-64
-96
-96
-112
-144
224
304
192
112
32
-64
-96
-112
-128
-144
-224
-288
-176
-96
-32
32
80
96
112
144
208
304
192
112
32
-48
-96
-112
-128
-144
-208
-288
-176
-96
-16
32
80
96
112
144
208
304
208
128
32
-48
-96
-96
-112
-144
-208
-288
-176
-96
-32
32
80
96
112
144
208
304
208
112
32
-48
-96
-96
-112
-144
-208
-288
-192
-96
-32
32
80
96
112
144
192
304
208
128
32
-48
-96
-96
-112
-144
-208
-288
-192
-96
-32
32
80
96
112
144
-192
-288
-208
-112
-32
16
80
96
112
128
192
304
240
144
48
-32
-96
-96
-112
-128
-192
-288
-208
-112
-32
16
80
96
112
128
192
288
240
144
64
-32
-96
-96
-112
-128
-192
-288
-224
-112
-48
16
80
96
112
128
176
288
240
144
64
-32
-96
-96
-112
-128
-176
-288
-224
-112
-48
16
80
96
112
128
176
288
256
144
64
-16
-96
-96
-112
-128
-176
-272
-224
-112
-48
16
80
96
112
128
176
288
256
144
64
-16
-80
-96
-112
-128
176
272
272
160
80
0
-80
-96
-112
-128
-160
-272
-256
-128
-64
0
64
96
112
128
160
272
288
160
80
0
-80
-96
-112
-128
-160
-256
-256
-128
-64
0
64
96
112
128
160
256
288
160
96
0
-80
-96
-112
-128
160
256
288
176
96
16
-64
-96
-112
-128
-160
-240
-272
-144
-64
-16
48
96
112
128
160
240
304
176
96
16
-64
-96
-96
-112
-160
-240
-272
-144
-64
0
48
80
96
112
144
240
304
176
96
16
-64
-96
-112
-128
-160
-240
-288
-144
-80
-16
48
80
96
112
144
240
304
176
112
16
-64
-96
-96
-112
-144
-224
-288
-160
-80
-16
48
80
96
128
144
224
304
176
112
16
-64
-96
-112
-112
-144
-224
-288
-160
-80
-16
48
80
96
112
-144
-208
-288
-176
-80
-16
32
80
96
128
144
208
304
208
128
32
-48
-96
-96
-112
-144
-208
-288
-176
-96
-32
32
80
96
112
144
208
304
208
128
32
-48
-96
-96
-112
-144
-208
-288
-176
-96
-32
32
80
96
112
144
208
304
208
128
48
-48
-96
-96
-112
-144
-192
-288
-192
-96
-32
32
80
96
112
144
192
304
224
128
48
-48
-96
-96
-112
-144
-192
-288
-192
-96
-32
32
80
96
112
144
192
304
224
128
48
-32
-96
-96
-112
-128
-192
-288
-192
-96
-32
32
80
96
112
128
192
304
224
128
48
-32
-96
-96
-112
-128
-192
-288
-208
-112
-32
16
80
96
112
128
192
304
240
128
48
-32
-96
-96
-112
-128
-192
-288
-224
-112
-32
16
80
96
112
-128
-176
-272
-240
-112
-48
16
80
96
112
128
176
288
256
144
64
-16
-80
-96
-112
-128
-176
-272
-240
-112
-48
0
80
96
112
128
176
288
256
144
80
-16
-96
-96
-112
-128
-176
-272
-240
-112
-48
16
80
96
112
-128
-160
-256
-256
-128
-64
0
64
96
112
128
160
256
288
160
96
0
-80
-96
-112
-128
-160
-256
-256
-128
-64
0
64
96
112
128
160
256
288
160
96
0
-80
-96
-112
-128
-160
-240
-256
-128
-64
0
64
96
112
128
160
256
288
160
96
0
-80
-96
-112
-128
-160
-240
-272
-144
-64
-16
64
96
112
128
160
256
288
160
96
0
-64
-96
-112
-112
-160
-240
-272
-144
-64
0
64
96
96
112
144
240
288
176
96
16
-64
-96
-112
-112
-160
-240
-272
-144
-64
0
48
80
96
112
144
240
304
176
112
16
-64
-96
-112
-112
-144
-240
-272
-144
-80
0
48
80
96
128
144
240
304
176
112
16
-64
-96
-96
-112
-144
-224
-272
-160
-80
-16
48
96
96
-112
-144
-208
-288
-160
-80
-16
32
80
96
112
144
208
304
192
112
32
-48
-96
-96
-112
-144
-208
-288
-176
-96
-16
32
80
96
112
144
208
304
208
112
32
-48
-96
-96
-112
-144
-208
-288
-176
-96
-16
32
80
96
112
144
208
304
208
128
32
-48
-96
-96
-112
-144
-208
-288
-176
-96
-32
32
80
96
112
144
208
304
208
128
48
-48
-96
-96
-112
-144
-192
-288
-192
-96
-32
32
80
96
112
144
192
304
224
128
48
-32
-96
-96
112
144
192
304
240
144
48
-32
-96
-96
-112
-128
-192
-288
-208
-112
-32
16
80
96
112
128
192
288
240
128
64
-32
-96
-96
-112
-128
-176
-288
-224
-112
-48
16
80
96
112
128
176
288
240
144
64
-16
-96
-96
112
128
176
272
256
144
64
-16
-80
-96
-112
-128
-176
-272
-240
-112
-48
0
64
80
112
128
160
272
256
144
80
-16
-80
-96
-112
-128
-176
-272
-240
-128
-64
0
64
80
112
128
160
272
272
144
80
-16
-80
-96
-112
-128
-160
-256
-256
-128
-48
0
64
96
112
128
160
272
272
160
80
0
-80
-96
-112
-128
-160
-256
-256
-128
-64
0
64
96
112
128
160
256
272
160
80
0
-80
-96
-112
-128
-160
-256
-256
-128
-48
16
64
96
-96
-112
-160
-240
-272
-144
-64
-16
48
96
96
128
160
240
288
176
96
16
-64
-96
-96
-112
-160
-240
-272
-144
-64
0
48
80
96
112
144
240
288
176
96
16
-64
-96
-112
-112
-144
-224
-272
-144
-80
-16
48
80
-96
-112
-144
-224
-288
-160
-80
-16
32
80
96
112
144
224
304
192
112
32
-48
-96
-96
-112
-144
-208
-288
-160
-80
-16
32
80
96
112
144
208
304
192
112
32
-48
-96
-96
-112
-144
-208
-288
-160
-80
-16
32
80
96
112
144
208
304
192
112
32
-48
-96
-96
-112
-144
-208
-288
-176
-80
-16
32
80
96
112
144
208
304
208
128
32
-48
-96
-96
-112
-128
-192
-288
-176
-96
-16
32
80
96
112
144
208
304
208
128
48
-48
-96
96
112
144
192
304
224
128
48
-32
-96
-96
-112
-128
-176
-288
-192
-96
-32
16
80
96
112
144
192
304
224
128
64
-32
-80
-96
-112
-128
-176
-272
-208
-96
-32
16
80
96
112
128
192
304
240
144
64
-16
-80
-96
-112
-128
-176
-272
-208
-96
-32
16
80
96
112
144
192
288
240
144
64
-16
-80
-96
-96
-128
-176
-272
-208
-112
-32
16
80
96
112
128
176
288
256
144
64
-16
-80
-96
-96
-128
-160
-272
-224
-112
-32
16
80
-96
-96
-112
-160
-256
-240
-112
-48
0
64
96
112
128
176
272
272
160
80
0
-80
-96
-96
-112
-160
-256
-240
-112
-48
0
64
96
112
128
160
272
272
160
80
0
-80
-96
-96
-112
-160
-256
-240
-112
-48
0
64
96
112
128
160
272
272
160
96
0
-80
-96
-96
-112
-160
-256
-256
-128
-48
0
64
96
112
128
160
256
288
160
96
0
-64
-96
-96
-112
-160
-240
-256
-128
-64
0
64
96
96
128
160
256
288
160
96
0
-64
96
112
128
160
240
288
176
96
16
-64
-96
-96
-112
-144
-224
-272
-144
-64
-16
48
96
112
128
160
240
304
176
112
16
-64
-96
-96
-112
-144
-224
-272
-144
-64
0
48
96
112
128
160
240
304
176
112
32
-48
80
96
128
144
224
304
192
112
32
-48
-96
-96
-112
-128
-208
-272
-160
-80
-16
32
80
96
128
144
208
304
208
128
32
-48
-96
-96
-112
-128
-192
-272
-160
-80
-16
32
96
96
128
144
208
304
208
128
48
-48
96
96
128
144
208
304
224
128
48
-32
-80
-96
-112
-128
-176
-272
-176
-96
-32
32
80
96
128
144
208
304
224
144
64
-16
-80
-80
-96
-128
-176
-272
-192
-96
-16
32
80
96
112
144
192
304
240
144
64
-16
-80
-96
-112
-128
-176
-272
-192
-96
-32
16
80
96
112
144
192
304
240
144
64
-16
-80
-96
-112
-128
-176
-272
-208
-96
-32
16
80
96
112
144
192
304
240
144
64
-16
-80
-96
-112
-128
-176
-272
-208
-96
-32
16
80
96
112
128
176
288
240
144
64
-16
-80
-96
-96
-128
-176
-272
-208
-96
-32
16
80
96
112
128
176
288
256
144
64
-16
-80
-96
-96
-112
-160
-272
-224
-112
-32
16
80
96
112
128
176
288
256
144
80
-16
64
96
112
128
176
272
272
160
80
0
-80
-96
-96
-112
-160
-256
-240
-112
-48
16
64
96
112
128
160
272
272
160
96
0
-80
-96
-96
-112
-160
-240
-240
-112
-48
0
64
96
112
128
160
272
288
160
96
0
-64
-80
-96
-112
-144
-240
-240
-112
-48
16
64
96
112
128
160
256
288
160
96
16
-64
-80
-96
-112
-144
-240
-256
-128
-48
0
64
96
112
128
160
256
288
160
96
16
-64
-96
-96
-112
-144
-240
-256
-128
-48
0
-80
-112
-112
-128
-160
-224
-272
-128
-48
16
80
112
128
144
160
240
304
176
96
0
-80
-112
-112
-128
-160
-224
-272
-128
-48
16
64
112
128
144
160
240
304
176
96
0
-80
-112
-112
-128
-144
-224
-272
-144
-48
16
64
112
112
128
160
224
288
176
96
0
-80
-112
-112
-128
-160
-224
-272
-144
-64
16
64
112
112
128
160
224
288
176
96
0
-80
-112
-112
-128
-144
-208
-272
-144
-64
0
64
112
112
128
144
208
288
176
96
0
48
96
112
128
144
192
288
192
96
16
-64
-112
-112
-128
-144
-208
-288
-176
-80
0
48
96
112
112
144
192
288
192
96
16
-64
-128
-112
-128
-144
-208
-288
-192
-80
-16
32
80
96
112
128
176
288
192
112
16
-64
-112
-112
-128
-144
-208
-304
-208
-112
-32
16
64
80
96
112
176
288
208
112
32
-48
-96
-112
-128
-160
-208
-304
-240
-144
-64
0
48
64
80
96
160
272
208
128
48
-48
-112
-112
-128
-160
-208
-320
-256
-144
-80
-16
32
48
64
80
144
256
208
112
48
-48
-112
-112
-128
-160
-208
-320
-256
-160
-80
-32
16
32
48
80
128
256
208
112
32
-48
-112
-128
-144
-160
-208
-320
-272
-176
-96
-32
16
32
48
80
128
240
208
112
32
-32
16
32
48
80
128
224
224
112
32
-48
-128
-128
-144
-160
-208
-304
-288
-176
-96
-32
16
32
64
80
112
224
224
112
48
-48
-112
-128
-144
-160
-208
-304
-288
-160
-96
-32
16
48
64
80
128
224
240
112
48
-32
-112
-128
-128
-144
-192
-288
-288
-160
-96
-32
32
48
64
80
128
224
240
128
64
-32
-96
-112
-128
-144
-176
-288
-288
-160
-96
-32
32
48
64
96
128
240
256
128
64
-16
-96
-112
-128
-128
-176
-272
-272
-160
-80
0
-80
-96
-112
-128
-160
-240
-288
-160
-96
-32
32
64
80
96
128
208
272
160
80
0
-80
-96
-112
-128
-160
-240
-288
-160
-96
-32
32
64
80
96
128
208
272
160
96
0
-64
-96
-112
-128
-160
-240
-288
-160
-96
-32
32
64
64
96
128
208
272
160
96
16
-64
-96
-96
-112
-144
-224
-288
-160
-96
-32
16
64
64
96
128
208
288
176
96
16
-64
-96
-96
-112
-144
-224
-304
-176
-96
-32
16
48
64
80
112
192
288
176
96
-32
32
80
96
128
144
224
320
224
144
64
-16
-64
-80
-96
-112
-176
-272
-160
-80
-32
32
80
96
112
144
208
304
224
128
48
-32
-80
-80
-96
-128
-192
-288
-176
-96
-32
32
80
96
112
144
208
304
208
128
-48
16
64
80
96
128
176
288
224
128
48
-32
-96
-96
-112
-144
-192
-288
-208
-112
-48
0
64
80
96
128
176
288
224
128
48
-32
-96
-112
-112
-144
-192
-288
-224
-112
-48
0
64
80
96
128
176
288
224
128
48
-32
-96
-112
-112
-144
-192
-288
-224
-112
-48
0
64
80
96
128
176
272
240
128
48
-32
-96
-112
-112
-144
-192
-288
-224
-128
-48
0
64
80
96
128
176
272
240
128
64
-32
-96
-112
-128
-144
-192
-288
-240
-128
64
-16
-96
-96
-112
-128
-176
-272
-256
-128
-64
0
64
80
96
112
160
272
256
144
80
-16
-80
-96
-112
-128
-176
-272
-256
-128
-64
0
64
80
96
128
160
256
272
144
80
-16
-80
-96
-112
-128
-160
-256
-256
-128
-64
0
48
80
96
112
160
256
272
160
80
0
-80
-96
-112
-128
-160
-256
-256
-144
-64
0
64
80
96
112
160
256
272
160
80
0
-80
-96
-112
-128
-160
-256
-272
-144
-64
-16
48
80
96
112
144
240
272
160
-80
-16
48
80
96
112
144
224
288
160
96
0
-80
-112
-112
-128
-160
-240
-288
-160
-80
-16
48
80
96
112
128
224
288
160
96
0
-64
-96
-112
-128
-160
-240
-288
-160
-80
-16
32
80
80
112
128
208
288
160
96
16
-64
-96
-112
-112
-144
-224
-288
-160
-80
-16
32
80
96
112
128
208
288
176
96
16
-64
-96
-112
-128
-144
-224
-288
-160
-96
-32
32
80
80
112
128
208
288
176
96
16
-64
-112
-112
-128
-144
-224
-288
-176
112
32
-48
-112
-112
-128
-144
-208
-288
-176
-96
-32
16
64
80
112
128
192
288
192
112
32
-48
-112
-112
-128
-144
-208
-288
-192
-96
-32
16
64
80
96
128
192
288
192
112
32
-64
-112
-112
-128
-144
-208
-288
-192
-96
-32
16
80
80
96
128
176
288
208
112
32
-48
-112
-112
-128
-144
-192
-288
-208
-112
-32
16
80
80
96
128
176
288
208
112
32
-48
-112
-112
-128
-144
-192
-288
-208
-112
-48
16
64
80
96
128
176
288
224
128
48
-32
-96
-112
-112
-144
-192
-288
-208
-112
-48
16
64
80
96
128
176
272
224
128
48
-32
-96
-96
-112
-128
-192
-288
-208
-112
-48
16
64
80
96
128
176
272
224
128
48
-32
-96
-96
-112
-128
-176
-288
-224
-112
-48
16
64
80
96
128
160
272
224
128
48
-32
-96
-112
-112
-144
-176
-272
-224
-112
-48
0
64
80
96
128
160
272
240
128
48
-32
-96
-96
-112
-128
-176
-272
-224
-112
-48
0
64
80
96
112
160
272
240
-128
-64
0
64
80
96
112
160
256
256
144
64
-16
-96
-112
-112
-128
-176
-256
-256
-128
-64
0
64
80
96
112
144
240
256
144
64
-16
-96
-112
-112
-128
-160
-256
-256
-128
-64
0
64
80
96
112
160
256
272
144
80
-16
-80
-96
-112
-128
-160
-256
-256
-128
-64
0
48
80
96
112
144
240
272
144
80
0
-80
-112
-112
-128
-160
-256
-256
-128
-64
0
48
80
96
112
144
240
272
144
80
-16
-80
-112
-112
-128
-160
-240
-272
160
80
0
-80
-112
-112
-128
-160
-240
-272
-144
-80
-16
48
80
96
112
128
224
288
160
96
16
-64
-96
-96
-112
-144
-224
-272
-160
-80
-16
32
80
96
112
128
208
288
160
96
16
-64
-96
-96
-112
-144
-224
-272
-160
-80
-16
32
80
96
112
128
208
288
176
96
16
-64
-96
-96
-112
-144
-208
-272
-160
-80
-32
32
80
80
96
128
192
288
176
96
16
-48
-96
-96
-112
-128
-208
-272
-160
-80
-32
32
64
80
96
128
192
288
-176
-96
-32
16
64
80
96
128
176
288
192
112
48
-32
-80
-80
-96
-128
-192
-272
-176
-96
-32
16
64
80
96
112
176
288
208
128
48
-32
-80
-80
-96
-128
-176
-272
-192
-96
-48
16
64
80
96
112
176
288
208
128
48
-32
-80
-80
-96
-128
-176
-272
-192
-96
-32
0
64
80
96
112
176
288
208
128
48
-16
-80
-80
-96
-112
-176
-272
-192
-112
-48
0
64
64
96
112
160
272
224
144
64
-16
-80
-80
-96
-112
-176
-272
-208
-128
-64
-16
48
64
80
96
160
272
224
144
80
0
-64
-64
-96
-112
-176
-272
-224
-128
-80
-32
16
48
64
96
144
272
240
144
80
16
-48
-64
-80
-112
-160
-288
-240
-160
-96
-48
16
32
48
80
144
272
-288
-192
-128
-64
-16
16
32
80
128
256
272
192
128
48
-32
-48
-80
-112
-160
-288
-288
-192
-128
-80
-16
16
48
80
128
256
288
192
128
48
-16
-48
-64
-96
-160
-272
-288
-192
-128
-80
-16
0
32
64
128
256
288
192
128
48
-16
-48
-80
-96
-160
-272
-304
-192
-144
-80
-32
0
32
64
128
240
288
192
128
48
-16
-48
-64
-96
-160
-272
-304
-192
-128
-80
-16
16
32
64
128
240
288
192
128
48
-16
-48
-80
-96
-160
-256
288
192
144
64
-16
-48
-64
-96
-144
-240
-304
-192
-128
-64
-16
16
48
80
112
224
304
192
128
48
-16
-64
-64
-96
-144
-240
-304
-192
-128
-64
-16
32
48
80
112
208
288
192
144
64
-16
-64
-80
-96
-144
-224
-304
-192
-128
-64
-16
32
48
80
112
208
288
192
128
48
-16
-64
-80
-96
-144
-224
-304
-192
-128
-64
-16
32
48
80
112
208
288
192
128
64
-16
-64
-80
-96
-144
-224
-304
-192
-128
-64
-16
32
48
80
112
208
-288
-192
-128
-64
0
32
48
80
112
176
288
208
128
48
-16
-80
-80
-96
-128
-208
-288
-208
-128
-64
-16
32
48
80
112
176
288
208
128
48
-16
-64
-80
-96
-128
-192
-288
-208
-128
-64
0
48
64
80
112
176
288
208
144
64
-16
-80
-80
-96
-128
-192
-288
-208
-128
-64
0
48
64
80
112
176
288
208
128
64
-16
-80
-80
-96
-128
-192
-288
-208
-128
-64
0
48
64
80
112
176
288
224
144
64
-16
-80
-80
-96
-128
-176
272
224
144
64
-16
-80
-80
-96
-128
-176
-272
-224
-128
-64
-16
48
64
80
112
160
272
224
144
64
-16
-80
-80
-96
-128
-176
-272
-224
-128
-64
-16
48
64
80
112
160
272
240
144
64
-16
-80
-80
-96
-112
-160
240
240
144
80
0
-80
-80
-96
-112
-160
-240
-224
-128
-64
-16
32
64
80
96
144
240
240
144
80
0
-64
-80
-96
-112
-144
-240
-240
-128
-64
-16
48
64
80
96
144
240
240
144
80
0
-64
-80
-96
-112
-144
224
256
144
80
0
-64
-80
-96
-112
-144
-224
-240
-128
-64
-16
32
64
80
96
128
224
256
144
80
0
-64
-80
-96
-112
-144
-224
-256
-144
-80
-16
32
64
80
96
128
208
256
144
80
0
-64
-96
-96
-112
-144
-224
-256
-144
-80
-16
32
64
80
96
128
208
256
144
80
0
-64
-96
-96
-112
-144
-224
-256
-144
-80
-16
32
64
80
96
112
192
256
160
80
16
-64
-96
-96
-112
-144
-208
-256
-144
-80
-32
32
64
64
96
112
-208
-272
-160
-96
-32
16
48
64
80
112
176
256
160
96
16
-64
-96
-96
-112
-144
-208
-272
-176
-96
-32
16
48
64
80
112
176
256
160
96
16
-48
-96
-96
-112
-144
-192
-272
-176
-96
-32
16
64
64
80
112
176
256
176
96
16
-48
-96
-96
-112
-128
-192
-272
-176
-96
-32
16
64
64
80
112
160
256
176
96
32
-48
-96
-96
-112
-128
-192
-256
-176
-96
-48
0
48
64
80
112
160
256
176
96
32
-48
-96
-96
-112
-128
160
256
192
112
32
-32
-96
-96
-96
-128
-176
-256
-192
-96
-48
16
64
64
80
112
144
256
192
112
32
-32
-80
-96
-96
-128
-160
-256
-192
-96
-48
16
64
64
80
112
144
256
208
112
32
-32
-96
-96
-96
-112
144
240
224
128
48
-32
-80
-96
-96
-112
-160
-240
-208
-112
-48
0
64
80
96
112
144
240
224
128
48
-16
-80
-96
-96
-112
-160
-240
-208
-112
-48
0
48
64
80
96
144
240
224
128
64
-16
-80
-96
-96
-112
-144
-240
-208
-112
-48
0
48
64
80
96
128
240
224
128
64
-16
-80
-96
-96
-112
-144
-240
-224
-112
-48
0
48
64
80
96
144
224
240
128
64
-16
-80
-96
-96
-112
-144
-240
-224
-112
-48
0
48
64
80
96
128
208
256
144
80
0
-64
-96
-96
-112
-144
-208
-240
-128
-64
-16
48
80
80
96
128
208
256
144
80
0
-64
-96
-96
-112
-144
-208
-256
-128
-64
-16
32
80
80
96
128
208
256
144
80
0
-64
-96
-96
-112
128
192
256
160
96
16
-64
-96
-96
-112
-128
-192
-256
-144
-80
-16
32
80
80
96
112
176
256
160
96
16
-64
-96
-96
-112
-128
-192
-256
-160
-80
-32
32
64
80
96
112
176
256
176
96
16
-48
-96
-96
-112
-128
-176
-256
-160
-80
-16
32
80
80
96
112
176
272
176
96
32
-48
-96
-96
-96
-128
-176
-256
-160
-80
-32
32
80
80
96
112
176
256
176
96
32
-48
-96
-96
-112
-128
-176
-256
-160
-80
-32
16
64
80
96
-112
-160
-256
-176
-96
-32
16
64
80
96
112
160
256
192
112
32
-32
-96
-96
-96
-112
-160
-256
-192
-96
-32
16
64
80
96
112
160
256
208
112
48
-32
-80
-96
-96
-112
-160
-256
-192
-96
-32
16
64
80
96
112
144
256
208
112
48
-32
-80
-96
-96
-112
-160
-240
-192
-96
-32
16
64
80
96
112
144
240
208
112
48
-32
-80
-96
-96
-112
-160
-256
-208
-96
-48
0
64
80
96
112
144
240
208
128
48
-16
-80
-96
-96
96
144
224
224
128
48
-16
-80
-96
-96
-112
-144
-240
-224
-112
-48
0
48
64
80
96
144
224
224
128
64
-16
-80
-96
-96
-112
-144
-240
-224
-112
-48
0
48
64
80
96
128
224
240
128
64
-16
-80
-96
-96
96
128
208
240
128
64
-16
-80
-96
-96
-112
-144
-224
-240
-128
-64
-16
48
64
80
96
128
208
240
128
64
0
-80
-96
-96
-112
-144
-224
-240
-128
-64
-16
32
64
80
96
128
208
256
144
80
0
-64
-96
-96
-112
-144
-208
-240
-128
-64
0
32
64
80
96
112
192
256
144
80
0
-64
-96
-96
-112
-144
-208
-256
-128
-64
-16
32
64
80
96
112
192
256
144
80
0
-64
-96
-96
-112
-128
-208
-256
-144
-64
-16
32
64
80
-112
-128
-192
-256
-144
-80
-16
16
64
80
96
112
176
256
160
96
16
-48
-96
-96
-112
-128
-192
-256
-160
-80
-32
16
64
80
96
112
176
256
160
96
16
-48
-96
-96
-112
-128
-192
-256
-160
-80
-32
16
64
64
-112
-128
-176
-256
-176
-96
-32
16
64
64
80
112
160
256
176
96
32
-48
-96
-96
-112
-128
-176
-256
-176
-96
-32
16
64
64
80
112
160
256
192
112
32
-48
-96
-96
-112
-128
-176
-256
-176
-96
-32
16
64
64
80
112
144
256
192
112
32
-32
-96
-96
-112
-128
-160
-256
-192
-96
-32
16
64
64
80
112
144
256
192
112
32
-32
-80
-96
-112
-128
-160
-256
-192
-96
-32
16
64
64
80
112
144
256
208
112
48
-32
-80
-96
96
112
144
240
224
128
48
-16
-80
-96
-96
-112
-160
-240
-208
-112
-48
0
64
80
96
112
144
240
224
128
64
-16
-80
-96
-96
-112
-144
-240
-208
-112
-48
0
64
80
80
112
144
240
224
128
64
-16
-80
-96
80
96
128
224
240
128
64
-16
-80
-96
-96
-112
-144
-224
-224
-112
-48
0
48
64
80
96
128
224
240
128
64
0
-64
-80
-96
-112
-144
-224
-224
-112
-48
0
48
64
80
96
128
224
240
144
80
0
-64
-80
80
96
128
208
256
144
80
0
-64
-96
-96
-112
-128
-208
-240
-128
-64
0
48
64
80
96
128
208
256
144
80
0
-64
-80
-96
-96
-128
-208
-240
-128
-64
-16
32
64
80
96
128
192
256
160
96
16
-64
-80
-96
-112
-128
-192
-256
-144
-64
-16
32
64
80
96
128
192
256
160
96
16
-64
-96
-96
-112
-128
-192
-256
-144
-80
-16
32
64
80
96
112
192
256
160
96
16
-48
-80
-96
-96
-128
-192
-256
-144
-64
-16
32
64
80
96
128
192
256
160
96
16
-48
-80
-80
-96
-128
-192
-256
-144
-80
-16
32
64
80
96
128
176
256
160
96
16
-48
-80
-96
-96
-128
-176
-256
-144
-80
-16
32
64
80
96
112
176
272
176
96
16
-48
-80
80
96
112
176
256
192
112
32
-32
-80
-80
-96
-112
-160
-256
-160
-80
-32
16
64
80
96
112
160
256
192
112
32
-32
-80
-80
-96
-112
-160
-256
-176
-96
-32
16
64
80
96
112
160
256
192
112
32
-32
-80
-80
-96
-112
-160
-240
-176
-96
-16
16
64
80
96
112
160
256
192
112
48
-32
-80
-80
-96
-112
-160
-240
-176
-96
-32
16
64
80
96
112
160
256
192
112
48
-32
-80
-80
-96
-112
-160
-240
-192
-96
-32
16
64
-80
-96
-112
-144
-240
-192
-96
-48
0
64
80
96
112
144
240
208
128
48
-16
-80
-80
-96
-112
-144
-240
-208
-96
-48
0
64
80
96
112
144
240
224
128
64
-16
-80
-80
-96
-112
-144
-240
-208
-112
-48
0
64
80
96
112
144
240
224
128
64
0
-64
-80
-96
-96
-144
-224
-208
-96
-32
0
48
80
96
112
144
240
240
144
64
0
-64
-80
-80
-96
-128
-224
-208
-96
-48
0
64
80
96
112
144
240
240
144
80
0
-64
80
96
112
144
224
256
144
80
0
-64
-80
-80
-96
-128
-208
-224
-112
-48
0
48
80
96
112
128
224
256
144
80
16
-64
-80
-80
-96
-128
-208
-224
-112
-48
0
48
80
96
112
128
208
256
160
96
16
-48
-80
-80
-96
-128
-192
-224
-112
-48
0
48
80
96
112
128
208
256
160
96
16
-48
-80
-80
-96
-128
-192
-240
-112
-48
0
48
80
96
112
128
208
256
160
96
16
-48
-80
-80
-96
-112
-192
-240
-128
-64
-16
32
-80
-80
-96
-112
-176
-240
-128
-64
-16
32
80
80
96
128
192
272
176
112
32
-48
-80
-80
-96
-112
-176
-240
-144
-64
-16
32
80
80
96
128
192
272
176
112
32
-32
-80
-80
-96
-112
-176
-240
-144
-64
-16
32
80
80
96
128
192
272
176
112
32
-32
-80
-80
-96
-112
-176
-240
-144
-64
-16
32
80
80
96
128
176
272
176
112
32
-32
-80
-80
-96
-112
-160
-240
-144
-80
-16
32
64
80
96
128
176
272
192
112
32
-32
-80
-80
-96
-112
-160
-240
-160
-80
-16
32
64
80
96
112
176
256
192
112
32
-32
-80
-80
-96
-112
-160
-240
-160
-80
-16
16
64
80
96
112
160
256
192
112
32
-32
-80
-80
-96
-112
-160
-256
-160
-80
-16
16
-80
-80
-96
-112
-160
-240
-176
-96
-32
16
64
80
96
112
160
256
208
128
48
-16
-80
-80
-96
-112
-144
-240
-192
-96
-32
16
64
80
96
112
160
256
208
128
48
-16
-80
-80
-96
-112
-144
-240
-192
-96
-32
16
64
80
96
112
144
256
224
128
64
-16
-80
-80
-96
-112
-144
-240
-192
-96
-32
0
64
80
96
112
144
240
224
128
64
-16
-80
-80
-96
-112
-144
-240
-192
-96
-32
0
64
80
96
112
144
240
224
128
64
-16
48
80
80
96
144
224
240
128
64
-16
-80
-80
-96
-112
-144
-224
-224
-112
-48
0
48
80
80
96
128
224
240
128
64
0
-64
-80
-96
-96
-128
-224
-224
-112
-48
0
48
64
80
96
128
224
240
128
64
0
48
64
80
96
128
208
240
144
80
0
-64
-80
-96
-112
-128
-208
-240
-128
-64
-16
32
64
80
96
128
208
256
144
80
0
-64
-80
-96
-112
-128
-208
-240
-128
-64
0
48
64
80
96
128
192
256
144
80
0
-64
-80
-96
-96
-128
-208
-240
-128
-64
-16
32
64
80
96
112
192
256
144
80
0
-64
-80
-96
-96
-128
-192
-240
-144
-64
-16
32
64
80
96
128
192
256
160
96
16
-48
-80
-96
-96
-128
-192
-240
-144
-64
-16
32
64
80
96
128
192
256
160
96
16
-48
-80
-96
-96
-128
-192
-240
-144
-64
-16
32
64
80
96
112
176
256
160
96
16
-48
-80
-80
-96
-128
-176
-240
-144
-80
-16
32
64
80
96
112
176
256
160
96
16
32
64
80
96
112
160
256
176
112
32
-32
-80
-80
-96
-112
-160
-240
-144
-80
-16
32
64
80
96
112
160
256
176
112
32
-32
-80
-80
-96
-112
-160
-240
-160
-80
-16
32
64
80
96
112
160
256
176
112
32
16
64
80
96
112
160
256
192
128
48
-16
-64
-64
-80
-96
-144
-224
-160
-80
-32
16
64
80
96
112
160
240
192
112
48
-16
-64
-80
-80
-96
-144
-224
-160
-80
-16
16
64
80
96
112
144
240
192
112
48
-16
-64
-64
-80
-96
-144
-224
-176
-80
-32
16
64
80
96
112
144
240
208
112
48
-16
-64
-64
-80
-96
-128
-224
-176
-80
-32
16
64
80
96
112
144
240
208
128
48
-16
-64
-64
-80
-96
-128
-224
-176
-80
-32
0
-64
-80
-80
-96
-128
-208
-192
-96
-32
16
64
80
80
96
128
224
208
128
64
0
-64
-80
-80
-96
-128
-208
-192
-96
-32
0
48
64
80
96
128
224
224
128
64
0
-64
-80
-80
-96
-128
-208
-192
-96
-32
0
-64
-80
-80
-96
-128
-192
-208
-96
-48
0
48
64
80
96
128
208
224
128
64
0
-64
-80
-80
-96
-112
-192
-208
-112
-48
0
48
64
80
96
112
192
224
128
80
0
-64
-80
-80
-96
-112
-192
-208
-112
-48
0
48
64
80
96
112
192
240
128
80
0
-48
-80
-80
-96
-112
-192
-208
-112
-48
0
32
64
80
96
112
192
224
128
80
0
-48
-80
-80
-96
-112
-192
-224
-112
-64
-16
32
64
80
96
112
192
240
144
80
16
-48
-80
-80
-96
-112
-176
-224
-112
-64
-16
32
64
80
96
112
176
240
144
80
16
-48
-80
-80
-96
-112
-176
-224
-112
-64
-16
32
64
80
96
112
176
240
144
80
16
-48
-80
-80
-96
-112
-176
-224
-128
-64
16
-48
-80
-80
-80
-112
-160
-224
-128
-64
-16
32
64
80
80
112
160
240
160
96
16
-48
-80
-80
-96
-112
-160
-224
-128
-64
-16
16
64
80
96
112
160
240
160
96
32
-32
-80
-80
-80
-112
-160
-224
-144
-64
32
-32
-64
-80
-80
-96
-144
-224
-144
-64
-16
32
64
80
96
112
160
240
176
112
32
-32
-64
-80
-80
-96
-144
-224
-144
-80
-16
16
64
80
80
96
144
240
176
112
32
-32
-64
-80
-80
-96
-144
-224
-160
-80
-16
16
64
80
96
112
144
240
192
112
32
-32
-64
-80
-80
-96
-144
-224
-160
-80
-16
16
64
80
80
96
144
240
192
112
48
-16
-64
-80
-80
-96
-144
-224
-160
-80
-16
16
64
80
80
96
144
240
192
112
-32
0
48
64
80
96
128
224
192
112
48
-16
-80
-80
-96
-96
-144
-224
-192
-96
-48
0
32
48
64
80
112
208
192
112
48
-16
-80
-80
-96
-112
-144
-240
-208
-112
-48
-16
32
48
64
80
112
208
192
112
48
-16
-80
-80
-96
-112
-144
-240
-208
-112
-64
-16
32
48
64
80
112
208
192
112
48
-32
-80
-96
-96
-112
-144
-240
-224
-128
-64
-16
32
48
64
80
112
192
208
112
48
-32
-80
-96
-96
-112
-144
-240
-224
-128
48
-16
-80
-96
-112
-112
-144
-224
-240
-128
-80
-32
32
48
64
64
96
176
208
112
48
-16
-80
-96
-112
-112
-144
-224
-240
-128
-80
-32
16
48
64
64
96
176
208
112
64
-16
-80
-96
-112
-112
-144
-224
-240
-128
-80
-32
16
48
64
64
96
176
224
112
64
-16
-80
-96
-96
-112
-144
-208
-240
-144
-80
-32
16
48
64
64
96
176
224
128
64
-16
-80
-96
-96
-112
-144
-208
-240
-144
-80
-32
16
48
64
80
96
176
224
128
64
-16
-80
-96
-96
-112
-144
-208
-256
-144
-80
-32
16
48
64
64
96
176
224
128
64
0
-64
-96
-96
-112
-128
-208
-256
-144
-80
-32
16
48
64
80
96
160
224
128
80
0
-64
-96
-96
-112
-128
-192
-256
-144
80
16
-48
-96
-96
-112
-128
-192
-256
-160
-80
-32
16
48
64
80
96
160
240
144
80
16
-48
-96
-96
-112
-128
-176
-256
-160
-96
-32
16
48
64
80
96
144
240
160
80
16
-48
-96
-96
-96
-128
-176
-256
-160
-80
-32
16
48
64
80
96
144
240
160
96
16
-48
-80
-96
-96
-112
-176
-256
-160
-80
-32
16
48
64
80
96
144
240
160
96
16
-48
-80
-96
-96
-112
-176
-256
-160
-96
-32
16
48
64
80
96
144
240
160
-96
-48
0
48
64
80
96
128
224
176
96
32
-32
-80
-96
-96
-112
-160
-240
-176
-96
-48
0
48
64
80
96
128
224
176
96
32
-32
-80
-96
-96
-112
-160
-240
-176
-96
-48
0
48
64
80
96
128
224
176
96
32
-32
-80
-96
-96
-112
-160
-240
-176
-96
-48
0
48
64
80
96
128
224
192
112
32
-32
-80
-80
-96
-112
-144
-240
-192
-96
-48
0
48
64
80
96
128
224
192
112
48
-32
-80
-80
-96
-112
-144
-240
-192
112
48
-16
-80
-80
-96
-112
-144
-224
-208
-112
-48
0
48
64
80
80
128
208
208
112
48
-16
-80
-80
-96
-112
-144
-224
-208
-112
-48
0
32
64
80
80
112
208
208
112
48
-16
-64
-80
-96
-96
-128
-224
-208
-112
-48
-16
48
64
80
80
112
208
208
112
64
-16
-64
-80
-96
-96
-128
-208
-208
-112
-48
0
32
48
64
80
112
208
224
128
64
0
-64
-80
-96
-96
-128
-208
-224
-112
-64
-16
32
48
64
80
112
192
224
-128
-64
-16
32
48
64
80
112
192
224
128
80
0
-64
-80
-96
-96
-128
-208
-224
-128
-80
-32
32
48
64
80
96
176
224
128
64
0
-64
-80
-96
-112
-128
-192
-240
-128
-80
-16
16
48
64
80
96
176
224
-128
-80
-16
32
48
64
80
96
160
224
144
80
0
-48
-80
-96
-96
-128
-192
-240
-144
-80
-32
16
48
64
80
96
160
224
144
80
0
-48
-80
-96
-96
-128
-176
-240
-144
-80
-32
16
48
64
80
96
160
240
144
80
16
-48
-80
-96
-96
-128
-176
-240
-144
-96
-32
16
48
64
80
96
160
240
144
80
16
-48
-80
-96
-96
-128
-176
-240
-144
-80
-32
16
48
64
80
96
160
240
144
96
16
-48
-80
-80
-96
-112
-160
-240
160
96
16
-48
-96
-96
-96
-128
-176
-256
-176
-96
-48
0
32
48
48
64
112
208
128
64
-16
-80
-128
-128
-144
-160
-208
-288
-208
-144
-80
-32
0
16
16
48
80
176
112
48
-16
-80
-128
-128
-144
-160
-208
-288
-208
-128
-80
-32
0
16
32
48
80
176
128
48
-16
-80
-128
-128
-144
-144
-192
-272
-208
-128
-64
-32
16
16
32
48
96
176
128
48
-16
-80
-128
-128
-128
-144
-192
-272
-208
-128
-64
-32
16
16
32
48
80
176
-208
-128
-64
-32
16
32
48
64
96
192
160
80
16
-48
-112
-112
-128
-128
-176
-256
-208
-128
-64
-16
16
32
48
48
96
192
160
80
16
-48
-112
-112
-112
-128
-160
-256
-224
-128
-64
-16
16
32
48
64
96
192
176
80
16
-48
-96
-112
-112
-128
-160
-240
-224
-128
-64
-16
16
32
48
64
96
192
176
96
32
-48
-96
-96
-112
-112
-144
-224
-208
-96
-32
32
80
96
96
112
144
224
224
128
80
0
-64
-64
-80
-96
-112
-208
192
96
32
-32
-96
-112
-112
-128
-160
-224
-240
-128
-80
-32
16
32
48
48
80
160
192
96
32
-32
-96
-112
-112
-128
-160
-224
-240
-144
-80
-32
16
32
48
64
80
160
192
96
32
-32
-96
-112
-112
-128
-144
-224
-240
-144
-80
-32
16
32
48
64
80
160
192
96
48
-32
-80
-112
-112
-112
-144
-224
-240
-144
-80
-32
16
32
48
64
80
160
208
96
48
-16
-80
-96
-112
-112
-144
-208
-240
-144
-80
-32
16
48
48
64
96
160
-240
-144
-80
-32
16
48
48
64
96
160
224
128
64
0
-64
-96
-96
-112
-128
-192
-240
-144
-80
-32
16
48
64
64
96
160
224
128
64
0
-64
-96
-96
-112
-128
-192
-240
-144
-80
-32
16
48
48
64
80
144
208
128
64
0
-64
-96
-96
-112
-128
-192
-256
-160
-96
-48
0
32
32
48
64
128
208
112
48
-16
-80
-112
-112
-128
-144
-208
-256
-160
-112
-48
0
32
32
48
64
128
208
112
64
-16
-80
-112
-112
-128
-144
-192
208
128
64
0
-64
-96
-112
-112
-128
-176
-256
-176
-112
-48
-16
32
48
48
80
112
208
144
80
0
-64
-96
-96
-112
-128
-176
-256
-176
-112
-48
0
32
48
48
64
112
208
144
80
0
-64
-96
-96
-112
-128
-176
-256
-176
-112
-48
-16
32
48
48
64
112
208
144
80
16
-48
-96
-96
-112
-128
-176
-256
-176
-112
-64
-16
32
32
48
64
112
208
144
80
16
-48
-96
-96
-112
-128
-176
-256
-192
-112
-64
-16
32
32
48
64
112
-240
-192
-112
-64
-16
32
32
48
64
96
192
160
80
16
-48
-96
-96
-112
-128
-160
-240
-208
-128
-64
-16
32
32
48
64
96
192
176
96
32
-32
-96
-96
-112
-128
-160
-240
-208
-112
-64
-16
32
32
48
64
96
192
176
96
32
-32
-96
-96
-112
-112
-160
-240
-208
-128
-64
-16
16
32
48
64
96
192
176
96
32
-32
-96
-96
-96
-112
-144
-240
-208
-128
-64
-16
32
48
48
64
96
192
176
96
32
-32
-80
-96
-112
-112
-144
176
192
96
48
-32
-80
-96
-96
-112
-144
-224
-224
-128
-80
-32
16
32
48
64
96
176
192
96
48
-32
-80
-96
-112
-112
-144
-224
-224
-128
-80
-32
16
48
48
64
96
176
192
96
48
-16
-80
-96
-96
-112
-144
-208
-224
-128
-80
-32
16
48
48
64
96
176
208
112
48
-16
-80
-96
-96
-112
-144
-208
-240
-128
-80
-32
16
48
48
64
96
176
208
112
48
-16
-80
-96
-96
-112
-144
-208
-224
-128
-80
-32
16
48
48
64
96
160
208
112
48
-16
-80
-96
-96
-112
-144
-208
-240
-128
-80
-32
16
48
48
64
96
160
208
112
48
-16
-80
-96
-96
-112
-128
-208
-240
-128
-80
-32
16
48
48
64
96
160
208
112
64
-16
-64
-96
-96
-112
-128
144
208
128
64
0
-64
-96
-96
-112
-128
-192
-240
-144
-96
-32
0
32
48
64
80
144
208
128
64
0
-64
-96
-96
-112
-128
-192
-240
-144
-96
-32
0
48
48
64
80
144
208
128
64
0
-64
-96
-96
-112
-128
128
224
144
80
0
-64
-96
-96
-112
-128
-176
-256
-160
-96
-48
0
48
48
64
80
128
224
144
80
0
-64
-96
-96
-112
-128
-176
-256
-160
-96
-48
0
48
48
64
80
128
224
144
80
16
-48
-96
-96
-112
-128
112
208
144
80
16
-48
-96
-96
-112
-128
-160
-240
-176
-112
-48
0
32
48
64
80
112
208
160
80
16
-48
-96
-96
-112
-128
-160
-240
-176
-96
-48
0
32
48
64
80
112
208
160
80
16
-48
-96
-96
-112
-128
-160
-240
-176
-112
-48
0
48
48
64
80
112
208
160
80
16
-48
-96
-96
-112
-112
-160
-240
-192
-112
-48
0
32
48
64
80
112
208
176
96
32
-48
-96
-96
-112
-112
-144
-240
-192
-112
-48
0
48
48
64
80
-144
-224
-192
-112
-64
-16
32
48
64
80
112
192
176
96
32
-32
-80
-96
-112
-112
-144
-224
-208
-112
-64
-16
32
48
64
80
96
192
192
96
32
-32
-80
-96
-96
-112
-144
-224
-208
-112
-64
-16
32
48
64
64
96
192
192
96
32
-32
-80
-96
-112
-112
-144
-224
-224
-128
-64
-16
32
48
64
64
96
176
192
96
32
-32
-96
-96
-112
-112
-144
-224
-224
-128
-80
-16
16
48
48
64
96
176
192
96
48
-32
-80
-96
-112
-112
80
160
192
96
48
-16
-80
-96
-112
-112
-144
-208
-240
-128
-80
-32
16
32
48
64
80
160
192
96
48
-16
-80
-96
-112
-112
-144
-208
-240
-128
-80
-32
16
32
48
64
80
160
192
112
48
-16
-80
-96
-96
-112
-128
-208
-240
-144
-80
-32
16
32
48
64
80
160
208
112
64
-16
-80
-96
-96
-112
-128
-192
-240
-144
-80
-32
16
32
48
64
80
160
208
112
64
-16
-80
-96
-96
-112
-128
-192
-240
-144
-80
-32
16
32
48
64
80
144
208
112
64
0
-64
-96
-96
-112
-128
-192
-240
-144
-96
-32
16
32
48
64
80
144
208
112
64
-16
-64
-96
-96
-112
-128
-192
-240
-144
-96
-32
16
32
48
64
80
144
208
112
64
0
-64
-96
-96
-112
-128
-192
-240
-144
-96
-32
0
32
48
64
80
144
208
128
64
0
-64
-96
-96
-112
-128
-192
-240
-144
-96
-48
0
32
48
64
80
144
208
128
64
0
-64
-96
-96
-112
-128
-176
-240
-144
-96
-32
16
48
48
64
-96
-144
-208
-128
-64
-16
32
64
80
96
112
160
240
176
112
32
-32
-64
-64
-80
-96
-144
-224
-128
-80
-16
32
64
80
96
112
144
240
176
112
32
-32
-64
-64
-80
-96
-144
-224
-144
-80
-32
16
64
80
80
96
144
240
176
96
32
-32
-64
-80
-80
-96
-144
-224
-144
-80
-16
16
64
64
80
96
144
224
176
96
32
-32
-80
-80
-96
-112
-144
-224
-160
-96
-32
16
48
64
80
96
128
224
160
96
32
-32
-80
-80
-96
64
96
192
160
80
16
-48
-96
-96
-112
-128
-160
-240
-192
-112
-64
-16
32
32
48
64
96
192
160
80
16
-48
-96
-96
-112
-112
-160
-240
-192
-112
-64
-16
32
32
48
64
96
192
160
80
32
-32
-96
-96
-112
-112
-144
-240
-192
-112
-64
-16
32
32
48
64
96
192
160
80
32
-32
-96
-96
-112
-112
-144
-224
-208
-112
-64
-16
32
32
48
64
96
192
176
96
32
-32
-80
-96
-96
-112
-144
-224
-192
-112
-48
0
48
64
80
-96
-128
-208
-192
-112
-48
0
32
64
64
80
112
192
208
112
64
-16
-64
-80
-96
-96
-128
-208
-192
-112
-48
0
32
48
64
80
112
192
208
112
64
-16
-64
-80
-80
-96
-128
-192
-208
-112
-48
0
32
48
64
80
96
176
208
112
64
-16
-64
-80
-96
-96
-128
-192
-208
-112
-64
-16
32
48
64
80
96
176
208
112
64
0
-64
-80
-80
-96
-112
-192
-208
-112
-64
-16
32
48
64
80
96
176
208
112
64
0
-64
-80
-80
-96
-112
-192
-208
-112
-64
-16
32
48
64
80
96
176
208
112
64
0
-64
-80
-80
-96
-112
-192
-208
-112
-64
-16
32
48
64
80
96
176
208
112
64
0
-64
-80
-80
-96
-112
-176
-208
-112
-64
-16
32
48
64
-112
-128
-192
-240
-144
-80
-32
0
32
48
64
80
144
208
112
64
0
-64
-96
-96
-112
-128
-192
-240
-144
-80
-32
0
32
48
48
80
128
208
112
64
0
-64
-96
-96
-112
-128
-176
-240
-144
-96
-32
0
32
48
64
80
128
208
112
64
0
-64
-96
-96
-112
-128
-176
-240
-144
-96
-32
0
32
48
64
80
128
208
112
64
0
-64
-96
-96
-112
-128
-176
-240
-144
-96
-32
0
32
48
64
80
128
208
128
64
0
-64
-96
-96
64
80
112
208
128
64
0
-48
-96
-96
-112
-128
-160
-240
-160
-96
-48
0
32
48
64
80
112
208
128
80
16
-48
-96
-96
-96
-112
-160
-240
-160
-96
-48
0
32
48
64
80
112
208
144
80
16
-48
-96
-96
-96
-112
-160
-240
-160
-96
-48
0
32
48
64
80
112
208
144
80
16
-48
-96
-96
-96
-112
-160
-240
-160
-96
-48
0
32
48
64
64
112
208
144
80
16
-48
-96
-96
-96
-112
-160
-224
-160
-96
-48
0
32
48
-64
-80
-112
-192
-144
-80
-32
16
64
64
80
96
128
224
176
112
48
-16
-64
-64
-80
-80
-112
-208
-160
-80
-32
0
64
64
80
96
128
224
192
112
48
-16
-64
-64
-80
-80
-128
-208
-160
-80
-32
16
48
64
80
96
128
208
176
112
48
-16
-64
-80
-80
-96
-128
-208
-176
-96
-32
0
48
64
64
80
112
192
176
96
32
-32
-80
-80
-96
-112
-144
-224
-192
-112
-48
-16
32
32
48
64
96
176
160
80
32
-32
-80
-96
48
64
80
176
176
80
32
-32
-80
-96
-96
-112
-128
-208
-208
-112
-64
-16
16
32
48
64
80
176
176
96
32
-32
-80
-96
-96
-112
-128
-208
-208
-112
-64
-16
16
32
48
64
80
160
176
96
48
-16
-80
-96
64
80
96
176
224
128
80
16
-48
-64
-64
-80
-96
-160
-192
-96
-48
0
48
64
80
96
112
176
224
128
80
16
-48
-64
-80
-80
-96
-176
-192
-96
-48
0
32
64
80
80
96
176
208
128
80
0
-48
-64
-80
-80
-96
-176
-192
-96
-64
-16
32
64
64
80
96
160
208
128
80
0
-48
-64
-80
-80
-112
-160
-208
-112
-64
-16
32
64
64
80
96
160
208
128
80
0
-48
-80
-80
-96
-112
-176
-208
-112
-64
-16
32
48
-80
-80
-112
-160
-208
-128
-64
-16
16
48
64
64
96
144
208
128
80
16
-48
-80
-80
-96
-112
-160
-224
-128
-80
-32
16
48
48
64
80
144
208
128
64
0
-64
-96
-96
-96
-112
-160
-224
-144
-80
-32
0
32
48
64
80
128
192
112
64
0
-64
-96
-96
-96
-112
-160
-224
-144
-96
-32
0
32
48
64
80
128
192
128
64
0
-48
-96
-96
-96
-112
-160
-240
-144
-96
-48
0
32
48
64
80
128
192
128
64
0
-48
-80
48
64
80
112
208
144
80
16
-48
-96
-96
-96
-112
-160
-224
-160
-96
-48
0
32
48
64
80
112
192
144
80
16
-48
-80
-80
-96
-112
-144
-224
-160
-96
-32
0
48
48
64
64
112
192
144
80
16
-48
-80
-80
-96
-112
-144
-224
-160
-96
-48
0
32
48
64
64
112
192
144
80
16
-48
-80
-80
-96
-112
-144
-224
-160
-96
-48
0
32
48
64
64
112
192
144
80
16
-32
-80
-80
-96
-112
-144
-224
-160
-96
-48
0
32
-80
-96
-112
-144
-208
-176
-96
-48
0
32
48
64
80
112
208
176
112
48
0
-48
-64
-64
-80
-112
-192
-144
-64
-32
16
64
64
80
96
128
208
192
112
64
0
-48
-64
-64
-80
-112
-192
-160
-80
-32
0
64
64
80
96
128
208
192
112
64
0
-48
-64
-64
-80
-112
-192
-160
-80
-32
0
48
64
80
96
112
208
192
112
64
0
-64
-64
-80
-80
-112
-192
-160
-80
-32
0
48
64
80
80
112
192
192
112
48
-16
-64
32
48
64
80
160
176
80
32
-32
-80
-96
-96
-112
-128
-208
-208
-112
-64
-16
16
32
48
64
80
160
176
96
32
-32
-80
-96
-96
-112
-128
-208
-208
-112
-64
-16
16
32
48
64
80
160
176
96
48
-32
-80
-96
-96
-112
-128
-208
-208
-112
-64
-16
16
32
48
64
80
160
176
96
48
-16
-80
-96
-96
-112
-128
-192
-224
-128
-64
-32
16
32
48
64
80
160
192
96
48
-16
-80
-96
-96
-112
-128
-192
-208
-128
-64
-16
16
-64
-64
-80
-96
-160
-192
-96
-48
0
32
64
80
80
112
176
224
128
80
16
-48
-64
-64
-80
-96
-160
-192
-96
-48
-16
32
64
80
80
96
160
224
128
80
16
-32
-64
-64
-80
-96
-160
-192
-112
-48
0
32
64
64
80
96
160
224
128
80
16
-48
-64
-64
-80
-96
-144
-208
-112
-64
-16
32
64
64
80
96
160
224
128
80
16
-48
-64
-64
-80
-96
-144
-208
-112
-64
-16
32
64
64
80
96
144
224
128
80
16
-48
64
64
80
96
144
224
144
80
16
-32
-64
-80
-80
-96
-144
-208
-128
-80
-32
16
48
48
64
80
128
208
128
80
16
-48
-80
-80
-96
-112
-144
-224
-144
-80
-32
0
48
48
64
80
128
208
128
80
16
-48
-80
-80
-80
-112
-144
-224
-144
-80
-32
0
48
48
64
80
128
208
144
80
16
-32
-80
-80
-80
-96
-144
-224
-144
-80
-32
0
48
48
64
80
128
208
144
80
16
-32
-64
-64
-80
-96
-144
-224
-144
-80
-32
16
-64
-80
-80
-96
-128
-208
-144
-80
-16
16
48
64
80
80
128
208
160
96
48
0
-48
-32
-48
-64
-96
-176
-112
-48
0
32
80
80
96
112
144
224
192
128
64
0
-48
-48
-48
-64
-96
-176
-128
-48
0
32
-48
-48
-64
-64
-96
-176
-144
-64
-16
16
64
64
80
96
128
208
176
96
48
-16
-64
-64
-80
-96
-128
-208
-176
-96
-48
0
48
48
64
80
112
192
176
96
48
-16
-64
-80
-80
-96
-112
-192
-176
-96
-48
0
-64
-64
-80
-80
-112
-192
-176
-96
-48
0
32
48
64
80
112
192
192
112
48
0
-64
-64
-80
-80
-112
-192
-192
-96
-48
0
48
48
64
80
96
192
192
112
64
0
-64
-64
-80
-80
-112
-192
-192
-96
-48
0
48
64
64
80
112
192
208
112
64
0
-48
-64
-64
-80
-112
-176
-176
-96
-32
0
48
64
80
96
128
208
240
144
96
32
-32
-32
-48
-64
-80
-144
-160
-64
-16
16
64
80
96
112
128
208
224
144
96
32
48
64
80
96
112
176
224
128
80
16
-32
-48
-64
-64
-96
-160
-192
-96
-32
0
48
64
80
96
112
176
224
128
80
16
-48
-64
-64
-80
-96
-160
-192
-96
-48
0
48
64
80
96
112
176
224
128
80
16
-32
-64
-64
-80
-96
-160
-192
-96
-48
0
48
64
80
80
112
160
224
128
80
16
-32
-64
-64
-80
-96
-144
-192
-96
-48
0
32
64
80
80
96
160
224
128
80
16
-32
-64
-64
-80
-96
-144
-208
-112
-48
0
-48
-80
-80
-80
-96
-144
-208
-128
-64
-16
16
48
48
64
80
144
208
128
80
16
-48
-80
-80
-80
-96
-160
-224
-128
-64
-16
16
48
48
64
80
128
208
128
80
16
-48
-80
-80
-80
-96
-144
-208
-128
-64
-32
16
48
48
64
80
128
208
128
80
16
-32
-80
-80
-80
-96
-144
-224
-128
-80
-16
16
48
48
64
80
128
208
144
80
16
-32
-64
-80
-80
-96
-144
-208
-128
-80
-32
16
48
48
64
80
128
208
144
80
16
0
48
48
64
80
128
208
160
96
32
-32
-64
-64
-80
-96
-128
-208
-144
-80
-32
0
48
48
64
80
128
208
160
96
32
-32
-64
-64
-80
-96
-128
-208
-144
-80
-32
0
48
64
64
80
112
208
160
96
32
0
48
48
64
80
112
208
176
96
32
-16
-64
-64
-80
-96
-112
-208
-160
-80
-32
0
48
64
64
80
112
208
176
96
32
-16
-64
-64
-80
-80
-112
-192
-160
-80
-32
0
48
64
64
80
112
192
176
96
48
-16
-64
-64
-80
-96
-112
-192
-160
-80
-32
0
48
64
64
80
112
192
176
96
48
-16
-64
-64
-80
-96
-112
-192
-176
-80
-32
0
48
48
64
80
112
192
192
112
48
-16
-64
-64
-80
-96
-112
-192
-176
-80
-32
0
48
64
64
80
112
192
176
96
48
-16
-64
-64
-80
-80
-112
-192
-176
-80
-32
0
48
48
64
80
112
192
192
112
48
0
-64
-64
-80
-80
-112
-192
-176
-96
-48
0
48
64
64
80
112
192
192
112
64
0
32
48
64
80
96
176
192
112
64
0
-48
-64
-80
-80
-112
-176
-192
-96
-48
-16
32
48
64
80
96
176
192
112
64
0
-48
-64
-80
-80
-112
-176
-192
-96
-48
-16
32
48
64
80
96
176
208
112
64
0
-48
-64
-64
-80
-96
-176
-192
-96
-48
0
32
48
64
80
96
160
208
112
64
0
-48
-64
-80
-80
-96
-160
-192
-96
-48
-16
32
48
64
80
96
160
208
112
64
0
-48
-64
-64
-80
-112
-160
-192
-112
-48
0
-48
-64
-64
-80
-96
-160
-208
-112
-64
-16
32
48
64
80
96
144
208
128
80
16
-48
-64
-64
-80
-96
-160
-208
-112
-64
-16
32
48
64
80
96
144
208
128
64
16
-48
-80
-64
-80
-96
-144
-208
-112
-64
-16
32
48
64
64
96
144
208
128
80
16
-48
-64
-64
-80
-96
-144
-208
-112
-64
-16
16
48
64
80
96
144
208
128
80
16
-48
-64
-64
-80
-96
-144
-208
-112
-64
-16
16
48
64
64
96
144
208
128
80
-16
16
48
64
64
96
128
208
144
80
16
-32
-64
-64
-80
-96
-144
-208
-128
-64
-16
16
48
64
80
96
128
208
144
80
32
-32
-64
-64
-80
-96
-128
-208
-128
-64
-16
16
48
64
80
80
128
208
144
96
32
-32
-64
-64
-80
-96
-128
-208
-128
-64
-16
16
48
64
64
80
128
208
144
96
32
-32
-64
-64
-80
-96
-128
-208
-128
-64
-16
16
48
64
80
80
128
208
144
96
32
-32
-64
-64
-80
-96
-128
-208
-128
-64
32
-16
-64
-64
-80
-96
-128
-208
-144
-80
-32
0
48
48
64
80
112
208
160
96
32
-16
-64
-64
-80
-96
-128
-208
-144
-80
-16
16
48
64
64
80
112
208
160
96
32
-16
-64
-64
-80
-80
-112
-192
-144
-80
-32
0
48
64
64
80
112
208
176
96
48
-16
-64
-64
-80
-80
-112
-192
-160
-80
-32
0
48
64
64
80
112
192
176
96
48
-16
-64
-64
-80
-80
-112
-192
-160
-80
-32
0
48
64
64
80
112
192
176
96
-32
0
48
48
64
80
96
192
176
96
48
-16
-64
-64
-80
-80
-112
-176
-160
-80
-32
0
48
48
64
80
96
176
176
96
48
-16
-64
-64
-80
-80
-112
-176
-176
-80
-32
0
48
48
64
80
96
176
176
96
48
-16
-64
-64
-64
-80
-112
-176
-176
-80
-32
0
32
48
64
80
96
176
176
96
48
-16
-64
-64
-80
-80
-112
-176
-176
-96
-48
0
32
48
64
64
96
176
176
96
48
0
-64
-64
-80
-80
-112
-176
-176
-96
64
0
-48
-64
-64
-80
-96
-160
-176
-96
-48
-16
32
48
64
64
96
160
192
96
64
0
-48
-64
-64
-80
-96
-160
-176
-96
-48
0
32
48
64
80
96
160
192
112
64
0
-48
-64
-64
-80
-96
-160
-176
-96
-48
-16
32
48
64
64
80
160
192
112
64
0
-48
-64
-64
-80
-96
-160
-192
-96
-48
-16
32
48
64
64
96
144
192
112
64
0
-48
-64
-64
-80
-96
-160
-192
-96
-48
-16
32
48
64
64
96
144
192
112
64
0
-48
-64
-64
-80
-96
-144
-176
-96
-48
-16
32
48
64
64
80
144
192
112
64
0
-48
-64
-64
-80
-96
-144
-192
-96
-48
-16
32
48
64
64
80
144
192
112
64
16
-48
-64
-64
-80
-96
-144
-192
-96
-48
-16
32
48
64
64
80
144
192
112
64
16
-48
-64
-64
-80
-96
-144
-192
-96
-48
-16
16
48
64
64
80
128
192
112
64
16
-48
-64
-64
-80
-96
-144
-192
-112
-48
-16
16
48
64
64
80
128
192
112
-64
-16
16
48
48
64
80
128
192
128
80
16
-32
-64
-64
-80
-96
-128
-192
-112
-64
-16
16
48
48
64
80
112
192
128
80
16
-32
-64
-64
-80
-96
-128
-192
-112
-64
-16
16
48
48
64
80
112
192
128
80
16
-32
-64
-64
-80
-96
-128
-192
-112
-64
-16
16
48
48
64
80
112
192
128
80
16
-32
-64
-64
-80
-80
-128
-192
-112
-64
-16
16
48
48
64
80
112
192
128
80
16
-32
-64
-64
-80
-80
-128
-192
-128
-64
-16
16
48
48
64
80
112
192
128
80
16
-32
-64
-64
-80
-80
-128
-192
-128
-64
-32
16
48
48
64
80
112
192
144
80
16
-32
-64
-64
-64
-80
-128
-192
-128
-64
-16
16
48
48
64
80
112
192
144
-80
-32
0
48
48
64
80
96
176
144
80
32
-16
-64
-64
-80
-80
-112
-192
-144
-80
-32
0
32
48
64
64
96
176
144
80
32
-16
-64
-64
-80
-80
-112
-192
-144
-80
-32
0
48
48
64
80
96
176
144
80
32
-16
-64
-64
-80
-80
-112
-176
-144
-80
-32
0
32
48
64
64
96
176
144
80
32
-16
-64
-64
-64
-80
-112
-176
-144
-80
-32
0
32
48
64
80
96
176
160
80
32
-16
-64
-64
-64
-80
-112
-176
-144
96
48
-16
-48
-64
-64
-80
-96
-176
-144
-80
-32
0
48
48
64
80
96
176
160
96
48
0
-48
-64
-64
-80
-96
-160
-144
-80
-32
0
48
48
64
80
96
176
176
96
48
0
-48
-64
-64
-64
-96
-160
-144
112
64
16
-32
-48
-48
-64
-80
-144
-144
-64
-16
16
48
64
80
80
112
176
192
112
64
16
-32
-48
-48
-64
-80
-144
-160
-80
-32
0
48
64
64
80
96
160
192
112
64
0
-48
-48
-64
-64
-96
-160
-160
112
64
0
-48
-64
-64
-64
-96
-144
-176
-80
-32
-16
32
48
64
80
96
160
192
112
64
16
-32
-48
-64
-64
-80
-144
-176
-80
-32
0
32
64
64
80
96
160
192
112
64
16
-32
-48
-64
-64
-80
-144
-176
112
80
16
-32
-48
-64
-64
-80
-128
-176
-96
-48
0
32
48
64
80
96
144
208
128
80
16
-32
-48
-64
-64
-80
-128
-176
-96
-48
-16
32
48
64
80
96
144
192
128
80
16
-32
-48
-64
-64
-80
-128
-176
128
80
16
-32
-48
-64
-64
-80
-128
-176
-96
-48
-16
32
48
64
80
96
128
208
128
80
16
-32
-48
-64
-64
-80
-128
-176
-112
-48
-16
16
48
64
64
80
128
192
128
80
16
-32
-64
-64
-64
-80
-128
-192
128
80
16
-32
-64
-64
-80
-96
-128
-192
-128
-80
-32
0
32
48
64
64
112
192
128
80
16
-32
-64
-64
-80
-96
-128
-192
-128
-80
-32
0
32
48
48
64
112
176
128
80
16
-32
-64
-64
-80
-96
-128
-192
128
80
16
-32
-64
-64
-80
-80
-112
-192
-128
-80
-32
0
32
48
64
64
96
176
144
80
32
-32
-64
-64
-80
-80
-112
-192
-144
-80
-32
0
32
48
64
64
96
176
144
80
32
-32
-64
-64
-80
-80
-112
-192
-144
-80
-32
0
32
48
64
64
96
176
144
80
32
-16
-64
-64
-80
-80
-112
-192
-144
-80
-32
0
32
48
64
64
96
176
144
80
32
-16
-64
-64
-80
-80
-112
-176
-144
-80
-32
0
32
48
64
64
96
176
144
80
32
-16
-64
-64
-64
-80
-112
-176
-144
-80
-32
0
32
48
64
64
96
176
144
96
32
-16
-64
-64
-64
-80
-112
-176
-144
-80
-32
0
32
48
64
64
96
176
160
96
32
-16
-48
-64
-64
-80
-112
-176
160
96
48
-16
-48
-64
-64
-80
-96
-176
-160
-80
-32
0
32
48
64
64
96
176
160
96
48
0
-48
-64
-64
-80
-96
-176
-160
-80
-32
0
32
48
64
64
96
160
176
96
48
0
-48
-64
-64
-80
-96
-160
176
96
48
0
-48
-64
-64
-80
-96
-160
-160
-80
-48
0
32
48
64
64
96
160
176
96
48
0
-48
-64
-64
-80
-96
-160
-160
-80
-48
-16
32
48
64
64
96
160
176
96
64
0
-48
-64
-64
-64
-96
-160
-160
-80
-48
0
32
48
64
64
96
160
176
112
64
0
-48
-64
-64
-64
-96
-144
-160
-80
-32
0
32
64
64
80
112
176
208
128
80
32
-16
-32
-32
-48
-64
-128
-144
-64
-16
16
64
80
80
96
112
176
-176
-96
-48
-16
16
48
48
64
80
144
176
112
64
0
-48
-64
-64
-80
-96
-144
-176
-96
-48
-16
32
48
48
64
80
144
192
112
64
16
-48
-64
-64
-64
-80
-144
-176
-96
-48
-16
16
48
48
64
80
128
192
112
64
16
-48
-64
-64
-80
-96
-144
-176
-96
-48
-16
16
48
48
64
80
128
192
112
64
16
-48
-64
-64
-64
-80
-144
-176
-96
-48
-16
16
48
48
64
80
128
192
112
64
16
-32
-64
-64
-64
-80
-128
192
112
64
16
-32
-64
-64
-64
-80
-128
-176
-112
-64
-16
16
48
48
64
80
128
192
128
80
16
-32
-64
-64
-64
-80
-128
-176
-112
-64
-16
16
48
48
64
80
112
192
128
80
16
-32
-48
-64
-64
-80
-112
-176
-112
-48
-16
16
48
48
64
80
112
192
128
80
16
-32
-48
-64
-64
-80
-112
-176
-112
-48
-16
16
48
48
64
80
112
192
128
80
32
-32
-48
-64
-64
-80
-112
-176
-112
-64
-16
16
48
48
64
80
112
-176
-112
-64
-16
16
48
48
64
80
112
192
144
80
32
-16
-48
-64
-64
-80
-112
-176
-112
-64
-16
16
48
48
64
80
112
192
144
80
32
-16
-48
-64
-64
-80
-112
-176
-128
-64
-16
0
48
48
64
80
112
192
144
80
32
-16
-64
-64
-64
-80
-112
-176
-128
-64
-32
0
48
48
64
80
112
192
144
80
32
-16
-48
-64
-64
-80
-112
-176
-128
-64
-16
16
48
48
64
80
96
176
144
80
32
-16
-48
-48
-64
-80
-96
176
160
96
32
-16
-64
-64
-64
-80
-96
-176
-144
-80
-32
0
48
48
64
80
96
176
160
96
48
-16
-48
-64
-64
-80
-112
-176
-144
-80
-32
0
48
48
64
80
96
176
160
96
48
-16
-64
-64
-64
-80
-96
-176
-144
-80
-32
0
48
48
64
64
96
176
160
96
48
-16
-48
-64
-64
-80
-96
-176
-144
-80
-32
0
32
48
64
80
96
176
176
96
48
0
-48
-64
-64
-80
-96
-176
-160
-80
-32
0
32
48
64
80
96
-160
-160
-80
-32
0
48
48
64
80
96
176
192
112
64
0
-48
-64
-64
-80
-96
-160
-160
-80
-32
0
32
64
64
80
96
176
192
112
64
0
-48
-64
-64
-64
-96
-160
-160
-80
-32
0
48
64
64
80
96
-160
-176
-80
-48
0
32
64
64
80
96
160
192
112
64
16
-48
-48
-64
-64
-80
-144
-176
-80
-32
0
32
64
64
80
96
160
208
112
80
16
-32
-48
-48
-64
-80
-128
-160
-64
-16
16
64
80
96
112
128
192
224
144
96
32
-16
-32
-32
-48
-64
-128
-160
-64
-32
16
48
80
96
96
112
176
224
144
96
32
-16
-32
-32
-48
-64
-128
-160
-64
-16
16
48
80
96
96
112
176
224
144
96
32
-16
-48
-48
-48
-64
-128
-160
-80
-32
16
48
80
96
96
112
176
224
144
96
32
-16
-32
-48
-48
-64
-112
-160
-80
-32
16
48
80
80
96
112
160
224
144
96
32
-16
-32
-48
-48
-64
-112
-176
-80
-32
0
48
80
80
96
112
-128
-176
-96
-48
0
32
64
80
96
96
144
224
144
96
32
-16
-48
-48
-64
-64
-112
-176
-96
-48
0
32
64
80
80
96
144
224
144
96
32
-16
-48
-48
-64
-80
-112
-176
-96
-48
0
32
64
64
80
96
144
208
144
96
32
-32
-64
-64
-64
-80
-128
-192
-112
-64
-16
16
64
64
80
96
128
208
144
96
32
-32
-64
-64
-64
-80
-128
-192
-112
-64
-16
16
48
64
80
96
128
208
144
96
32
-32
-64
-64
-64
-80
112
192
144
80
16
-32
-80
-80
-80
-96
-128
-208
-144
-96
-48
-16
16
32
48
48
96
176
112
64
0
-48
-80
-96
-96
-112
-144
-224
-160
-96
-48
-16
32
32
48
48
80
176
128
64
0
-48
-80
-80
-96
-112
-144
-208
-160
-96
-48
-16
16
32
48
48
80
176
128
64
16
-48
-80
-80
-96
-112
-144
-208
-160
-96
-48
-16
16
32
48
48
80
176
128
64
16
-48
-80
-80
-96
-112
-128
-208
-160
-96
-48
-16
32
32
48
64
80
176
128
64
16
-32
-80
-80
-96
-96
-128
-208
-160
-96
-48
-16
16
32
48
64
80
176
128
64
16
-32
-80
-80
-96
-96
-128
-208
-160
-96
-48
-16
32
32
48
64
80
176
144
80
32
-32
-80
-80
-96
-96
-128
-208
-160
-96
-48
0
32
32
48
64
80
176
144
80
32
-32
-80
-80
-80
-96
-128
-208
-176
-96
-48
0
32
32
48
64
80
176
144
80
32
-32
-80
-80
-96
-96
-128
-192
-176
-96
-48
-16
32
32
48
64
-112
-192
-176
-96
-48
-16
32
32
48
64
80
160
160
80
32
-16
-64
-80
-80
-96
-112
-192
-176
-96
-48
-16
32
32
48
64
80
160
160
80
48
-16
-64
-64
-80
-96
-112
-176
-176
-96
-48
-16
32
32
48
64
80
160
176
96
48
-16
-64
-64
-80
-96
-112
-176
-176
-96
-48
-16
16
32
48
64
80
160
176
96
48
-16
-64
-64
-80
-80
-112
-176
-176
-96
-48
-16
32
32
48
64
80
160
176
96
48
-16
-64
-64
-80
-80
80
144
176
96
48
0
-64
-80
-80
-80
-96
-160
-192
-96
-48
-16
32
48
48
64
80
144
176
96
64
0
-48
-80
-80
-80
-96
-160
-192
-96
-48
-16
16
48
48
64
80
144
176
96
48
0
-64
-64
-80
-80
80
128
192
112
64
0
-48
-64
-80
-80
-96
-144
-192
-112
-64
-16
16
48
48
64
80
128
192
112
64
0
-48
-64
-80
-80
-96
-144
-192
-112
-64
-16
16
48
48
64
80
128
192
112
64
0
-48
-64
-64
-80
-96
-144
-192
-112
-64
-16
16
48
48
64
80
128
192
112
64
16
-48
-64
-64
-80
-96
-144
-192
-112
-64
-16
16
48
48
64
80
128
192
112
64
16
-48
-64
-64
-80
-96
-144
-192
-112
-64
-32
16
48
48
64
-96
-128
-192
-112
-64
-32
16
48
48
64
80
112
192
128
64
16
-32
-64
-64
-80
-96
-128
-192
-112
-64
-16
16
48
48
64
80
112
192
128
80
16
-32
-64
-64
-80
-80
-128
-192
-128
-64
-16
16
48
48
64
80
112
192
128
80
16
-32
-64
-64
-80
-80
-128
-192
-128
-64
-16
16
48
48
64
80
112
192
128
80
16
-32
-64
-64
-80
-96
-128
-192
-128
-80
-32
0
32
48
64
80
112
192
128
80
32
-32
-64
-64
-80
80
112
192
144
80
32
-32
-64
-64
-64
-80
-112
-192
-128
-64
-32
0
48
48
64
80
112
192
144
80
32
-16
-64
-64
-64
-80
-112
-192
-144
-64
-16
0
48
48
64
80
112
192
144
80
32
-16
-64
-64
-64
-80
-112
-192
-144
-80
-32
0
32
48
64
80
96
192
144
80
32
-16
-64
-64
-80
-80
-112
-192
-144
-80
-32
0
48
48
64
64
96
176
144
80
32
-16
-64
-64
-80
-80
-112
-192
-144
-80
-32
0
32
48
64
-80
-112
-176
-160
-80
-32
0
32
48
64
64
96
176
160
96
48
-16
-64
-64
-64
-80
-112
-176
-160
-80
-32
0
32
48
64
64
96
176
160
96
48
-16
-64
-64
-64
-80
-96
-176
-160
-80
-32
0
32
48
64
64
96
176
160
96
48
-16
-64
-64
-64
-80
-96
-176
-160
-80
-32
0
32
48
64
64
96
160
160
96
48
-16
-64
-64
-64
-80
-96
-176
-160
-80
-32
0
32
48
64
64
96
160
176
96
48
0
-64
-64
-64
-80
-96
-160
-160
-80
-48
-16
32
48
64
64
80
160
176
96
48
0
-48
-64
-64
-80
-96
-176
-176
-96
-48
0
32
48
64
64
80
160
176
96
48
0
-48
-64
-64
-80
-96
-176
-176
-96
-48
-16
32
48
64
64
96
160
176
96
48
0
-48
-64
-64
-80
-96
-160
-176
-80
-48
-16
32
48
64
64
80
160
176
96
48
0
-48
-64
-64
-80
-96
-160
-176
-96
-48
0
32
48
48
64
80
160
176
96
64
0
-48
-64
-64
64
80
144
176
96
64
0
-48
-64
-64
-80
-96
-144
-176
-96
-48
-16
32
48
48
64
80
144
192
112
64
0
-48
-64
-64
-80
-96
-144
-192
-96
-48
-16
16
48
48
64
80
144
192
112
64
0
-48
-64
-64
-80
-96
-144
-176
-96
-48
-16
16
48
48
64
80
144
192
112
64
0
-48
-64
-64
-80
-96
-144
-192
-96
-48
-16
16
48
48
64
80
128
192
112
64
16
-48
-64
-64
-80
-96
-144
-192
-96
-48
0
32
48
48
-80
-96
-128
-192
-112
-48
-16
16
48
48
64
80
128
192
112
64
16
-32
-64
-64
-64
-80
-128
-192
-112
-64
-16
16
48
48
64
80
128
192
112
64
16
-32
-64
-64
-80
-96
-128
-192
-112
-64
-16
16
48
48
64
80
128
192
128
64
16
-32
-64
-64
-64
-80
-128
-192
-112
-64
-16
16
48
48
64
80
112
192
128
80
16
-32
-64
-64
-80
-96
-128
-192
-112
-64
-32
16
48
48
64
80
112
192
128
80
16
-32
-64
-64
80
96
128
208
160
96
48
0
-32
-32
-48
-64
-96
-160
-96
-48
0
32
64
80
80
96
128
208
160
96
48
0
-48
-48
-48
-64
-96
-160
-112
-48
0
32
64
80
80
96
128
208
160
96
48
0
-48
-48
-48
-64
-96
-160
-112
-48
0
32
64
64
80
96
128
208
160
96
48
0
-48
-48
-48
-64
-96
-160
-112
-48
-16
16
64
64
80
80
112
192
160
96
48
0
-48
-48
-48
-64
-96
-160
-112
-48
-16
16
64
64
80
96
112
192
160
96
48
0
-48
-48
-64
-64
-96
-176
-128
-48
-16
16
48
64
80
80
112
192
160
96
48
0
-48
-48
-64
-64
-96
-160
-128
-48
0
16
48
64
80
80
112
192
160
96
48
0
-48
-48
-64
-64
-96
-160
-128
-64
-16
16
48
64
80
80
112
192
160
96
48
0
-48
-48
-64
-64
-96
-160
-128
-64
-16
16
48
64
80
80
112
192
160
96
48
0
-48
-48
-64
-64
-96
-160
-128
-64
-16
16
48
64
-64
-80
-96
-160
-144
-80
-32
0
48
48
64
80
96
176
160
96
48
-16
-48
-64
-64
-80
-96
-160
-144
-80
-32
0
48
48
64
80
96
160
160
96
48
0
-48
-64
-64
-80
-96
-160
-160
-80
-32
0
32
48
-64
-80
-96
-160
-176
-96
-48
0
32
32
48
48
64
144
160
80
32
-32
-80
-80
-80
-96
-112
-192
-192
-112
-64
-32
16
16
32
48
64
128
144
80
32
-32
-80
-80
-96
-96
-112
-176
-192
-112
-64
-16
0
16
32
32
64
128
144
80
32
-16
-80
-80
-80
-96
-112
-176
-192
-112
-64
-16
0
16
32
48
64
128
160
80
32
-16
-64
-80
-80
-96
-112
-176
-192
-112
-64
-32
0
16
32
48
64
128
160
80
32
-16
-64
-80
-80
-96
-112
-176
-192
-112
-64
-32
0
16
32
48
64
128
160
80
32
-16
-64
-80
-80
-96
-112
-176
-192
-112
-64
-16
0
32
32
48
64
128
160
80
32
-16
-64
-80
-80
-96
-112
-160
-192
-112
-64
-16
16
32
-80
-80
-96
-160
-192
-112
-64
-32
0
32
32
48
64
112
160
80
48
-16
-64
-80
-80
-96
-112
-160
-192
-112
-64
-32
0
32
32
48
64
112
160
96
48
-16
-64
-80
-80
-80
-96
-160
-192
-112
-64
-32
0
16
32
32
48
96
160
80
48
-16
-64
-80
-80
-96
-112
-160
-208
-128
-80
-32
-16
16
16
32
48
96
160
80
48
-16
-64
-80
-80
-96
-112
-160
-208
-128
-80
-32
0
16
16
32
48
96
160
80
48
-16
-64
-80
-80
-80
-96
-128
-192
-128
-80
-32
0
16
32
32
48
80
160
96
48
0
-48
-80
-80
-80
-96
-128
-208
-144
-80
-48
-16
16
32
32
48
80
160
112
64
0
-48
-80
-80
-80
-96
-128
-208
-144
-80
-48
-16
16
-80
-80
-96
-128
-208
-144
-96
-48
-16
16
16
32
48
80
160
112
64
0
-48
-80
-80
-80
-96
-128
-208
-144
-96
-48
-16
16
16
32
48
80
160
112
64
16
-32
-80
-80
-80
-96
-128
-192
-144
-96
-48
-16
16
32
32
48
80
160
128
64
16
-32
-80
-80
-80
-96
-128
-192
-144
-96
-48
-16
16
32
32
48
80
160
128
64
16
-32
-64
-80
-80
-96
-112
-192
-144
-80
-48
-16
32
32
48
48
80
160
128
64
16
-32
-64
-64
-80
-96
-112
-192
-144
-80
-48
-16
16
32
48
48
80
160
128
64
16
-32
-64
-80
-80
-96
-112
-192
-144
-80
-48
-16
16
32
48
48
80
160
128
64
16
-32
-64
-80
-80
-96
-112
-192
-160
-80
-48
-16
32
-80
-80
-80
-112
-176
-160
-96
-48
-16
16
32
48
48
80
144
144
80
32
-16
-64
-64
-80
-80
-112
-176
-160
-96
-48
-16
16
32
48
48
80
144
144
80
32
-16
-64
-64
-80
-80
-112
-176
-160
-96
-48
-16
16
32
48
48
80
144
144
80
32
-16
-64
-64
-80
-80
-96
-176
-160
-96
-48
-16
32
32
48
48
64
144
144
80
32
-16
-64
-64
-80
-80
-96
-160
-160
-80
-48
-16
16
32
48
48
80
144
144
80
32
-16
-64
-64
-64
-80
-96
-160
-160
-96
-48
-16
16
32
48
64
80
144
160
80
32
-16
-64
-64
-64
-80
-96
-160
-160
-80
-48
-16
32
32
48
48
80
144
160
80
32
-16
-48
-64
-64
-80
-96
-160
-160
-96
-48
-16
16
-64
-80
-80
-96
-160
-176
-96
-48
-16
16
32
48
48
64
128
160
80
48
-16
-48
-64
-80
-80
-96
-160
-176
-96
-48
-16
16
32
48
48
64
128
160
80
48
0
-48
-64
-64
-80
-96
-144
-176
-96
-48
-16
16
-64
-64
-80
-96
-144
-176
-96
-64
-16
16
32
32
48
64
112
160
96
48
0
-48
-64
-64
-80
-96
-144
-176
-96
-64
-16
16
32
48
48
64
112
160
96
48
0
-48
-64
-64
-80
-96
-144
-176
-112
-64
-16
16
32
48
48
64
112
160
96
48
0
-48
-64
-64
-80
-96
-144
-176
-96
-64
-16
16
32
32
48
64
112
160
96
48
0
-48
-64
-64
-80
-96
-144
-176
-112
-64
-32
16
32
48
48
64
112
160
96
48
0
-48
32
32
48
64
112
176
96
64
0
-48
-64
-64
-80
-96
-128
-192
-112
-64
-32
16
32
32
48
64
96
160
96
64
0
-48
-64
-64
-80
-96
-128
-192
-112
-64
-32
0
32
48
48
64
96
160
96
64
16
-32
-64
-64
-64
-80
-128
-176
-112
-64
-16
0
32
48
48
64
96
160
112
64
16
-32
-64
-64
-64
-80
-128
-176
-112
-64
-32
0
32
48
48
64
96
176
112
64
16
-32
-64
-64
-80
-80
-112
-176
-112
-64
-32
0
-64
-64
-64
-80
-112
-176
-128
-64
-32
0
32
48
48
64
96
160
112
64
16
-32
-64
-64
-64
-80
-112
-176
-128
-64
-32
0
32
48
48
64
96
160
112
64
16
-32
-64
-64
-64
-80
-112
-176
-128
-64
-32
0
-64
-64
-64
-80
-112
-176
-128
-80
-32
0
32
32
48
64
80
160
128
64
16
-32
-64
-64
-64
-80
-112
-176
-128
-80
-32
0
32
32
48
64
80
160
128
80
32
-16
-64
-64
-80
-80
-96
-176
-128
-80
-32
0
32
32
48
64
80
160
128
64
32
-16
-64
-64
-64
-80
-96
-176
-144
-80
-32
0
32
32
48
64
80
160
128
80
32
-16
-64
-64
-64
-80
-96
-176
-144
-80
-32
0
32
32
48
64
80
160
128
80
32
-16
32
32
48
64
80
144
144
80
32
-16
-64
-64
-64
-80
-96
-160
-144
-80
-32
0
32
32
48
48
80
144
144
80
32
-16
-64
-64
-64
-80
-96
-160
-144
-80
-48
-16
32
32
48
64
80
144
144
80
32
-16
-64
-64
-64
-80
-96
-160
-144
-80
-32
0
32
32
48
48
80
144
144
80
32
-16
-64
-64
-64
-80
-96
-160
-160
-80
-48
-16
16
32
48
48
80
144
144
80
32
-16
-64
-64
-64
-80
-96
-160
-160
-80
-48
-16
16
32
48
48
64
128
160
80
48
0
-48
-64
-64
-64
-80
-144
-160
-80
-48
-16
16
32
48
64
64
128
160
80
48
0
-48
-64
-64
-80
-96
-144
-160
-80
-48
-16
16
32
48
48
64
128
160
80
48
0
-48
-64
-64
-64
-96
-144
-160
-80
-48
0
16
32
48
48
64
128
160
96
48
0
-48
-64
-64
-64
-80
-144
-160
-80
-48
-16
16
32
48
48
64
128
160
80
48
0
-48
-64
-64
-80
-96
-144
-176
-96
-48
-16
-48
-64
-64
-64
-80
-128
-176
-96
-48
-16
16
32
48
48
64
112
160
96
48
0
-48
-64
-64
-64
-80
-128
-160
-96
-48
-16
16
32
32
48
64
112
160
96
48
0
-48
-64
-64
-64
-80
-128
-176
-96
-48
-16
16
32
48
48
64
112
160
96
48
0
-48
-64
-64
-64
-80
-128
-160
-96
-48
-16
16
32
48
48
64
112
160
96
48
0
-32
-64
-64
-64
-80
-128
-176
-96
-48
-16
16
48
48
48
64
112
176
96
64
16
-32
-64
-64
-64
-80
-112
-160
-96
-48
-16
16
48
48
64
64
96
160
112
64
16
-32
-64
-64
-64
-80
-112
-176
-112
-64
-16
16
32
32
48
64
96
160
96
64
16
-32
-64
-64
-64
-80
-112
-176
-112
-64
-32
0
32
32
48
64
80
160
96
64
0
-32
-64
-64
-80
-80
-112
-176
-112
-64
-32
0
32
32
48
48
80
160
96
64
0
-48
-64
-64
-80
-80
-112
-176
-128
-64
-32
0
32
32
48
48
80
144
96
48
0
-16
16
16
32
32
64
144
96
48
0
-48
-80
-80
-80
-96
-112
-192
-144
-80
-48
-16
16
16
32
48
64
144
96
48
0
-48
-80
-80
-80
-96
-112
-192
-144
-96
-48
-16
16
16
32
48
64
144
112
48
0
-32
-80
-80
-80
-96
-112
-176
-144
-80
-48
-16
16
16
32
48
64
144
112
48
0
-48
-80
-80
-80
-96
-112
-176
-144
-80
-48
-16
16
16
32
32
64
128
112
48
0
-48
-80
-80
-80
-96
-112
-176
-144
-96
-48
-32
-64
-80
-80
-96
-112
-176
-144
-80
-48
-16
16
16
32
48
64
128
112
64
16
-32
-64
-64
-80
-80
-112
-176
-144
-80
-48
-16
16
32
32
48
64
128
128
64
16
-32
-64
-64
-80
-80
-112
-176
-144
-80
-48
-16
16
32
32
48
64
128
128
64
16
-32
-64
-64
-80
-80
-96
-160
-144
-80
-48
-16
16
32
32
48
64
128
128
64
32
-16
-64
-64
-80
-80
-96
-160
-160
-80
-48
-16
16
32
32
48
64
128
128
64
32
-16
16
32
32
48
64
128
144
64
32
-16
-64
-64
-80
-80
-96
-160
-160
-96
-64
-32
16
32
32
48
64
128
144
64
32
-16
-64
-64
-80
-80
-96
-160
-160
-96
-48
-16
16
32
48
48
64
128
144
80
32
-16
16
32
32
48
64
112
144
80
32
-16
-48
-64
-64
-80
-96
-144
-160
-96
-48
-16
16
32
32
48
64
112
144
80
48
-16
-48
-64
-64
-80
-80
-144
-160
-96
-48
-16
16
32
32
48
64
112
144
80
48
0
-48
-64
-64
-80
-80
-144
-160
-96
-48
-16
16
32
32
48
64
112
144
80
48
0
-48
-64
-64
-80
-80
-144
-160
-96
-64
-16
16
32
32
48
64
112
144
80
48
0
-48
-64
-64
-80
-96
-144
-176
-96
-48
-16
16
32
32
48
64
112
144
80
48
0
-48
-64
-64
-80
-96
-144
-176
-96
-64
-32
0
32
32
48
64
112
144
80
48
0
-48
-64
-64
-80
-96
-128
-176
-96
-64
-32
0
32
32
48
64
112
160
80
48
0
-48
-64
-64
-80
-96
-128
-176
-96
-64
-32
0
32
32
48
48
96
144
80
48
0
-48
-64
-64
-80
-96
-128
-176
-96
-64
-32
0
32
32
48
48
96
144
80
48
0
-48
-64
-64
-80
-80
-128
-176
-96
-64
0
-48
-64
-64
-80
-80
-128
-176
-96
-64
-16
0
32
32
48
48
96
160
96
48
0
-48
-64
-64
-80
-80
-128
-176
-112
-64
-32
0
32
32
48
48
96
160
96
48
0
-48
-64
-64
-80
-80
-128
-176
-112
-64
-16
0
32
32
48
64
96
160
96
48
0
-32
-64
-64
-64
-80
-112
-176
-112
-64
-16
0
32
32
48
64
96
160
96
48
0
-32
-64
-64
-64
-80
-112
-176
-112
-64
-32
0
32
32
48
64
96
160
96
64
-32
16
48
48
64
80
96
176
128
80
32
-16
-48
-48
-48
-64
-96
-144
-96
-48
-16
16
48
48
64
80
96
160
112
80
32
-16
-48
-48
-48
-64
-96
-144
-96
-48
-16
16
48
48
64
64
96
160
112
80
32
-16
-48
-48
-64
-64
-96
-160
-96
-64
-32
0
32
48
48
64
80
160
112
64
16
-32
-64
-64
-64
-80
-96
-160
-112
-64
-32
0
32
32
48
48
80
144
112
64
16
-32
-64
-64
-64
-80
-96
-160
-128
-64
16
-16
-64
-64
-64
-80
-96
-160
-128
-64
-32
0
32
32
48
48
80
144
112
64
16
-16
-64
-64
-64
-80
-96
-160
-128
-80
-32
0
32
32
48
48
80
144
112
64
16
-16
-64
-64
-64
-80
-96
-160
-128
-64
32
-16
-64
-64
-64
-80
-96
-160
-128
-80
-32
0
32
32
48
48
64
144
128
64
32
-16
-48
-64
-64
-80
-96
-160
-128
-80
-32
-16
32
32
48
48
64
144
128
64
32
-16
-64
-64
-64
-80
-96
-160
-144
-80
32
-16
-48
-64
-64
-64
-96
-144
-144
-80
-32
0
32
32
48
48
64
128
128
80
32
-16
-48
-64
-64
-64
-80
-144
-144
-80
-32
-16
16
32
48
48
64
128
144
80
32
-16
-48
-48
-64
-64
-80
-144
-144
-80
-32
-16
32
32
48
48
64
128
144
80
32
-16
-48
-64
-64
-64
-80
-144
-144
-80
-48
-16
16
32
48
48
64
128
144
80
32
-16
-48
-64
-64
-64
-80
-144
-144
-80
-48
-16
16
32
48
48
64
128
144
80
-48
-16
16
32
48
48
64
112
144
80
48
0
-48
-64
-64
-64
-80
-128
-144
-80
-48
-16
16
32
48
48
64
112
144
80
48
0
-48
-48
-64
-64
-80
-128
-160
-80
-48
-16
16
32
48
48
64
112
144
80
48
0
-48
-48
-64
-64
-80
-128
-160
-80
-48
-16
16
32
48
48
64
112
144
80
48
0
-48
-48
-64
-64
-80
-128
-144
-80
-48
-16
16
32
48
48
64
112
144
80
48
0
-48
-48
-64
-64
-80
-128
-160
-80
-48
-16
16
32
48
48
64
112
144
80
48
0
-48
-48
-64
-64
-80
-128
-160
-80
-48
-16
16
32
32
48
64
112
144
80
48
0
-48
-64
-64
-64
-80
-128
-160
-80
-48
-16
16
32
48
48
64
112
144
80
-48
-16
16
32
32
48
64
96
144
80
48
0
-32
-64
-64
-64
-80
-112
-160
-96
-48
-16
16
32
32
48
64
96
160
80
48
0
-32
-48
-64
-64
-80
-112
-160
-96
-48
-16
0
32
32
48
64
96
160
96
48
0
-32
-48
-64
-64
-80
-112
-160
-96
-48
-16
16
32
32
48
64
96
160
96
48
0
-32
-48
-64
-64
-80
-112
-160
-96
-48
-16
16
32
32
48
64
96
144
96
48
0
-32
-48
-48
-64
-64
-112
-160
-96
-48
-16
16
32
32
48
48
96
144
96
48
0
-32
-64
-64
-64
-80
-112
-160
-96
-48
-16
16
32
32
48
48
96
144
96
48
16
-32
-48
-64
-64
-80
-96
-160
-96
-48
-16
16
32
32
48
48
80
144
96
48
16
-32
-48
-48
-64
-64
-96
-144
-96
-64
-32
0
32
32
48
48
80
144
96
64
16
-16
-48
-48
-64
-64
-96
-144
-96
-64
-16
0
32
32
48
48
80
144
96
64
16
-16
-48
-48
-48
-64
-96
-144
-96
-48
-16
0
32
32
48
48
80
144
96
64
16
-16
-48
-48
-48
-64
-80
-144
-96
-48
-16
0
32
32
48
48
80
144
96
64
16
-16
-48
-48
-48
-64
-80
-144
-96
-48
-16
0
32
32
48
48
80
144
96
-64
-32
0
32
32
32
48
64
128
96
64
16
-16
-48
-48
-64
-64
-80
-144
-112
-64
-16
0
32
32
32
48
64
128
96
64
16
-16
-48
-48
-64
-64
-80
-144
-112
-64
-32
0
32
32
32
48
64
128
96
64
16
-16
-48
-48
-64
-64
-80
-144
-112
-64
-32
-16
16
32
32
48
64
128
96
64
16
-16
-48
-48
-64
-64
-80
-144
-112
-64
-32
-16
16
32
32
48
64
128
112
64
16
-16
-48
-48
-64
-64
-80
-144
-112
64
32
-16
-48
-48
-48
-48
-64
-112
-96
-32
-16
16
48
64
64
80
96
144
128
80
48
16
-16
-32
-32
-32
-48
-112
-96
-32
-16
16
48
48
64
64
80
144
128
80
48
16
-32
-32
-32
-32
-48
-112
-96
-48
-16
16
32
48
64
64
80
144
128
80
48
0
-32
-32
-48
-48
-64
-112
-96
-48
-16
0
32
48
48
48
64
128
128
64
32
0
-32
-48
-48
-64
-80
-128
-112
-64
-32
-16
16
32
32
48
64
112
112
-64
-32
-16
16
32
32
48
64
112
112
64
32
0
-48
-48
-48
-64
-80
-128
-128
-64
-32
-16
16
32
32
48
48
112
112
64
32
-16
-48
-48
-48
-64
-80
-128
-128
-64
-32
0
16
32
32
48
48
112
112
64
32
0
-48
-48
-48
-64
-64
-128
-128
-64
-32
-16
16
32
32
32
48
112
128
64
32
0
-48
-48
-48
-64
-64
-128
-128
-64
-32
-16
16
32
32
48
48
112
128
64
32
0
-48
-48
-48
-64
-80
-112
-128
64
32
-16
-48
-64
-64
-64
-80
-128
-144
-80
-48
-16
0
16
16
32
32
80
112
64
32
-16
-48
-64
-64
-64
-80
-128
-144
-80
-48
-16
0
16
16
32
32
80
112
64
32
-16
-48
-48
-64
-64
-80
-112
-144
-80
-48
-32
0
16
16
32
48
80
112
64
32
0
-48
-48
-48
-64
-80
-112
-144
-80
-48
-16
0
16
32
32
48
96
128
64
32
0
-48
-48
-48
-64
-80
-112
-144
-80
-48
-16
0
16
32
32
48
96
128
-80
-48
-16
0
16
32
32
48
80
128
64
32
0
-32
-48
-48
-64
-80
-112
-144
-80
-48
-16
0
16
32
32
48
80
128
64
48
0
-32
-48
-48
-64
-64
-112
-144
-80
-48
-32
0
16
32
32
48
80
128
80
48
0
-32
-48
-48
-64
-80
-112
-144
-80
-48
-32
0
16
32
32
48
80
128
80
48
0
-32
-48
-48
-64
-64
-112
-144
-80
-48
-16
0
16
32
32
48
80
128
80
48
0
-32
-48
-48
-64
-64
-112
-144
80
48
0
-32
-48
-48
-64
-64
-96
-144
-96
-48
-16
0
32
32
32
48
80
144
80
48
16
-32
-48
-48
-64
-64
-96
-144
-96
-48
-16
0
16
32
32
48
80
144
80
48
16
-32
-48
-48
-64
-64
-96
-144
-96
-48
-16
0
32
32
32
48
80
144
80
48
0
-32
-48
-48
-64
-64
-96
-160
-96
-64
-16
0
16
32
32
48
80
144
80
48
0
-32
-48
-48
-64
-64
-96
-160
-96
-64
-16
0
32
32
32
48
80
144
96
64
16
-32
-48
-48
-64
-64
-96
-144
-96
-64
-16
0
32
32
48
48
80
144
96
64
16
-16
-48
-48
-64
-64
-96
-144
-96
-64
-32
0
32
32
48
48
80
144
96
64
16
-16
-48
-48
-64
-64
-96
-144
-96
-64
-16
0
32
32
48
48
80
144
96
64
16
-16
-48
-48
-64
-64
-80
-144
-112
-64
-16
0
32
32
48
48
80
144
112
64
16
-16
-48
-48
-48
-64
-80
-144
-112
-64
-32
0
32
32
48
48
80
144
-112
-64
-16
0
32
32
48
48
64
128
112
64
16
-16
-48
-48
-64
-64
-80
-144
-112
-64
-32
0
32
32
32
48
64
128
112
64
32
-16
-48
-48
-48
-64
-80
-144
-112
-64
-32
0
32
32
48
48
64
128
112
64
32
-16
-48
-48
-64
-64
-80
-144
-112
-64
-32
0
32
32
32
48
64
128
112
64
32
-16
-48
-48
-48
-64
-80
-144
-112
-64
-32
0
32
32
48
48
64
128
112
64
32
-16
-48
-48
-64
-64
-80
-144
-112
-64
-32
0
16
32
32
48
64
128
112
64
32
-16
-48
-48
-64
-64
-80
-144
-128
-64
-32
0
16
32
48
48
64
128
112
64
32
-16
-48
-48
-64
-64
-80
-144
-128
-64
-32
-16
16
32
48
48
64
128
-128
-64
-32
-16
16
32
32
48
64
128
128
64
32
-16
-48
-48
-64
-64
-80
-128
-128
-64
-32
0
32
32
48
48
64
128
128
64
32
-16
-48
-48
-48
-64
-80
-128
-128
-64
-32
0
32
32
48
48
64
128
128
64
32
0
-48
-48
-48
-64
-80
-128
-128
-64
-32
0
16
32
48
48
64
112
128
64
32
0
-48
-48
-48
-64
-80
-128
-128
-64
-32
0
16
32
48
48
64
112
128
64
32
0
-48
-48
-48
-64
-80
-128
-128
-64
-32
-16
16
32
32
48
64
112
128
80
48
0
-48
-48
-48
-64
-80
-128
-144
-80
-32
-16
16
32
48
48
64
112
128
80
48
0
-32
-48
-48
-64
-64
-112
-128
-64
-48
-16
16
32
48
48
64
112
128
80
48
0
-32
-48
-48
-64
-64
-112
-144
-64
-48
-16
16
32
32
48
64
96
128
80
48
0
-32
-48
-48
-64
-64
-112
-144
-64
-48
-16
16
32
48
48
64
112
144
80
48
0
-32
-48
-48
-48
-64
-112
-144
-80
-32
-16
16
32
48
48
64
112
144
80
48
0
-32
-48
-48
-48
-64
-112
-144
-64
-32
0
16
32
48
48
64
96
144
80
48
0
-32
-48
-48
-48
-64
-112
-144
-80
-48
-16
16
32
32
48
64
96
-144
-80
-48
-16
16
32
32
48
48
96
144
80
48
0
-32
-48
-48
-48
-64
-96
-144
-80
-48
-16
16
32
32
48
48
96
144
80
48
16
-32
-48
-48
-64
-64
-112
-144
-80
-48
-16
16
32
32
48
64
96
144
80
48
16
-32
-48
-48
-64
-64
-96
-144
-80
-48
-16
16
32
32
48
48
96
144
80
48
16
-32
-48
-48
-48
-64
-96
-144
-80
-48
-16
16
32
32
48
48
80
144
80
48
16
-32
-48
-48
-64
-64
-96
-144
-80
-48
-16
16
32
32
48
48
80
144
80
48
16
-32
-48
-48
-48
-64
-96
-144
-80
-48
-16
16
32
32
48
48
80
144
80
64
16
-32
-48
-48
-48
-64
-96
-144
-80
-48
-16
16
32
32
48
48
80
-144
-96
-48
-16
16
32
32
48
48
80
144
96
64
16
-16
-48
-48
-64
-64
-96
-144
-96
-48
-16
0
32
32
48
48
80
144
96
64
16
-16
-48
-48
-48
-64
-96
-144
-96
-48
-16
0
32
32
48
48
80
144
96
64
16
-16
-48
-48
-48
-64
-96
-144
-96
-48
-16
0
32
32
48
48
80
144
96
64
16
-16
-48
-48
-48
-64
-80
-144
-96
-48
-16
0
32
32
48
48
80
144
96
64
16
-16
-48
-48
-48
-64
-80
128
96
48
16
-16
-48
-48
-64
-64
-80
-144
-96
-64
-32
0
32
32
48
48
64
128
96
48
16
-16
-48
-48
-64
-64
-96
-144
-112
-64
-32
0
32
32
32
48
64
128
96
48
16
-16
-48
-48
-64
-64
-80
-144
-112
-64
-32
0
16
32
32
48
64
128
96
48
16
-16
-48
-48
-64
-64
-80
-144
-112
-64
-16
0
32
32
32
48
64
128
96
64
16
-16
-48
-48
-64
-64
-80
-144
-112
-64
-32
0
32
32
32
48
64
128
96
64
16
-16
-48
-48
-64
-64
-80
-144
-112
-64
-16
0
16
32
32
48
64
128
96
48
16
-16
-48
-48
-64
-64
-80
-144
-112
-64
-32
0
16
32
32
48
64
128
112
64
16
-16
-48
-48
-64
-64
-80
-144
-112
-64
-32
0
32
32
32
48
64
128
112
64
32
-16
-48
-48
-64
-64
-80
-144
-112
-64
-32
0
16
32
32
48
64
128
112
64
32
-16
-48
-48
-64
-64
-80
-144
-112
-64
-32
0
16
32
32
48
64
-144
-112
-64
-32
-16
16
32
32
48
64
112
112
64
32
-16
-48
-48
-48
-64
-80
-128
-128
-64
-32
0
16
32
32
48
48
112
112
64
32
-16
-48
-48
-48
-64
-80
-128
-128
-64
-32
0
16
32
32
48
64
112
112
64
32
-16
-48
-48
-48
-64
-80
-128
-128
-64
-32
-16
16
32
32
48
64
112
112
64
32
-16
-48
-48
-48
-64
-80
-128
-128
-64
-32
-16
16
32
32
48
64
112
128
64
32
0
-48
-48
-64
-64
-80
112
128
64
32
-16
-48
-48
-64
-64
-80
-128
-128
-64
-32
-16
16
32
32
48
48
112
128
64
32
-16
-48
-48
-64
-64
-80
-128
-128
-64
-32
0
16
32
32
32
48
112
128
64
32
0
-48
-48
-48
-64
-80
-128
-128
-64
-32
-16
16
32
32
32
48
96
128
64
32
0
-48
-48
-64
-64
-80
-128
-128
-80
-48
-16
16
32
32
48
48
96
128
64
32
0
-48
-48
-64
-64
-80
-128
-144
-80
-48
-16
16
32
32
48
48
96
128
80
48
0
-32
-48
-48
-64
-64
-112
-144
-80
-48
-16
16
32
32
48
48
96
128
64
48
0
-32
-48
-48
-64
-64
-112
-144
-80
-48
-16
16
32
32
48
48
96
128
64
48
0
-32
-48
-48
-64
-64
-112
-144
-80
-48
-16
16
32
32
32
48
96
128
64
48
0
-32
-48
-48
-64
-64
-112
-144
-80
-48
-32
0
32
32
48
48
96
128
80
48
0
-32
-48
-48
-48
-64
-96
-144
-80
-48
-16
0
32
32
48
48
-96
-144
-80
-48
-16
0
32
32
48
48
80
128
80
48
0
-32
-48
-48
-64
-64
-96
-144
-80
-48
-16
16
32
32
48
48
80
144
80
48
16
-32
-48
-48
-48
-64
-96
-144
-80
-48
-16
16
32
32
48
48
-96
-144
-80
-48
-16
0
32
32
48
48
80
144
80
48
16
-16
-48
-48
-48
-64
-80
-144
-80
-48
-16
0
32
32
48
48
80
144
80
48
16
-16
-48
-48
-48
-64
-96
-144
-80
-48
-16
0
32
32
48
48
80
128
80
48
16
-32
-48
-48
-48
-64
-96
-144
-80
-48
-16
16
32
32
48
48
80
128
96
48
16
-32
-48
-48
-48
-64
-80
-144
-80
-48
-16
0
32
32
32
48
80
128
80
48
16
-16
-48
-48
-48
-64
-80
-144
-80
-48
-16
0
32
32
48
48
80
128
96
48
16
-16
-48
-48
-48
-64
-80
-144
-96
-48
-16
0
32
32
48
48
64
128
96
48
16
-16
-48
-48
-48
-64
-80
-144
-96
-48
-16
0
32
32
48
48
-80
-128
-96
-48
-16
0
32
32
48
48
64
128
96
64
16
-16
-48
-48
-48
-64
-80
-128
-96
-48
-16
0
32
32
32
48
64
128
96
64
16
-16
-48
-48
-48
-64
-80
-128
-96
-48
-16
0
32
32
48
48
64
128
96
64
16
-16
-48
-48
-48
-64
-80
-128
-96
-48
-16
0
16
32
32
48
64
128
96
64
16
-16
-48
-48
-48
-64
-80
-128
-96
-48
-16
0
32
32
48
48
64
128
96
64
16
-16
-48
-48
-48
-64
64
128
96
48
16
-16
-48
-48
-48
-64
-80
-128
-112
-48
-16
0
16
32
32
48
64
128
96
48
16
-16
-48
-48
-48
-64
-80
-128
-112
-64
-32
0
16
32
32
48
64
128
112
64
16
-16
-48
-48
-48
-64
64
128
112
64
32
0
-32
-48
-48
-48
-64
-128
-112
-64
-32
0
32
32
32
48
64
112
112
64
32
0
-48
-48
-48
-64
-64
-128
-112
-64
-32
0
16
32
32
48
64
112
112
64
32
0
-48
-48
-48
-64
-64
-128
-112
-48
-32
0
32
32
32
48
64
112
112
64
32
-16
-48
-48
-48
-48
-64
-128
-112
-64
-32
0
16
32
32
48
64
112
112
64
32
0
-48
-48
-48
-48
-80
-128
-112
-64
-32
-16
16
32
32
48
-64
-112
-112
-64
-32
-16
16
32
32
48
48
112
112
64
32
0
-48
-48
-48
-48
-64
-112
-112
-64
-32
0
16
32
32
48
48
112
112
64
32
0
-32
-48
-48
-48
-64
-112
-112
-64
-16
0
16
32
32
48
48
112
128
64
32
0
-32
-48
-48
-48
-64
-112
-112
-64
-32
-16
16
32
32
48
48
112
128
64
32
0
-32
-48
-48
-48
-64
-112
-128
-64
-32
0
16
32
32
48
64
112
128
64
32
0
-32
-48
-48
-48
48
96
128
64
48
0
-32
-48
-48
-48
-64
-112
-128
-64
-32
-16
16
32
32
48
48
96
128
64
32
0
-32
-48
-48
-48
-64
-112
-128
-64
-32
0
16
32
32
48
48
96
128
80
48
0
-32
-48
-48
-48
-64
-112
-128
-64
-32
-16
16
32
32
32
48
96
128
64
48
0
-32
-48
-48
-48
-64
-96
-128
-64
-32
-16
16
32
32
48
48
96
128
80
48
0
-32
-48
-48
-48
-64
-96
-128
-64
-32
-16
16
32
32
48
-64
-96
-128
-64
-48
-16
16
32
32
48
48
96
128
80
48
0
-32
-48
-48
-48
-64
-96
-128
-80
-32
-16
16
32
32
48
48
80
128
80
48
0
-32
-48
-48
-48
-64
-96
-128
-64
-32
-16
16
32
32
48
48
80
128
80
48
0
-32
-48
-48
-48
-64
-96
-144
-80
-48
-16
16
32
32
32
48
80
128
80
48
0
-32
-48
-48
-48
-64
-96
-128
-80
-48
-16
16
32
32
48
48
80
128
80
48
16
-32
-48
-48
-48
-64
-96
-128
-80
-48
-16
0
32
32
48
48
80
128
80
48
16
-16
-48
-48
-48
-64
-80
-128
-80
-48
-16
0
32
32
48
48
80
128
80
48
16
-16
-48
-48
-48
-64
-80
-128
-80
-48
-16
16
32
32
48
-48
-80
-128
-80
-48
-16
16
32
32
48
48
80
128
96
64
16
-16
-48
-48
-48
-64
-80
-128
-80
-48
-16
0
32
32
48
48
80
128
96
64
16
-16
-48
-48
-48
-48
-80
-128
-80
-48
-16
0
32
32
48
48
80
128
96
64
16
-16
-48
-48
-48
-64
-80
-128
-80
-48
-16
0
32
32
48
48
64
128
96
48
16
-16
-48
-48
-48
-64
-80
-128
-96
-48
-16
0
32
32
48
48
64
128
96
64
16
-16
-48
-48
-48
48
64
128
96
48
16
-16
-48
-48
-48
-64
-80
-128
-96
-48
-16
0
32
32
32
48
64
128
96
48
16
-16
-48
-48
-48
-64
-80
-128
-96
-48
-16
0
32
32
32
48
64
128
96
48
16
-16
-48
-48
-48
-64
-80
-128
-96
-48
-32
0
16
32
32
48
64
128
96
64
16
-16
-48
-48
-48
-64
-80
-128
-96
-64
-32
0
16
32
32
48
64
128
96
48
16
-16
-48
-48
-48
-64
-80
-128
-96
-64
-32
0
32
32
32
-64
-80
-128
-96
-48
-32
0
32
32
32
48
64
112
96
48
16
-16
-48
-48
-48
-64
-80
-128
-96
-48
-32
0
16
32
32
48
64
112
96
64
32
-16
-48
-48
-48
-48
-64
-128
-96
-48
-16
0
16
32
32
48
64
112
112
64
32
-16
-48
-48
-48
-48
-64
-128
-112
-64
-32
0
16
32
48
48
64
128
112
64
32
-16
-32
-48
-48
-48
-64
-112
-96
-48
-16
0
32
32
48
48
64
112
112
64
32
-16
-48
-48
-48
-48
-64
-112
-112
-48
-16
0
32
32
48
48
64
112
112
64
32
0
-32
-48
-48
-48
-64
-112
-112
-64
-32
0
32
32
48
48
64
112
112
64
32
0
-32
-32
-48
-48
-64
-112
-112
-48
-16
0
32
32
48
48
64
112
112
64
32
0
-32
-32
-48
-48
-64
-112
-112
-48
-16
0
16
32
48
48
64
112
112
64
32
0
-32
-32
-48
-48
-64
-112
-112
-48
-16
0
16
32
48
48
64
112
112
64
32
0
-32
-32
-48
48
64
112
112
64
32
0
-32
-32
-48
-48
-64
-112
-112
-48
-32
0
16
32
32
48
48
112
112
64
32
0
-32
-32
-48
-48
-64
-112
-112
-64
-32
-16
16
32
48
48
64
112
128
64
48
0
-32
-48
-48
-48
-64
-96
-112
-48
-32
0
16
32
48
48
64
112
112
64
32
0
-32
-32
-48
-48
-64
-112
-112
-64
-32
-16
16
32
32
48
64
112
128
64
48
0
-32
-32
-48
-48
-64
-96
-112
-64
-32
0
16
32
32
48
48
96
128
64
48
0
-32
-32
-48
-48
-64
-112
-112
-64
-32
0
16
32
32
48
48
96
128
64
32
0
-32
-48
-48
-48
-64
-96
-112
-64
-32
0
16
32
32
48
64
96
128
64
48
0
-32
-32
-48
48
48
96
128
64
48
0
-32
-32
-32
-48
-48
-96
-112
-64
-32
0
16
32
32
48
48
96
128
64
48
0
-32
-32
-48
-48
-48
-96
-112
-64
-32
0
16
32
32
48
48
96
128
64
48
0
-32
-32
-48
-48
-64
-96
-128
-64
-32
0
16
32
32
48
48
96
128
64
48
0
-32
-32
-48
-48
-64
-96
-112
-64
-32
-16
16
32
32
48
48
96
128
64
48
0
-32
-32
-48
-48
-48
-96
-112
-64
-32
-16
16
32
32
-48
-48
-80
-112
-64
-32
0
16
32
32
48
48
80
128
80
48
16
-16
-32
-48
-48
-48
-80
-128
-64
-32
-16
16
32
32
48
48
80
128
80
48
16
-16
-32
-48
-48
-64
-80
-128
-64
-32
-16
16
32
32
-48
-48
-80
-128
-64
-32
0
16
32
32
48
48
80
128
80
48
16
-32
-48
-48
-48
-48
-80
-128
-64
-32
-16
0
32
32
48
48
80
128
80
48
16
-16
-32
-32
-48
-48
-80
-128
-64
-32
-16
16
32
32
48
48
80
128
80
48
16
-16
-48
-48
-48
-48
-80
-128
-64
-48
-16
16
32
32
48
48
80
128
80
48
16
-16
-32
-48
-48
-48
-80
-128
-80
-48
-16
16
32
32
48
48
80
128
80
48
16
-16
-48
-48
32
48
64
128
80
48
16
-32
-48
-48
-48
-64
-80
-128
-80
-48
-16
0
16
32
32
48
64
128
80
48
16
-16
-48
-48
-48
-64
-80
-128
-80
-48
-16
0
32
32
32
48
64
128
80
48
16
-16
-48
-48
-48
-64
-80
-128
-80
-48
-16
0
32
32
32
48
64
128
80
48
16
-16
-48
-48
-48
-48
-80
-128
-80
-48
-16
0
32
32
32
48
64
128
80
48
16
-16
-48
-48
-48
-48
-80
-128
-80
-48
-16
0
32
32
-48
-48
-80
-128
-80
-48
-16
0
32
32
32
48
64
128
80
48
16
-16
-48
-48
-48
-48
-80
-128
-80
-48
-16
0
32
32
32
48
64
128
96
48
16
-16
-48
-48
-48
-48
-64
-128
-80
-48
-16
0
32
32
32
48
64
112
96
48
16
-16
-48
-48
-48
-48
-80
-128
-96
-48
-16
0
16
32
32
48
64
112
96
48
16
-16
-48
-48
-48
-48
-64
-128
-96
-48
-16
0
32
32
32
48
48
112
96
48
16
-16
-48
-48
32
48
64
112
96
48
16
-16
-48
-48
-48
-48
-64
-128
-96
-48
-16
0
32
32
32
32
48
112
96
48
16
-16
-48
-48
-48
-48
-64
-128
-96
-48
-16
0
16
16
32
48
48
112
96
48
16
-16
-48
-48
-48
-48
-64
-128
-96
-48
-32
0
16
32
32
32
48
112
96
48
16
-16
-48
-48
-48
-48
-64
-112
-96
-48
-16
0
16
32
32
32
48
112
96
48
16
-16
-48
-48
-48
-48
-64
-112
-96
-48
-16
0
16
32
-48
-48
-64
-112
-96
-48
-32
0
16
32
32
48
48
112
96
48
16
-16
-48
-48
-48
-48
-64
-112
-96
-48
-32
-16
16
32
32
48
48
112
96
48
32
0
-32
-32
-48
-48
-64
-112
-96
-48
-16
0
16
32
32
48
48
112
112
64
32
0
-32
-48
-48
-48
-64
-112
-112
-48
-32
0
16
32
32
48
48
112
112
64
32
0
-32
-32
-48
-48
-64
-112
-112
-48
-32
0
32
32
32
48
48
96
112
64
32
0
-32
-32
-48
-48
-64
-112
-112
-48
-32
0
16
32
32
48
48
96
112
64
32
0
-32
-48
-48
-48
-64
-112
-112
-64
-32
-16
16
32
32
32
48
96
112
48
32
0
-32
-48
-48
-48
-64
-112
-112
-64
-32
0
16
32
-48
-48
-64
-112
-112
-64
-32
0
16
32
32
32
48
96
112
64
32
0
-32
-48
-48
-48
-64
-112
-112
-64
-32
-16
16
32
32
32
48
96
112
64
32
0
-32
-48
-48
-48
-64
-96
-112
-64
-32
0
16
32
32
32
48
96
112
64
32
0
-32
-48
-48
-48
-64
-96
-112
-64
-32
-16
16
32
32
32
48
96
112
64
32
0
-32
-48
-48
-48
-64
-96
-112
-64
-32
-16
16
32
32
48
48
96
112
64
32
0
-32
-48
32
32
48
80
112
64
32
0
-32
-48
-48
-48
-64
-96
-112
-64
-32
0
16
32
32
32
48
80
112
64
32
0
-32
-48
-48
-48
-64
-96
-112
-64
-32
0
16
32
32
32
48
80
112
64
32
0
-32
-32
32
32
48
80
112
64
32
0
-32
-48
-48
-48
-48
-80
-112
-64
-32
-16
16
32
32
32
48
80
112
64
48
16
-16
-32
-32
-48
-48
-80
-112
-64
-32
-16
16
32
32
32
48
80
112
64
48
0
-16
-32
-32
-48
-48
-80
-112
-64
-32
-16
16
32
32
32
48
80
112
64
48
0
-16
-32
-32
-48
-48
-80
-112
-64
-32
-16
16
32
32
32
48
80
128
64
48
0
-16
-32
-32
-48
-48
-80
-112
-64
-32
0
16
32
32
48
48
80
112
64
48
0
-16
-32
-32
-48
-48
-80
-112
-64
-32
0
16
32
32
32
48
80
112
64
48
0
-16
-32
-32
-48
-48
-80
-112
-64
-32
0
16
32
32
48
48
80
128
80
48
16
-16
-32
32
48
48
80
128
80
48
16
-16
-32
-32
-48
-48
-80
-112
-64
-32
-16
16
32
32
48
48
80
128
80
48
16
-16
-32
-32
-48
-48
-80
-112
-64
-32
-16
16
32
32
48
48
80
128
80
48
16
-16
-32
32
32
48
64
128
80
48
16
-16
-32
-32
-48
-48
-80
-112
-64
-32
-16
16
32
32
32
48
64
112
80
48
16
-16
-32
-32
-48
-48
-64
-112
-80
-48
-16
0
32
32
48
48
64
112
80
48
16
-16
-32
32
48
48
64
128
80
48
16
-16
-32
-32
-32
-48
-64
-112
-80
-32
-16
0
32
32
48
48
64
128
80
48
16
-16
-32
-32
-48
-48
-64
-112
-80
-32
-16
16
32
32
48
48
64
128
80
48
16
-16
-32
-32
-32
-48
-64
-112
-80
-32
-16
0
32
32
32
48
64
128
80
48
16
-16
-32
-32
-48
-48
-64
-112
-80
-48
-16
0
32
32
32
48
64
112
80
48
16
-16
-32
-32
-48
-48
-64
-112
-80
-48
-16
0
32
-48
-48
-48
-64
-112
-80
-48
-16
0
16
32
32
48
64
112
80
48
16
-16
-32
-32
-48
-48
-64
-112
-80
-48
-16
0
32
32
32
48
64
112
96
48
16
-16
-32
-32
-48
-48
-64
-112
-80
-48
-16
0
32
32
32
48
64
112
96
48
16
-16
-32
-32
-48
-48
-64
-112
-96
-48
-16
0
32
32
32
48
64
112
96
48
16
-16
-32
-32
-48
-48
-64
-112
-80
-48
-16
0
16
32
32
48
64
112
96
48
16
-16
-32
-32
-48
-48
-64
-112
-80
-48
-16
0
32
32
32
48
48
112
96
48
16
0
-32
-32
-48
-48
-64
-112
-80
-48
-16
0
16
32
32
32
48
96
80
48
16
-16
-32
-48
-48
-48
-64
-112
-96
-48
-16
0
16
16
32
32
48
96
80
48
16
-16
-48
-48
-48
-48
-64
-112
-96
-48
-16
0
16
16
32
32
48
96
80
48
16
-16
-48
-48
-48
-48
-64
-112
-96
-48
-16
0
16
32
32
32
48
96
80
48
16
-16
-32
32
32
32
48
96
96
48
16
0
-32
-32
-48
-48
-64
-96
-96
-48
-16
0
16
32
32
32
48
96
96
48
16
-16
-32
-32
-48
-48
-64
-96
-96
-48
-16
0
16
32
32
32
48
96
96
48
16
0
-32
-32
-48
-48
-48
-96
-96
-48
-16
0
16
32
32
32
48
96
96
48
32
0
-32
-32
-32
-48
-48
-96
-96
-48
-16
0
16
32
32
32
48
96
96
48
32
0
-32
-32
-32
-48
-64
-96
-96
-48
-16
0
16
-32
-32
-48
-48
-96
-96
-48
-16
0
16
32
32
32
48
96
96
48
32
0
-32
-32
-32
-48
-48
-96
-96
-48
-32
0
16
32
32
32
48
80
96
48
32
0
-32
-32
-32
-48
-48
-96
-96
-48
-16
0
16
32
32
32
48
80
96
48
32
0
-32
-32
-32
-32
-48
-80
-96
-48
-32
-16
16
32
32
32
48
80
96
48
32
0
-32
-32
-32
-48
-48
-80
-96
-48
-16
0
16
16
32
32
48
80
96
48
32
0
-32
16
32
32
48
80
96
48
32
0
-32
-32
-32
-48
-48
-80
-96
-48
-16
0
16
32
32
32
48
80
96
48
32
0
-32
-32
-32
-32
-48
-80
-96
-48
-32
0
16
32
32
32
32
80
96
48
32
0
-32
16
32
32
32
80
96
48
32
0
-32
-32
-48
-48
-48
-80
-96
-48
-32
0
16
16
32
32
32
80
96
48
32
0
-32
-32
-32
-32
-48
-80
-96
-48
-32
-16
16
16
32
32
32
80
96
48
32
0
-32
-32
-32
-32
-48
-80
-96
-48
-16
0
16
32
32
32
32
64
96
48
32
0
-32
-32
-32
-32
-48
-80
-96
-48
-16
0
16
16
32
32
32
64
96
48
32
0
-32
-32
-32
-32
-48
-80
-96
-48
-32
0
16
-32
-32
-32
-48
-64
-96
-48
-32
0
16
32
32
32
48
64
96
64
32
0
-16
-32
-32
-32
-48
-64
-96
-48
-32
0
16
32
32
32
48
64
96
64
32
16
-16
-32
-32
-32
-48
-64
-96
-48
-32
-16
16
-32
-32
-32
-48
-64
-96
-48
-32
-16
16
16
32
32
32
64
96
64
32
0
-16
-32
-32
-32
-48
-64
-96
-48
-32
-16
0
16
32
32
32
64
96
48
32
0
-16
-32
-32
-32
-48
-64
-96
-48
-32
0
16
16
32
32
32
64
96
48
32
0
-16
-32
-32
-32
-48
-64
-96
-48
-32
-16
16
16
32
32
32
64
96
48
32
0
-16
-32
-32
-32
-48
-64
-96
-48
-32
-16
0
16
16
32
32
64
96
48
32
0
-16
16
32
32
32
64
96
64
32
0
-16
-32
-32
-32
-32
-64
-96
-48
-32
-16
0
16
32
32
32
64
96
64
32
16
-16
-32
-32
-32
-32
-64
-96
-48
-32
-16
0
16
32
32
32
64
96
64
32
16
-16
-32
-32
-32
-48
-64
-96
-48
-32
-16
0
16
32
32
32
48
96
64
32
16
-16
-32
-32
-32
-32
-64
-96
-48
-32
-16
16
16
32
32
32
64
96
64
32
16
-16
-32
-32
-32
-48
-64
-96
-48
-32
-16
0
16
32
32
32
64
96
64
48
16
-16
-32
-32
-32
-48
-64
-96
-48
-32
0
16
16
32
32
32
64
96
64
48
16
-16
-32
-32
-32
-32
-64
-96
-48
-32
-16
0
16
32
32
32
48
96
64
32
16
-16
16
32
32
32
48
96
64
48
16
-16
-32
-32
-32
-32
-48
-96
-48
-32
-16
0
16
32
32
32
48
96
64
48
16
-16
-32
-32
-32
-32
-48
-96
-48
-32
-16
16
32
32
32
32
48
96
64
48
16
-16
-32
-32
-32
-32
-48
-96
-64
-32
-16
0
16
32
32
32
48
96
64
48
16
-16
-32
-32
-32
-48
-48
-96
-64
-32
-16
0
16
32
32
32
48
96
64
48
16
-16
-32
-32
-32
-32
-48
-96
-64
-32
-16
0
-32
-32
-32
-48
-48
-96
-64
-32
-16
0
16
16
32
32
48
96
64
32
16
-16
-32
-32
-32
-48
-48
-96
-64
-32
-16
0
16
16
32
32
48
96
64
32
16
-16
-32
-32
-32
-48
-64
-96
-64
-32
-16
0
16
16
32
32
48
80
64
32
16
-16
-32
-32
-32
-48
-48
-96
-64
-32
-16
0
16
16
32
32
48
96
64
32
16
-16
-32
-32
-32
-48
-48
-96
-64
-32
0
0
16
16
32
32
48
96
64
32
16
-16
-32
-32
-32
-48
-48
-96
-64
-32
-16
0
16
16
32
32
48
96
64
32
16
-16
-32
-32
-32
-48
-48
-96
-64
-32
-16
0
16
16
32
32
32
80
64
32
16
-16
-32
-32
-32
-48
-48
-96
-64
-32
-16
0
-32
-32
-48
-48
-48
-96
-64
-32
-16
0
16
16
32
32
48
80
64
32
16
-16
-32
-32
-32
-48
-48
-96
-64
-32
-16
0
16
16
32
32
32
80
64
32
16
-16
-32
-32
-32
-48
-48
-96
-80
-48
-16
0
16
16
32
32
32
80
64
32
16
-16
-32
-32
-32
-48
-48
-96
-80
-48
-16
0
16
16
16
32
32
80
64
32
16
-16
-32
-32
-32
-48
-48
-96
-80
-48
-16
0
16
16
32
32
48
96
80
48
16
0
16
32
32
32
48
80
80
48
16
0
-32
-32
-32
-32
-48
-80
-64
-32
-16
0
16
32
32
32
48
80
80
48
16
0
-32
-32
-32
-32
-48
-80
-64
-32
-16
0
16
32
32
32
48
80
80
48
32
0
16
32
32
32
48
80
80
48
16
0
-32
-32
-32
-32
-48
-80
-80
-32
-16
0
16
16
32
32
48
80
80
48
16
0
-32
-32
-32
-32
-48
-80
-80
-32
-16
