0
0
0
0
0
0
-16
-16
-16
-16
-16
-16
-16
-16
-16
-16
0
0
-16
-16
-16
0
0
0
0
0
0
0
0
0
0
-16
-16
-16
-16
-16
-16
-16
-16
0
0
0
0
0
0
0
0
0
0
0
0
-16
-16
-16
-16
-16
-16
-16
-16
-16
0
0
0
0
0
0
0
0
-16
-16
-16
-32
-32
-16
-16
-16
-16
-16
-16
0
0
0
0
0
0
0
0
0
-16
-16
-16
-16
-16
-16
-16
-16
-16
-16
0
0
0
0
0
0
0
0
0
0
0
0
-16
-16
-16
-16
-16
-16
-16
-16
0
0
0
0
0
0
-16
0
0
0
0
0
0
-16
-16
-16
-16
-16
-16
-16
-16
-16
0
16
16
0
0
0
0
0
0
-16
-16
-16
-16
-16
-16
-16
-16
-16
-16
-16
-16
-16
0
0
0
0
0
0
-16
-16
-16
-16
-16
-16
-16
-16
-16
0
0
0
0
0
0
0
0
0
0
0
0
0
-16
-16
-16
-16
-16
-16
-16
-16
-16
-16
-16
-16
0
0
0
0
0
0
0
-16
-16
-16
-16
-16
-16
-16
-16
-16
0
0
0
16
0
0
0
16
16
0
-16
-16
-16
-16
-16
-16
0
0
-16
-16
-16
-16
-16
-16
-16
-16
-16
-16
-16
-16
-16
-16
-16
-16
-16
-16
0
16
16
16
16
0
0
0
0
0
-16
-16
0
-16
-16
-16
-16
-16
-16
-16
-16
-16
-16
-16
-16
-16
-16
0
0
0
0
0
0
0
0
0
-16
0
-16
-32
-32
-32
-32
-16
0
0
16
0
0
0
-16
-16
-16
0
0
0
0
-16
0
0
0
-16
-16
-16
-16
-16
-16
-16
0
0
0
0
0
0
0
0
0
-16
-16
0
-16
-16
-16
-16
0
-16
-16
-16
-16
-16
-16
-16
0
0
0
0
0
0
-16
-16
-16
-16
-16
-16
-16
-16
-16
0
0
0
0
0
0
0
0
0
0
0
0
-16
-16
-32
-32
-16
-16
-16
0
-16
0
0
0
0
0
0
-16
-16
-16
-16
-16
-32
-32
-32
-16
-16
-16
0
0
0
0
0
0
0
0
0
0
0
0
-16
-16
0
-16
-16
-16
-16
-16
-16
-16
-16
-16
0
0
0
0
0
-16
-16
-16
-16
0
0
0
0
-16
-16
0
0
0
0
0
0
0
0
-16
0
0
0
0
0
-16
-16
-16
-16
-16
-16
-16
-16
-16
-16
0
0
0
0
0
0
0
0
-16
-16
-16
-16
-16
-16
-16
-16
-16
-16
-16
-16
0
0
0
0
0
0
0
-16
-16
-16
-16
-16
-16
-16
-16
-16
-16
-16
-16
0
0
0
0
0
0
0
0
-16
-16
-16
0
0
0
0
0
0
-16
-16
-16
-16
-16
-16
0
-16
-16
-16
-16
-16
0
0
0
0
0
0
-16
-16
-16
-16
-16
-16
0
0
0
0
0
0
0
-16
-16
-16
-16
-16
-16
-16
-16
-16
-16
-16
-16
0
0
0
0
0
0
0
0
0
0
0
0
-16
-16
-16
-16
-16
-16
0
0
-16
0
0
0
0
0
0
0
0
0
0
0
-16
-16
-16
-16
-16
0
0
-16
-16
-16
-16
0
0
0
0
0
0
-16
-16
-16
-16
-16
-16
-16
-16
-16
-16
0
0
0
0
0
0
0
0
0
0
0
0
-16
-16
-16
-16
-16
0
-16
-16
-16
-16
-16
-16
-16
0
0
0
0
0
-16
-16
-32
-32
-32
-32
-32
-16
0
16
0
0
0
0
16
16
16
16
16
0
0
-16
-16
-16
-16
-16
-16
-16
-16
-16
-16
0
0
0
0
0
0
0
0
0
0
0
-16
-16
-16
-16
-16
-16
-16
-16
-16
0
0
-16
0
0
0
-16
-16
-16
-16
-16
0
0
-16
-16
-16
-16
-32
-32
-16
-16
-16
0
0
0
-16
-16
-16
-16
0
0
0
0
0
0
0
-16
-16
-16
-16
-16
-16
0
0
0
-16
-16
0
0
0
0
0
0
0
-16
-16
-16
-16
-32
-16
0
0
0
0
0
0
0
0
0
-16
-16
-16
-16
-16
-16
-16
0
0
0
0
0
0
0
0
0
0
0
0
0
0
-16
-16
-16
-16
-16
-16
-16
-16
-16
-16
-16
-16
0
0
0
0
0
0
-16
-16
-16
-32
-32
-16
-16
-16
0
0
0
0
0
0
0
0
0
0
0
0
0
-16
-16
-16
-16
-16
-32
-16
0
0
0
0
0
0
0
-16
0
0
0
0
0
0
0
-16
-16
-16
-16
-16
-16
-16
0
0
0
0
0
0
0
0
0
0
0
-16
0
0
0
-16
-16
-16
-16
-16
-16
0
0
0
0
0
0
0
0
0
0
-16
-16
-16
-16
-16
-16
-16
-16
-16
-16
-16
-16
-16
0
0
0
0
0
0
0
0
-16
0
-16
-16
-16
-16
-16
-16
-16
-16
0
0
0
0
0
0
0
0
0
0
-16
-16
-16
-16
-16
-32
-16
-16
0
0
0
0
0
0
0
0
0
0
0
-16
-16
-16
-16
-16
-16
0
0
-16
-16
-16
-16
0
0
0
0
-16
0
0
0
0
0
0
0
0
-16
-16
-16
0
0
0
0
0
0
0
0
0
0
0
-16
0
0
0
-16
-16
-16
-16
-16
-16
-16
-16
0
0
0
0
0
0
0
0
-16
-16
-16
-16
-16
-16
-16
-16
-16
-16
-16
-16
0
0
0
0
0
0
0
0
0
0
0
0
-16
-16
0
0
0
-16
-16
-16
-16
-16
0
0
0
0
0
0
0
0
0
0
0
0
0
0
0
0
0
-16
-16
-16
-16
-16
-16
-16
-16
0
0
0
0
0
0
0
0
0
0
0
0
-16
-16
0
-16
-16
-16
-16
-16
-16
-16
-16
0
0
0
0
0
0
0
0
-16
-16
-16
-16
-16
-16
-16
-16
-16
-16
-16
-16
0
0
0
0
0
16
16
0
0
0
-16
-16
-16
-32
-16
-16
-16
-16
-16
0
0
-16
-16
-16
-16
0
0
0
0
0
-16
-16
-16
-16
-16
-16
-16
-16
-16
-16
-16
-16
-16
-16
-16
-16
0
16
0
0
0
0
0
0
0
0
-16
-16
-16
-16
-16
0
0
0
0
0
0
0
-16
-16
-16
-16
-16
-16
-16
0
0
-16
0
0
-16
-16
-16
-16
-16
-16
0
0
0
0
0
0
0
0
0
16
0
0
-16
-16
-16
-16
0
-16
-16
-16
-32
-16
-16
-16
-16
-16
0
0
0
-16
-16
0
0
0
-16
-16
0
0
0
0
-16
-16
0
0
-16
-16
-16
-16
-16
-16
-16
-16
-16
-16
-16
-16
0
0
0
0
-16
-32
-32
-32
-32
-32
-32
-16
0
0
16
16
0
0
0
0
-16
-16
-16
0
16
0
16
16
16
0
0
0
0
0
-16
-32
-32
-32
-32
0
0
0
16
0
0
-16
-16
-16
0
0
-16
0
0
-16
-16
-16
-16
-16
0
16
16
16
16
16
0
0
-16
-16
-48
-64
-48
-48
-48
-32
-16
16
32
32
32
32
16
16
-16
-48
-32
-16
-32
-48
-48
-32
-48
-32
0
48
0
-16
0
32
32
16
0
0
-32
-48
-32
0
32
48
0
-16
-48
-48
-48
-32
0
-16
16
16
0
-32
-32
0
0
0
16
0
-16
0
-16
0
16
-16
0
32
0
-48
-64
-64
-48
-32
0
32
16
-32
-48
-64
-48
-16
32
32
48
32
0
16
16
48
64
32
0
0
0
16
48
32
-16
-96
-96
-32
0
16
64
80
32
-32
-64
-48
-32
-32
-32
-32
-16
-48
-16
48
16
-16
0
16
16
-16
-64
-96
-48
-48
-32
-16
-16
-48
-32
32
96
112
48
16
16
32
-16
-32
-16
-16
16
-16
0
32
-16
-48
16
64
48
16
-16
-64
-80
-96
-32
32
16
0
-16
0
16
48
48
-32
-96
-80
-64
-32
32
112
64
-32
-80
-32
-32
16
32
32
16
48
48
-16
-16
-48
-64
-32
-64
-32
32
0
-64
-64
-64
-96
-64
-48
16
80
80
48
16
32
32
32
32
16
-48
-64
-32
0
-32
0
112
160
176
48
-64
-144
-64
-32
-80
-80
-64
-32
-32
-32
96
32
-112
-128
-64
-48
64
176
128
80
32
16
48
-16
-64
-16
-64
-112
-128
-96
-32
64
128
64
16
-64
32
144
16
-48
80
80
-16
-48
-48
-16
16
-32
-80
-48
-48
-32
16
16
32
80
16
0
16
80
160
144
64
-64
-144
-176
-224
-144
-64
-16
80
96
-16
-80
-112
-48
-48
-80
16
48
16
-32
-48
0
64
96
160
160
64
-160
-224
-32
128
144
80
48
-64
-64
-80
-80
16
48
-80
-80
-16
-32
16
0
144
160
32
-48
48
0
-48
-96
-128
-96
-96
0
32
-64
-64
0
112
32
32
0
16
80
-96
-272
-176
0
144
64
-128
-288
-224
-64
112
224
96
-64
-128
-128
-128
-48
32
48
112
16
-112
-144
-32
144
208
-16
-128
-96
16
-80
-176
-112
0
96
112
64
0
48
16
0
16
32
-16
-64
-80
-32
0
-48
-144
0
80
32
0
128
240
16
-128
-48
0
16
-16
-96
-80
16
0
0
0
16
-64
-144
-96
-64
16
96
-80
-48
96
80
-64
-96
-64
-96
-64
16
96
32
16
80
0
-32
32
0
-16
0
-32
-48
-96
-112
16
64
0
-32
64
0
-64
-64
-48
-112
-32
240
256
-48
-80
-80
-80
-64
-128
-96
32
16
-112
0
48
128
32
-16
64
176
16
-16
32
48
-48
0
32
-48
-144
-112
-32
32
64
64
-48
-80
16
-112
-208
-96
208
192
144
96
48
-144
-208
-112
-80
-80
32
144
64
-64
-48
32
112
272
144
-144
-128
-48
-32
48
0
-160
-272
-96
192
160
-32
-96
-80
-16
112
64
0
32
144
32
-32
48
32
-16
-80
-32
-32
-112
-176
-176
16
176
128
0
112
144
-32
-80
-80
-80
-192
-80
-48
80
48
-64
-80
0
64
16
0
32
160
0
-80
-64
-112
-64
32
160
-96
-176
-176
-160
112
240
96
48
112
112
-96
-144
-16
96
96
-128
-208
-144
32
96
48
0
16
16
-16
-64
-80
-80
-64
-48
48
16
-48
48
192
128
-48
-32
-176
-176
48
-80
-80
-80
-64
0
96
64
48
-16
-48
0
64
48
-80
-192
-208
96
512
256
-64
-96
-160
-64
80
96
-96
-128
-80
64
112
-32
-144
-208
-80
64
192
144
-96
-192
-192
-32
320
432
16
-176
-208
-112
-16
32
48
16
-80
-112
-192
-96
96
160
48
-32
-32
64
48
-112
-16
272
224
-16
-112
-80
32
48
96
160
48
-80
-80
-176
-240
-16
144
64
-96
-80
112
208
112
-96
-176
-176
-80
0
-32
-16
-48
-16
16
0
112
240
80
-128
-112
-128
-160
-16
0
-32
-32
48
80
-16
-48
-32
-112
-16
112
96
64
32
64
80
0
-128
16
-96
-112
16
16
-224
-352
-272
64
368
352
32
-80
0
48
0
-16
0
-80
-80
-96
0
112
-32
-240
-240
-64
48
16
-16
96
192
32
-64
208
224
32
-144
-256
-112
-64
-128
-240
-160
192
256
112
-16
-16
0
-96
-112
16
-16
-32
144
48
-80
-32
-224
-208
48
224
80
32
80
16
-16
-48
-96
-144
-80
128
-48
-256
-240
16
128
144
64
-80
-208
-224
112
368
144
16
32
48
-32
-64
-16
-32
0
-32
-32
32
32
48
96
-112
-384
-384
-80
176
160
-16
-128
-16
32
-16
-112
-288
-192
160
160
0
-80
192
256
64
-64
-64
-80
64
144
-16
-64
-96
-16
80
32
-112
-112
-48
64
64
0
16
0
-144
-80
192
208
-32
-144
-112
-32
-64
-80
-96
-48
-160
-80
64
288
96
32
-32
-96
-32
16
0
-48
-64
-48
0
16
0
-112
-80
32
128
-80
-176
-64
128
112
-48
-80
0
0
160
128
-64
-128
-16
48
96
16
-96
-128
32
240
16
-304
-48
16
-32
48
144
48
-16
-16
-80
-64
-80
-32
80
-16
16
144
32
16
-48
0
-160
-384
-144
112
176
16
-80
64
80
-48
-112
96
48
48
-16
-48
-48
-256
-208
272
448
16
-80
-80
-80
-32
48
112
-64
-32
160
112
-64
-64
-80
-32
-48
-96
-144
-176
48
256
112
16
-48
-64
32
64
-48
-144
-112
-32
48
-112
-288
-128
304
240
16
160
64
-96
-96
-64
-144
-112
-144
-112
112
352
112
-176
-144
-32
48
16
-48
48
288
336
-48
-224
-112
0
-112
-304
-160
-64
-16
16
0
32
48
32
32
48
112
176
128
-112
-176
-128
-240
-32
144
224
272
48
-64
-144
-224
-80
-16
96
160
112
144
64
-240
-464
-288
144
160
-32
-176
-96
144
224
112
32
32
32
16
0
-64
-128
32
160
-96
-256
-144
16
0
-16
32
64
-32
-32
48
16
0
-64
-128
96
224
0
-96
64
176
-48
-176
-112
-16
0
-16
16
48
16
-64
-96
-32
64
32
-16
-64
-80
-16
32
-16
-144
-112
48
112
208
128
16
-48
-80
-48
-128
-176
-80
48
96
64
-32
-192
-192
112
208
128
160
-16
-128
-16
32
-32
-160
-48
112
144
80
-32
-128
-176
-96
0
-32
-16
16
48
0
-32
-64
-128
-128
16
256
192
176
112
-16
-112
-128
-32
32
32
-64
-16
-16
0
64
32
-48
-96
-128
-224
80
256
64
-288
-240
64
176
96
-16
-80
-96
-64
-64
80
80
-112
-32
96
112
80
-96
-112
-48
-16
-48
-80
-80
-128
16
112
224
208
-112
-128
32
32
-16
112
176
-16
-304
-336
0
176
48
-48
-32
32
96
112
64
-32
-112
-128
32
96
32
-16
-48
-128
-32
-32
16
160
128
-96
-160
-112
32
48
-96
-176
-64
48
80
128
0
-16
64
48
-64
-112
-32
48
160
176
16
0
80
16
-48
-240
-176
64
16
-16
64
32
-128
-48
144
160
0
-112
-176
-112
16
-112
-256
-48
224
192
144
-64
-160
96
320
208
32
-16
-176
-304
-256
-32
144
112
48
64
64
-16
-80
-48
0
16
0
-16
0
-96
-96
80
144
16
-64
-160
-304
-176
272
288
48
48
80
16
-80
-32
192
304
-16
-240
-32
48
-64
-32
32
-48
-96
-160
-224
-176
0
176
128
-48
-64
-128
-144
-16
224
176
112
176
96
-112
-96
-16
-16
32
-64
-80
-144
-16
80
-112
-48
-48
-144
-48
32
144
64
160
80
-256
-416
-240
0
336
320
48
16
96
-16
-64
64
-16
-176
-224
-32
128
112
96
64
96
64
0
-112
-64
208
288
-80
-160
-80
-64
-48
-16
-160
-240
-112
176
80
-48
-144
-128
32
176
272
64
-80
80
48
0
-32
-16
-32
-128
-192
-16
176
-64
-208
-144
0
224
336
128
-112
-128
-16
48
48
32
64
48
-32
-16
64
32
-48
32
-32
-192
-288
-176
0
208
160
32
-32
-64
-96
-144
32
144
48
32
144
96
-368
-336
48
240
48
16
-16
0
16
-32
-64
-16
176
192
48
-192
-112
144
288
48
32
-16
16
-16
-144
-256
-272
144
336
-32
-480
-384
192
160
-80
64
160
32
-112
-144
-48
176
96
0
48
112
64
-64
-64
-16
112
192
48
-160
-80
128
272
128
-112
-160
-48
0
-160
-336
-224
16
128
160
112
48
-32
-16
-32
-144
-112
320
528
128
-144
-80
-32
-80
-64
-16
16
0
-16
32
-112
-192
-176
-16
-48
-192
-32
176
192
96
144
112
0
-208
-112
144
64
-96
-80
-32
-80
-64
96
144
0
-192
-192
112
176
112
160
192
112
-16
-16
-16
80
48
-16
-96
-192
-416
-496
-176
272
336
240
144
32
-96
-80
-16
16
-64
48
112
0
-96
-96
0
112
112
48
96
112
80
-16
-80
-96
-32
0
16
-32
-80
-48
16
96
64
32
-160
-240
-144
32
64
-192
-128
128
176
32
64
160
160
64
-32
0
16
-16
-16
96
144
-80
-176
-16
144
80
-176
-448
-464
64
480
288
96
-16
-48
-48
-80
-32
32
-32
-64
16
16
16
0
16
32
16
48
-48
0
176
144
32
144
16
-128
-112
-64
16
-144
-176
48
96
-144
-304
-144
80
192
64
-224
-400
-192
128
192
144
144
144
64
48
32
-16
0
64
160
192
0
0
-64
-320
-336
-112
192
176
16
0
-48
-16
-32
-96
-144
128
272
112
-32
0
64
-64
-144
0
224
0
-80
-32
-48
48
144
32
-96
112
240
160
-96
-464
-464
96
384
96
-64
-160
-144
-16
96
64
16
32
-16
-48
-128
-144
32
256
128
-64
-80
-144
-160
-64
144
160
64
-32
-16
192
288
80
-32
64
-144
-224
-176
-208
-192
96
224
-16
-176
-16
112
96
-128
-48
80
0
0
96
-64
-208
-32
96
128
96
48
0
-48
-64
0
32
0
-96
-48
-16
0
-16
32
-16
-64
80
160
64
-112
-112
64
128
-32
-16
112
96
0
-96
-112
-112
-144
-144
-128
-48
64
160
160
64
48
0
-32
16
16
-16
80
144
0
96
96
-64
-64
-160
-208
0
112
48
-32
-96
-96
-16
32
32
-64
-144
-176
0
272
224
48
0
-144
-16
176
96
-64
-64
16
-16
-32
0
112
0
-416
-480
-32
400
160
64
64
32
-16
-16
-32
-32
-48
-64
0
32
32
-16
32
80
32
64
64
-16
-96
-96
0
144
96
-16
-96
-80
-32
-48
-112
-144
-64
64
160
144
32
-64
96
80
16
-32
0
32
-32
-64
-80
-144
-272
-176
-16
176
144
112
176
-64
-192
-112
16
-16
-176
-80
0
48
128
80
32
16
96
16
-32
96
64
-176
-240
16
208
160
32
-32
-80
-144
-128
16
64
-32
-16
144
64
32
48
-96
-224
-64
32
-16
-192
-192
-48
0
-240
-320
-16
272
144
48
80
144
80
-48
-256
-240
48
144
-16
-96
80
32
-160
-112
96
128
-64
-192
-176
32
192
272
176
-32
32
80
160
48
-160
-80
-64
-112
-64
96
160
32
-16
16
16
-16
32
112
112
32
-240
-336
-48
240
112
-48
-80
-96
-128
-144
0
96
-64
-48
224
128
-48
-32
32
160
96
-96
-80
-80
-224
-400
-288
144
240
144
224
80
-16
0
0
48
144
128
48
-272
-320
-16
176
96
-16
-16
80
-16
-48
96
128
-16
-96
-64
-32
-64
-16
16
-32
16
128
64
-128
-416
-464
48
480
288
32
64
80
-32
-80
-32
48
80
96
-32
-112
-80
32
176
128
-32
-272
-288
32
144
-96
-400
-96
416
96
-256
-240
-16
176
144
-48
-48
-16
0
48
-16
0
224
448
160
-96
-176
-96
32
96
-48
-96
-32
-16
-16
-48
32
96
128
48
80
-48
-160
-48
0
-176
-256
-64
0
-48
-96
-48
16
-96
-144
-64
160
208
16
-16
112
80
80
32
64
96
176
96
-32
-48
64
128
-160
32
176
96
-96
-192
-224
-256
-32
208
0
-176
-144
-96
0
32
32
32
16
48
80
80
48
-16
-112
-144
-64
176
192
-80
-160
-192
-112
32
160
192
128
144
32
-96
-96
-80
-32
-64
-80
-80
-32
0
-144
-64
112
0
0
64
32
-80
-208
-144
80
128
64
64
48
-32
-128
-80
-16
16
-80
-128
48
-176
-400
-32
368
112
-176
-112
-32
64
128
80
64
80
48
16
16
80
128
32
-16
48
16
112
96
-32
-128
-64
-80
-112
-112
0
0
-96
-80
80
176
-32
-160
16
112
64
-80
-192
-304
-240
64
160
96
48
80
96
48
-96
-160
-32
64
192
176
-64
-160
-208
-112
16
32
80
80
16
0
0
16
16
-48
-32
48
80
0
-272
-256
0
288
96
-48
-32
64
-32
-64
48
48
16
-32
-128
-32
-160
-240
32
320
208
64
16
-32
-32
-16
32
16
-96
-192
-48
96
16
-64
-160
-192
-16
112
96
-64
-80
80
224
128
-112
-272
-144
64
32
-96
-16
80
96
160
64
48
16
0
-16
-112
-272
-208
-112
-176
80
432
224
48
64
48
-16
-96
-112
-80
0
96
160
64
32
-16
-64
0
64
16
-144
-384
-464
-272
48
80
144
144
96
64
16
-32
96
208
80
-144
0
192
-48
-320
16
176
64
-16
-96
-48
80
80
-192
-128
112
64
-64
-160
-176
-128
80
112
96
96
64
16
64
-64
-112
16
112
176
96
-80
-112
-112
-48
0
0
64
64
0
0
16
-48
-48
-112
-176
-144
176
208
-16
16
112
32
-96
-80
-48
0
48
144
-48
-80
-48
-80
-32
48
96
16
-64
-112
-192
-192
-16
208
112
0
-32
48
48
16
-48
-80
-96
-128
-96
-16
96
32
-64
-64
-16
-112
-144
0
80
-80
-80
-32
96
240
256
96
-32
16
80
-32
-112
-112
-32
-16
-16
-64
-48
-80
-96
64
144
0
-160
-256
-128
128
208
96
144
176
80
-48
-128
-128
-144
-96
-16
-80
-32
80
144
144
0
-64
-64
80
-32
0
96
48
0
-176
-336
-320
-80
-16
320
320
192
-16
-112
-128
-96
-48
-16
96
80
32
-16
32
-32
-64
-16
16
-32
0
-272
-336
-192
272
144
64
96
96
160
64
-80
-80
-48
-48
-32
144
176
192
16
-16
16
-112
-80
-16
32
-48
-80
-64
-64
-48
-32
-32
-32
80
16
-240
-336
32
208
240
-32
-144
-112
-16
240
224
-32
-64
240
224
-16
-176
0
176
80
-48
-128
-192
-160
-64
16
32
64
96
80
-16
-48
-160
-256
-128
128
48
-80
-80
-64
0
48
48
96
-64
-48
-48
-64
-128
64
128
80
-16
16
64
-112
-176
0
144
160
80
32
-64
-16
64
16
-32
-16
64
48
32
48
48
48
48
32
-64
-64
0
80
144
64
-176
-192
-96
-64
-48
-96
-144
-16
48
32
80
80
48
32
64
80
-32
-160
-208
-96
48
128
48
-16
48
80
-48
-48
48
80
64
0
-16
32
48
16
16
-64
-160
-128
64
80
-64
-224
-192
-160
-80
80
112
128
160
96
-32
-32
48
16
-64
-96
-128
-32
192
240
-16
-416
-288
112
224
80
48
112
48
-48
-128
-32
0
-64
-16
16
128
112
16
-128
-160
-80
-16
-32
-16
-32
48
144
48
-16
16
48
32
48
112
80
32
-48
-96
-48
32
32
16
-32
-80
-144
-64
80
0
-112
-96
-256
-192
208
480
288
32
-80
-64
0
-48
-224
-288
-96
96
144
80
-80
-80
-48
0
80
80
16
-64
16
160
32
-48
16
64
48
16
0
64
112
32
16
-48
-176
32
128
96
-16
-128
-128
-96
48
-48
-48
80
96
16
-112
-240
-208
48
128
0
16
0
-16
48
64
64
0
96
144
176
-144
-112
16
0
0
-32
-64
-80
0
128
80
-32
-144
-208
-128
0
112
48
-16
0
16
48
128
144
16
-112
-96
-32
0
-48
-48
-48
16
96
64
-32
-64
16
0
-16
64
80
48
64
32
-64
-224
-288
-192
64
288
160
112
80
-16
-112
-112
-112
16
80
80
-64
-80
-32
-32
16
64
32
0
0
0
32
96
80
-16
16
128
208
176
-112
-256
-128
0
0
16
16
16
-64
-128
-80
-64
0
96
144
64
-32
-112
-144
-160
-160
-16
128
96
0
-32
-32
16
32
32
32
-32
-80
0
112
80
16
16
0
-32
-48
-16
-16
-48
-64
64
160
64
-64
-48
-16
0
32
16
0
0
-16
0
16
16
-32
-64
0
64
32
0
16
0
-64
-64
-64
-32
16
48
48
0
-80
-64
16
16
-16
-32
-16
16
16
0
-16
-16
16
16
16
16
32
32
16
0
-16
-32
16
16
0
-80
-32
16
16
-16
-32
-32
16
32
16
-32
-48
-16
48
80
48
-16
-48
-48
-48
0
16
0
-16
16
80
16
-16
-48
-80
-64
-32
32
0
-16
-64
-48
0
0
-16
-32
0
16
16
-32
-48
-32
0
16
0
16
16
0
0
-16
0
16
0
-16
-16
-16
-16
0
16
16
16
-16
-16
0
0
-16
0
16
16
16
0
0
0
-16
-32
-32
-32
0
0
-16
-32
-16
0
0
0
0
0
16
16
0
-16
0
0
-16
-32
-16
-16
16
16
-16
-32
-32
-16
-16
0
16
16
16
0
-16
-16
0
-16
-32
-48
-64
-64
0
16
0
-32
-48
-32
-32
0
64
112
64
32
16
0
-16
-16
-16
-16
0
16
32
32
16
16
32
48
32
0
-16
-16
16
64
96
80
64
32
-32
-48
-16
-16
0
16
0
-16
-16
0
16
0
0
0
16
16
0
-16
0
0
0
-16
-16
-16
0
0
-16
-16
-16
0
0
16
0
0
16
16
0
0
0
0
-16
-32
-16
0
0
16
0
-16
0
0
0
0
0
0
16
32
16
0
0
0
-16
-32
-32
-32
0
0
-16
-16
-16
0
0
0
0
0
16
16
16
0
0
0
0
-16
-16
-16
0
0
-16
-16
0
0
0
-16
0
0
16
16
0
0
0
0
0
-16
-16
-16
0
0
0
-16
0
0
0
-16
-16
16
32
32
16
0
-16
-16
-32
-16
0
0
0
0
0
-16
-32
-32
-32
0
0
16
16
0
-16
-32
-16
16
16
0
-16
-16
-16
-16
-16
-16
-16
0
0
0
0
0
0
0
0
0
0
0
0
-16
-16
-16
-16
-16
-16
-16
-16
0
0
0
0
0
0
0
0
0
0
0
0
0
0
0
0
-16
-16
-32
-16
0
0
0
0
0
0
0
0
0
0
0
0
-16
-16
-16
0
0
-16
-16
-16
-16
-16
-16
0
0
-16
-16
0
0
0
0
0
-16
-16
-16
-16
-16
-16
-16
-16
0
0
0
0
0
0
0
0
0
0
-16
-16
-16
-32
-32
-16
-16
-16
-16
0
0
0
16
16
0
-16
-16
-16
-16
16
16
-16
-16
-16
-16
-16
-16
0
0
0
0
0
16
0
0
0
-16
-16
-16
-16
0
0
-16
-16
-16
-16
-16
-16
-16
-16
0
0
0
0
0
0
0
0
0
-16
-16
-16
-16
-16
-16
-16
-16
-16
-16
-16
-16
-16
0
0
0
16
16
16
0
0
-16
-16
-16
-16
-16
-16
-16
-16
-16
-16
-16
-16
-16
-16
0
0
0
0
0
0
-16
-16
-16
-16
-16
-16
-16
-16
-16
-16
0
0
0
0
0
0
0
0
0
0
0
16
16
0
0
0
0
0
-16
-16
-16
-16
-16
-16
-16
0
0
0
0
0
-16
-16
-16
-16
-16
-16
-16
-16
-16
-16
0
0
0
0
0
-16
-16
-16
-16
-16
-16
-16
0
-16
-16
-16
-16
-16
-16
0
0
0
0
0
0
0
16
16
0
-16
-16
-16
-16
-32
-32
-32
-32
-32
-16
0
0
0
-16
0
0
16
16
16
0
0
0
0
-16
-16
-16
-16
-16
-16
-16
-16
-16
-16
0
0
0
0
-16
-16
-16
0
0
0
0
-16
-16
-16
-16
0
0
0
0
-16
-16
0
0
0
0
0
0
-16
-16
-16
-16
-32
-32
-16
-16
-16
-16
-16
0
0
0
0
0
0
0
0
0
-16
-16
-16
-32
-16
-16
-16
-16
-16
0
0
0
0
0
0
0
0
0
0
0
0
0
16
16
0
0
-16
-16
-32
-32
-32
-32
-32
-16
-16
0
16
0
0
0
0
0
-16
-16
-16
-16
-16
-16
-16
-16
-16
0
0
0
0
0
0
16
16
16
0
0
-16
-32
-32
-32
-16
-32
-32
-32
-16
0
0
0
0
0
0
0
0
0
-16
-16
-16
-16
-16
-16
-16
-16
-16
-16
-16
0
0
0
16
0
0
0
0
0
0
0
-16
-16
-16
-16
-16
-16
-16
-16
-16
-16
-16
0
-16
0
0
0
0
0
0
-16
-16
-16
-16
-16
-16
0
0
-16
-16
-16
-16
-16
-16
0
16
16
0
0
0
0
-16
-16
-16
-16
-32
-16
-16
-16
-16
0
0
0
0
0
0
0
0
0
0
0
-16
-16
-16
-32
-32
-32
-16
-16
-16
0
0
0
0
0
0
0
0
0
0
-16
-16
-16
-32
-32
-32
-16
-16
-16
0
0
0
0
0
0
0
0
0
16
0
0
0
-16
-16
-32
-32
-16
-16
-16
-16
-16
0
0
16
16
0
0
0
0
0
0
0
-16
-16
-16
-16
-16
-16
-32
-32
-16
-16
0
0
0
0
0
0
0
0
-16
-16
-16
-16
-16
0
0
0
0
0
0
0
-16
-16
-16
0
16
0
-16
0
0
-16
-16
-16
-16
-16
-16
0
-16
-16
0
32
16
0
0
0
0
0
16
0
-16
-16
-16
-16
-16
16
16
16
32
16
0
16
0
0
0
0
16
16
0
-16
-32
-16
-32
-32
0
0
-32
-16
-16
0
0
0
16
16
16
16
16
16
0
0
0
0
0
-16
-16
-16
0
0
0
0
0
-16
0
0
0
0
0
0
16
0
0
0
0
-16
-16
0
0
-16
-16
-16
0
0
0
0
0
0
0
0
0
0
0
16
16
0
0
0
0
-16
-16
-16
0
16
0
-16
-16
0
0
0
0
0
0
0
0
0
0
-16
-16
-16
-16
-16
0
0
0
0
-16
-16
-16
0
0
16
16
0
-16
-16
-16
-16
-16
-16
-16
-16
0
0
0
0
0
0
0
16
0
0
0
0
-16
-16
-16
-16
-16
-16
-16
-16
0
0
0
0
0
0
0
0
0
0
-16
-16
-16
-16
-16
-16
0
0
-16
0
-16
-16
-16
0
0
0
0
0
0
0
-16
-16
-16
-16
-16
-16
-16
-16
-16
-16
-16
0
0
0
0
0
0
0
0
0
0
0
0
0
-16
-16
-16
-16
-16
-16
-16
0
0
0
0
0
0
0
0
0
0
0
0
-16
-16
-32
-16
-16
-32
-16
-16
-16
-16
0
0
0
0
0
0
0
0
0
0
0
0
0
-16
-16
-16
-16
-16
0
0
-16
-16
-16
0
-16
-32
-16
0
0
0
0
0
0
0
-16
0
0
0
-16
-16
-16
-16
-16
-16
-16
-16
-16
-16
0
0
0
0
0
0
0
0
0
0
0
-16
-16
-16
-16
-16
-16
-16
-16
0
0
-16
0
0
0
-16
-16
0
0
0
-16
-16
-16
-16
-16
-16
-16
-16
0
0
0
0
0
0
0
0
0
0
-16
-16
-16
-16
-16
-16
-16
-16
-16
-16
-16
-16
0
0
0
0
-16
-16
-16
-16
-16
-16
0
0
-16
-16
-16
-16
-16
-16
-16
-16
-16
-16
0
0
0
0
0
0
0
0
-16
-16
-16
-16
-16
-16
-16
-16
-16
-16
-16
0
0
16
16
16
0
0
0
-16
0
0
0
-16
-16
-16
-16
-16
-16
-16
-16
0
0
0
0
0
0
0
0
0
0
0
0
-16
-16
-16
-16
-16
-16
-16
-16
-16
0
0
0
0
0
0
-16
-16
-16
0
0
0
-16
-16
-16
-16
-16
-16
-16
-16
0
0
0
0
0
0
0
0
-16
-16
-16
-16
-16
-16
-16
0
-16
-16
-16
0
0
0
0
0
0
0
0
-16
-16
-16
-16
-16
-16
-16
-16
-16
-16
0
0
0
0
0
-16
0
0
0
0
0
-16
-16
0
-16
-16
-16
-16
-16
-16
-16
-16
-16
0
16
0
0
0
0
16
16
0
-16
-16
-16
-32
-16
-16
-16
-16
0
0
0
0
0
0
0
0
0
0
0
0
0
0
-16
-16
-32
-32
-16
-16
-16
0
0
0
0
0
0
0
0
0
0
0
-16
-16
-16
0
0
-16
-16
-16
-16
-16
0
0
0
0
0
0
0
0
0
-16
0
0
-16
-16
-16
-16
-16
-16
-16
0
0
0
0
0
0
0
0
0
0
-16
-16
-16
-16
-16
-16
-16
-16
-16
-16
0
0
0
0
0
0
0
0
0
0
0
0
-16
-16
-16
-16
-16
0
0
0
0
0
0
0
0
0
0
16
16
16
0
0
0
0
0
-16
-16
-16
-16
-16
0
0
0
0
0
0
0
0
0
0
-16
-32
-16
-16
-32
-16
-16
0
0
-16
-16
0
0
0
0
0
0
0
0
0
0
-16
-16
-16
-16
-16
-16
-16
-16
0
0
0
0
0
0
0
0
0
-16
-16
-16
-16
-16
-16
-16
0
0
0
0
0
0
0
0
0
0
0
0
0
0
0
0
0
0
0
-16
-16
-16
-16
-16
-16
-16
-16
0
0
0
0
0
0
0
0
0
0
0
-16
-16
-16
-16
-16
-16
-16
0
0
0
0
0
0
0
0
0
0
-16
-16
-16
-16
-16
-16
-16
-16
-16
-16
-16
0
0
0
0
0
0
0
0
0
0
0
-16
-16
-16
-16
-16
-16
-16
-16
-16
-16
0
0
0
16
16
16
16
16
0
0
0
0
-16
-16
-32
-32
-32
-16
-16
-16
0
0
0
0
0
0
0
0
-16
-16
-16
-16
-16
-16
-16
-16
-16
-16
0
0
0
0
0
0
0
0
0
0
0
0
-16
-16
-16
-16
-16
-16
-16
-16
-16
-16
-16
-16
0
0
0
0
16
0
0
0
0
-16
-16
-16
-16
-16
-32
-32
-16
0
0
0
0
16
32
32
16
-16
-32
-32
-32
-32
-48
-32
-16
0
0
16
16
16
16
16
0
0
0
0
0
0
0
0
0
-16
-16
-16
-16
-16
-16
-16
-32
-16
-16
-16
-16
-16
-16
-16
-16
0
0
0
0
0
16
0
0
-16
-16
-16
0
0
0
0
0
0
0
0
0
0
0
0
0
-16
-16
-16
-16
-16
-16
0
0
0
0
0
0
-16
-16
-16
-16
-32
-32
-32
-32
-16
0
0
0
-16
-32
-32
-16
16
0
-16
-16
-16
-16
0
0
0
-16
-16
0
0
-16
-16
-16
-16
-16
0
0
0
0
0
0
0
16
16
0
0
0
-16
-16
-16
-16
-16
-16
-16
-16
-16
0
0
16
16
16
0
-16
0
0
0
0
0
-16
-16
-16
-16
-16
-16
-16
-16
-16
-16
-16
-16
-16
-16
-16
-16
0
0
0
-16
-16
-16
-16
-16
-16
-16
-16
-16
-16
-16
-16
-16
0
0
16
16
0
0
0
0
-16
-16
-16
-16
-16
-16
-16
-16
-16
-16
-16
-16
-16
-16
-16
0
0
0
0
0
0
-16
-16
0
0
-16
-32
-32
-16
0
-16
-16
-16
-16
-16
-16
0
16
16
0
0
-16
-16
-32
-32
-32
-16
-16
0
0
0
-16
0
0
0
0
0
0
0
0
0
-16
-16
-16
-16
-16
-16
-16
-16
-16
-16
0
0
0
0
0
0
0
0
0
-16
-16
-32
-32
-16
-16
-16
-16
0
0
0
0
0
0
0
0
0
16
16
0
-16
-16
-16
-16
-16
-16
-16
-16
-16
-16
-16
-16
0
0
16
16
16
0
-16
-16
-16
0
-16
-16
0
0
-16
-16
-16
-16
-16
-16
0
16
16
16
0
0
-16
-16
-32
-32
-16
-16
0
0
0
0
-16
0
0
0
0
0
-16
-16
-16
0
0
-16
-16
-16
-16
-16
0
0
0
0
0
0
0
0
0
0
0
0
0
-16
-16
-16
-16
-16
-16
-16
0
0
0
-16
-16
-16
0
0
0
0
-16
-16
0
0
0
0
0
0
0
-16
-16
-16
-16
0
0
0
0
0
0
0
0
0
0
0
0
0
0
0
-16
-16
-32
-16
-16
-16
-16
0
0
0
0
0
0
0
0
-16
-16
-16
0
0
0
0
0
-16
-16
-16
-16
-16
-16
0
0
0
0
0
0
0
0
0
0
-16
-16
-16
-16
-16
-16
-16
0
0
0
-16
0
-16
-16
-16
-16
-16
0
-16
-16
-32
-16
-16
-16
0
0
0
0
0
0
16
16
16
16
16
0
0
0
0
-16
-16
-16
-16
-16
-16
-16
-16
-32
-32
-16
0
16
0
0
0
-16
-16
0
0
0
0
0
-16
-16
-16
-16
-16
-16
0
0
0
0
0
0
0
0
0
0
0
0
-16
-16
-16
-32
-32
-32
-32
-16
-16
-16
0
0
0
0
0
0
0
-16
-16
-16
-16
-16
-16
-16
-16
-16
-16
-16
-16
-16
-16
0
0
0
16
16
16
32
16
16
16
0
-16
-32
-32
-16
-16
-16
-16
0
0
0
0
0
0
0
0
0
0
-16
-16
-32
-32
-32
-32
-16
-16
-16
-32
-32
-32
-16
-16
16
16
0
0
0
0
0
0
0
-16
-16
0
0
-16
0
0
0
0
0
0
-16
-16
-16
-16
-32
-32
-16
-16
-16
-16
-16
-16
-16
0
0
0
-16
-16
-16
-16
-16
0
16
16
16
16
0
-16
-16
-32
-32
-32
-32
-16
0
16
16
16
0
0
-16
0
0
0
0
0
0
0
0
0
0
-16
-32
-48
-32
-16
-16
0
-16
-16
-16
-32
-16
-16
0
0
0
-16
-16
-16
-16
-16
-16
-16
-16
-16
-16
-16
-16
0
0
0
0
0
0
-16
-16
-16
-32
-32
-16
-16
-16
-16
-16
-16
-16
-16
-16
0
0
0
0
16
16
0
-16
-16
0
-16
-32
-16
-16
-16
-16
-16
-16
-16
-16
-16
0
0
0
0
0
-16
-16
-16
-16
-16
-16
-16
-16
-16
-16
-16
-16
-16
0
0
0
0
0
0
0
0
-16
-16
-16
-16
-16
-16
-16
-16
-16
-16
-16
-16
0
0
0
0
-16
-16
-16
-16
-32
-16
-16
-16
-16
-16
0
-16
-32
-16
-16
-16
0
0
-16
-16
-16
0
0
0
0
-16
-16
-16
-16
-16
-16
-16
-16
-16
-16
0
0
0
0
-16
-16
-16
-16
-16
-16
-16
-16
-16
-16
-16
-16
-32
-16
-16
-16
0
0
0
0
0
0
0
0
0
0
-16
-16
-32
-16
-16
-16
-16
-16
-16
-16
0
0
0
-16
-16
-16
-16
-16
-16
-16
-16
-16
-32
-32
-32
-32
-32
-32
-16
0
0
0
0
0
0
0
-16
-16
-16
-32
-32
-32
-32
-32
-32
-32
-32
-32
-32
-16
-16
-16
-16
-16
-16
0
16
0
-16
-16
0
-16
-16
-16
0
-16
-32
-32
-16
-16
-16
-16
0
0
-16
-16
-16
-16
-16
0
0
0
-16
-16
-16
-16
-32
-32
-32
-32
-16
-16
-16
-16
-16
-16
-16
-16
-16
-16
-32
-32
-32
-32
-48
-32
-32
-16
-16
0
0
0
0
0
0
-16
-16
-16
-16
-16
-32
-32
-32
-32
-32
-32
-32
-32
-32
-16
-16
-16
-16
0
-16
-16
-16
-32
-32
-32
-48
-48
-48
-48
-32
-32
-16
-16
-32
-16
0
0
0
0
-16
-16
-16
-16
-16
-16
-16
-16
-16
-16
-16
-16
-16
-16
-16
-16
-16
-16
-16
-16
-16
-16
0
0
-16
-16
-16
-32
-32
-32
-32
-16
-16
-16
-16
-16
-16
-16
-16
-16
-16
-16
0
0
0
0
-16
-16
-16
-16
-16
-16
-16
0
-16
-16
0
0
0
0
0
0
0
0
0
-16
-32
-32
-32
-32
-32
-32
-32
-32
-32
-32
-16
-16
0
0
0
0
0
0
0
-16
0
0
0
-16
-16
-16
-16
-16
-16
-16
-32
-32
-16
-16
0
16
16
16
0
-16
-16
0
0
0
0
-16
-16
-32
-32
-16
0
0
16
0
0
-16
-16
0
-16
-16
-16
0
0
-16
-16
-16
-16
-16
-16
0
0
0
0
-16
-32
-32
-32
-16
0
16
16
-16
-16
-32
-32
-32
-32
-32
-16
-16
-16
-16
-16
-16
0
0
16
16
0
-16
0
0
-16
-16
-16
-16
-16
-16
-16
-16
-16
-16
0
0
0
-16
-16
-16
-16
-16
-16
0
0
-16
-16
-16
-16
-16
-16
-16
-16
-16
-16
0
0
-16
-16
0
-16
-16
-16
-16
0
0
0
0
-16
-16
-16
-16
-16
-16
-16
-16
0
0
16
0
0
0
-16
-16
-16
-16
-16
-16
-16
-16
0
0
0
-16
-16
-16
-16
-16
-16
0
16
0
-16
-16
-32
-32
-16
-16
0
0
0
-16
0
0
0
0
0
-16
-16
-16
-16
-16
0
0
0
-16
-16
-16
-16
-16
0
0
0
0
0
0
0
0
0
0
0
0
0
-16
-16
-16
-16
-16
-16
-16
-16
0
0
0
0
0
0
-16
-16
-16
-16
0
16
0
0
-16
-16
0
0
0
0
0
-16
-16
0
0
0
0
0
0
0
-16
-16
-16
0
0
0
0
0
0
0
0
0
0
0
0
0
0
0
0
0
0
0
0
-16
-16
-16
0
0
-16
-16
-16
-16
-16
-16
0
0
0
0
0
16
0
0
0
0
0
-16
-16
-16
-16
-16
-16
0
0
0
0
16
0
0
0
0
0
0
0
0
0
-16
-16
0
0
0
0
0
0
0
0
0
16
16
16
16
0
-16
-16
-32
-32
-32
-16
0
0
0
16
16
16
16
0
0
0
0
0
16
0
0
0
0
0
0
0
0
0
0
0
0
0
0
0
0
0
0
0
16
16
16
0
0
0
-16
-16
-16
0
0
0
0
0
0
0
0
16
16
16
0
0
0
0
-16
-16
-16
-16
-16
0
0
0
0
0
0
0
0
0
0
0
0
-16
-16
-16
0
0
16
16
0
0
0
0
16
16
16
16
16
0
0
0
0
-16
-16
0
0
-16
-16
-16
-16
-16
-16
-16
0
0
0
16
16
16
16
16
16
16
0
0
0
-16
-16
-16
0
0
0
0
0
0
0
0
0
0
0
0
0
0
0
0
-16
-16
-16
0
0
0
0
0
0
0
0
16
0
0
0
0
0
0
0
0
-16
-16
-16
-16
-16
0
0
0
0
16
16
16
16
16
0
0
0
0
0
0
0
0
-16
-32
-32
-32
-32
-16
16
16
16
16
16
0
0
16
16
16
16
16
0
0
-16
-16
-16
-16
0
0
0
-16
-16
0
0
16
16
16
16
16
0
0
0
0
0
-16
-16
-16
0
0
0
0
0
0
0
0
0
0
0
0
0
0
0
-16
0
0
0
-16
-48
-48
-48
-32
-16
0
32
32
16
16
16
0
0
-16
-16
-16
0
0
16
32
16
0
0
0
0
0
0
16
0
-16
-16
-16
-48
-64
-48
-32
-32
16
32
32
16
0
-16
0
-16
-16
-32
-32
-32
0
16
32
48
32
32
48
48
-16
-48
-32
-32
-16
0
16
0
16
48
16
-48
-48
-16
16
16
16
0
-32
-32
-16
16
32
32
32
48
48
16
0
-16
-16
-48
-32
0
-32
-32
-16
-16
-48
-48
-16
32
48
48
16
-16
-48
-48
-32
-32
-32
16
0
-16
-16
-16
-16
0
0
16
48
64
48
16
0
-16
-32
-16
-16
16
32
0
-16
0
-16
0
32
48
32
16
16
16
-32
-48
-64
-80
-64
-16
-16
-64
-48
-32
-32
-16
0
16
16
0
0
-16
-32
-16
32
48
32
0
0
-16
-32
-16
32
48
32
16
16
16
-32
-80
-32
48
16
-64
-32
16
16
32
16
0
-32
-32
-32
0
32
16
-64
-96
0
64
128
208
192
80
-80
-80
-16
48
48
48
80
0
-80
-96
-80
0
32
64
80
96
96
16
-64
-48
-16
-112
-112
16
16
0
-16
-48
-16
48
32
0
32
48
64
48
48
0
-48
-16
64
128
128
128
16
-80
-128
-128
-112
-16
16
80
80
80
128
32
-112
-144
-48
-32
64
80
48
-64
-128
-80
-64
-64
-48
0
-16
80
224
176
80
32
-112
-192
-160
-48
16
-32
-48
-80
-48
-32
-48
32
160
208
192
112
-64
-112
-144
-128
-80
-32
32
0
0
96
48
16
48
0
32
48
32
-48
-48
-80
-80
0
0
32
64
48
96
96
32
16
-96
-128
-48
48
80
64
32
80
160
176
48
-32
-64
-176
-96
16
32
-64
-176
-112
-80
-32
0
-32
16
48
0
-48
-128
-96
-80
-48
-16
32
176
272
48
-96
-112
-96
-16
80
144
64
0
-32
-80
-112
-128
-192
-192
-48
272
416
272
96
-16
-32
-128
-176
-144
-96
-48
-32
-48
0
80
0
-96
-48
48
144
-32
-48
0
-48
-32
48
80
-80
-256
-192
-32
32
96
240
176
-96
-160
-96
-32
-96
-64
32
112
64
32
16
-48
-80
-80
-32
-64
0
48
0
-16
-48
-80
-144
-96
16
64
0
-48
0
112
192
208
64
0
-96
-256
-288
-208
96
176
-16
-272
-288
-16
320
368
-32
-320
-160
-48
-80
-64
-32
144
224
176
80
-48
-176
-128
16
128
80
-192
-240
-160
-16
176
-144
-320
16
80
-64
-64
-32
48
176
96
-112
-144
-32
-16
-48
-96
-96
48
176
16
16
192
96
-160
-112
64
0
-160
-256
-112
0
64
16
-208
-128
112
224
0
-224
-128
-128
-112
-128
-96
80
144
160
112
96
64
96
192
0
-288
-240
-112
-32
-144
-192
-160
32
336
128
-96
-160
-128
48
16
-144
-176
16
48
128
288
240
96
-48
-192
-208
-208
-112
-112
-128
-160
-32
336
432
192
64
-32
-208
-176
-16
32
-16
-64
-112
-112
-144
-256
-272
-96
224
304
336
336
128
-64
-80
-64
-128
-144
-64
16
48
32
-112
-96
-144
-352
-400
-144
272
352
96
64
208
64
0
224
224
0
-128
-160
-80
-80
-112
-64
-48
-32
32
48
112
128
96
-144
-288
-176
-80
-32
48
96
-80
-96
-96
-32
-48
-16
112
64
-16
-32
32
16
-224
-240
-64
80
96
32
-48
16
128
128
0
96
208
-192
-272
-80
32
-48
-96
-32
-80
-96
-32
16
128
96
32
-96
-176
-128
-208
-192
-16
208
208
48
16
16
16
96
64
-160
-192
112
240
0
-112
-64
-64
-48
-48
-96
-80
16
32
-32
-208
-208
-16
192
176
32
16
96
32
-128
-336
-304
144
464
96
-272
-192
-16
32
176
160
16
-80
-48
16
32
0
-64
-144
-112
64
144
-16
-112
16
32
-16
48
32
-80
-112
-144
-96
128
128
-64
-96
-112
-80
-96
-64
-64
32
32
0
96
0
-96
80
224
112
16
-96
-128
-32
32
80
48
16
-80
-128
-176
-96
128
128
0
16
64
-80
-128
48
64
48
32
0
-80
-192
-144
-64
80
128
96
-16
-96
-112
-64
-32
0
64
64
64
16
-64
-32
32
32
32
128
160
16
-96
-192
-208
-256
-400
-384
-32
416
368
224
192
16
-32
-32
-16
32
-64
-160
-192
-128
128
224
16
-192
-48
32
-64
-112
-96
16
32
16
48
176
144
0
-64
-112
-128
-16
16
-48
-176
-176
-144
48
80
80
48
48
0
-128
-272
-192
224
480
288
-96
-144
-64
-176
-288
-160
256
352
-128
-272
-48
32
128
32
-16
32
-64
-96
-112
-80
-16
64
80
-16
-32
0
32
128
64
-16
-96
-112
-128
-64
0
-112
-208
-112
128
96
-32
-128
-160
80
240
80
-32
-16
32
-16
16
128
80
64
0
-16
176
224
-80
-320
-288
-112
0
0
-32
-32
48
80
-32
-256
-304
112
464
240
-16
-80
-16
160
48
-240
-144
32
-128
-320
-80
240
208
80
48
-48
-112
-16
64
80
32
-96
-112
-16
0
-48
-16
48
80
16
-64
-176
-128
80
208
48
-64
-128
-112
-80
-16
-112
-112
-96
-32
16
32
144
224
128
16
0
32
48
32
-32
-16
-144
-320
-288
32
176
0
-16
0
-48
48
0
-224
-272
-80
336
272
80
16
-48
-144
-176
0
144
96
32
-176
-368
-144
128
112
0
32
96
64
64
48
64
64
48
0
-192
-336
-224
48
160
64
16
64
32
16
16
-64
-48
0
64
0
-112
16
32
-32
0
48
16
-112
-16
32
-128
-336
-272
112
176
96
96
48
-16
-16
-16
-64
-112
-144
-32
144
96
48
160
144
-48
-208
-224
-160
96
304
208
96
-64
-144
-80
112
128
-48
-32
-16
0
0
-64
-64
16
48
-80
-256
-224
-48
208
320
176
16
-160
-144
-16
32
32
-32
-192
-80
80
48
16
96
128
80
-48
-32
16
-48
0
64
0
-80
0
32
-16
-64
-48
-128
-240
-160
224
384
-64
0
64
16
48
96
80
-32
-80
-32
-16
-48
-32
-16
16
0
-64
-32
0
32
32
-16
0
16
-16
-80
-64
-32
0
16
16
32
48
-64
-272
-272
128
464
336
144
-112
-160
-144
-32
16
-64
-128
-96
112
192
64
-160
-96
32
32
-64
-288
-288
32
416
272
192
64
144
64
-32
-80
-96
-80
48
32
-80
-64
0
96
96
32
-80
-240
-320
-32
208
176
128
0
-128
-192
-176
-16
16
80
128
144
32
-112
-128
-80
0
-16
-16
192
144
32
16
-32
-64
-48
16
0
-112
-144
208
432
64
-400
-320
48
208
80
64
128
16
-64
-32
16
-64
-208
-256
-272
-64
128
240
128
48
80
128
-32
-272
-384
-240
160
336
352
176
-80
-160
-32
48
16
16
-48
-80
-80
112
272
208
32
-128
-48
-48
-16
-16
-96
-208
-192
-144
-128
64
176
48
-80
-96
-96
48
288
112
-272
-448
-272
-32
256
384
176
80
0
0
16
16
0
-128
-400
-576
-272
256
384
224
-80
-160
-48
128
144
-16
-112
-272
-368
-160
480
496
112
-128
-80
112
96
48
128
112
64
32
-64
-192
-256
-144
32
48
96
64
-16
0
32
32
-64
-128
0
128
16
-32
-32
-96
-96
32
128
-112
-288
-240
192
336
64
-32
32
64
144
160
-96
-112
96
80
-112
-176
-160
32
-16
-240
-176
144
192
-16
-160
-80
64
0
0
-48
-32
128
80
-16
80
272
144
-32
-48
48
32
-144
-256
-112
112
128
96
64
160
160
-48
-176
-80
48
0
-16
80
16
16
-144
-400
-352
-96
48
32
192
256
112
64
64
64
16
-16
64
112
80
-64
-144
-80
32
112
64
64
-48
-64
48
144
64
-32
-96
-192
-288
-256
-16
192
128
96
96
128
96
48
-64
-80
-32
-32
64
144
112
-272
-144
128
-16
-96
-80
96
48
0
-16
32
64
-48
-32
32
32
112
-48
-112
0
64
-96
-144
-48
96
160
64
48
80
32
-48
-96
-32
48
128
64
-112
-288
-384
-176
288
240
32
16
16
96
176
80
0
-32
16
-16
-80
-112
-224
-256
48
304
112
-80
-16
96
160
32
-48
0
0
32
144
192
0
-128
-144
-32
112
0
-224
-160
-64
-272
-160
128
96
128
144
96
16
-32
-32
-32
16
0
-64
-96
48
128
96
-192
-432
-64
320
272
80
-48
32
64
128
96
-16
-16
192
240
16
-112
-112
-96
-112
-176
-256
-272
48
240
64
80
32
-16
48
80
64
48
-16
-16
48
160
32
-96
-80
-64
-16
32
-64
-128
-48
32
32
80
64
-32
-112
-64
32
112
304
192
-128
-144
-112
-128
-48
176
112
-160
-208
-80
96
64
-16
0
112
32
0
-16
32
-64
-128
-64
-64
-224
-272
48
320
176
192
256
32
-128
-80
160
224
144
-80
-112
-48
-128
-144
-16
176
272
-64
-192
-80
-16
-176
-384
-192
336
352
-32
32
64
-32
0
80
112
0
-112
-144
-112
48
-80
-352
-304
128
352
96
-32
-16
112
128
128
144
-32
-224
-256
48
304
144
48
-16
-48
-48
-16
-144
-288
-144
80
160
48
0
-32
-48
32
80
48
48
32
0
-96
16
176
16
-384
-272
176
256
80
-16
-48
0
0
-16
-48
-80
-48
96
304
288
32
48
64
64
-64
-96
-192
-64
-32
-160
-64
64
16
16
16
64
80
-16
-144
-160
-112
-48
-64
-48
144
176
16
0
-16
0
-16
16
160
224
0
-352
-144
160
48
16
16
48
0
-96
-48
48
32
48
-16
-80
-192
-208
-48
-32
16
112
32
-240
-128
96
112
64
48
16
32
16
0
-16
-48
-48
32
64
32
-48
-32
96
80
-16
-96
-64
0
-16
-144
-240
-16
224
224
-16
-160
-32
32
16
0
80
112
-32
-112
32
112
80
80
32
0
-16
-96
-128
-80
-32
-240
-224
16
64
-96
-48
192
208
112
64
64
-16
-32
16
96
80
32
-16
-16
48
-16
-96
-112
-48
-64
-32
160
176
128
48
-128
-208
-144
-112
-32
32
-16
-80
-128
-64
128
240
176
-48
-96
32
208
80
-144
-256
-320
-192
48
192
80
-48
-32
48
64
16
16
80
96
112
160
32
16
144
144
-80
-208
-224
-48
80
96
0
-208
-288
-144
224
288
16
-128
32
96
80
-32
0
48
16
16
32
16
-16
-16
-32
16
0
-128
-224
-256
-32
64
-144
-384
-288
112
336
112
64
80
144
112
80
80
160
144
16
128
48
-176
-240
-48
16
96
-16
-144
-96
-16
-32
32
80
48
0
0
16
-48
-272
-320
-16
272
240
160
48
-16
0
0
32
-16
-16
-32
-32
-32
-16
32
-176
-416
-160
288
272
80
16
-64
-80
0
80
16
16
48
-48
-64
0
96
-48
-176
-176
64
208
32
-48
-16
48
112
80
240
336
80
-144
-112
-256
-304
-160
16
80
80
0
-48
16
96
48
-32
-80
-176
-192
-16
160
48
-48
0
32
32
-32
-48
48
64
-16
-64
-112
-64
48
-96
-192
0
208
224
0
-128
-48
16
64
32
-16
-16
16
32
32
48
32
-16
-64
-80
-48
0
-32
-16
32
32
16
48
64
32
-32
-80
-48
0
32
16
-16
16
48
48
32
32
48
0
-64
-32
-16
0
32
48
16
-80
-96
-16
16
0
0
-16
16
32
16
32
16
-16
-32
-48
-16
16
32
0
-48
-64
-16
16
32
48
16
16
80
64
-64
-32
0
0
-48
-32
-16
0
32
48
16
-32
-32
0
32
48
16
-16
-48
-32
16
16
0
-32
-80
-48
0
0
48
48
16
16
16
0
16
32
32
-32
-48
-48
-32
32
32
-32
-64
-64
-16
32
48
32
16
16
16
0
0
16
16
-16
-32
0
16
16
16
-16
-32
-16
16
48
48
48
16
-16
-16
0
0
16
16
-16
-16
16
32
32
0
-32
-32
-16
16
32
32
16
0
0
0
0
0
16
16
0
-16
0
16
0
-16
-48
-32
0
32
32
32
32
0
0
0
0
0
16
16
-16
-16
0
16
16
16
-16
-16
0
16
32
32
32
0
0
0
0
0
16
16
-16
-16
0
16
16
16
-16
-16
0
16
32
32
16
16
0
16
0
0
16
32
32
32
16
0
0
0
0
16
32
32
16
0
16
16
16
16
0
0
0
16
32
32
16
0
0
16
16
16
16
16
0
0
0
16
16
16
0
0
16
16
32
32
16
16
0
16
16
0
16
16
0
0
0
16
16
16
0
0
16
16
32
32
32
16
0
0
16
16
16
16
0
0
16
16
16
16
0
-16
0
16
32
32
16
0
0
0
0
0
16
16
0
0
0
16
16
16
0
0
0
16
32
32
16
0
0
0
0
0
16
16
0
0
0
16
16
16
0
0
16
16
16
16
16
16
0
0
0
0
16
16
0
0
16
16
16
16
0
0
16
16
32
32
16
0
0
0
-16
0
16
16
0
0
16
16
16
16
0
0
0
16
16
16
16
0
0
16
0
0
16
0
0
0
0
16
16
16
0
0
0
16
16
16
16
0
0
0
0
0
16
0
0
0
0
16
16
16
0
0
0
0
16
16
16
16
0
0
0
0
0
16
0
0
16
16
16
16
16
16
16
16
16
16
16
0
0
-16
-16
-16
0
0
0
0
16
16
16
16
0
0
0
16
16
0
0
-16
-16
-16
-16
0
0
0
0
-16
0
0
0
0
0
0
0
16
16
16
0
0
-16
-16
0
0
16
16
0
0
0
0
16
16
0
0
0
0
16
0
0
0
-16
0
0
0
0
0
0
-16
-16
0
0
0
0
0
0
0
0
0
0
0
0
0
0
0
0
0
0
0
0
0
0
0
0
0
0
0
0
0
0
-16
-16
-16
-16
0
0
0
-16
-16
0
0
0
0
-16
-16
0
0
0
0
0
0
0
0
0
0
0
0
-16
-16
0
0
0
0
0
0
0
0
16
0
0
0
0
-16
-16
-16
0
-16
-16
-16
0
0
0
0
0
0
0
16
16
0
-16
-16
-16
-16
-16
-16
0
0
0
0
16
16
0
0
0
0
0
0
0
0
0
0
-16
-16
-16
-16
0
-16
-16
-16
0
0
0
0
0
0
0
0
0
0
0
0
-16
0
0
0
0
0
-16
-16
0
0
16
0
0
-16
0
0
16
16
0
-16
-16
-16
-16
-16
-16
-16
-16
-16
0
0
0
0
0
0
0
0
16
0
0
-16
-16
-16
-16
-16
0
0
-16
-16
-16
0
0
0
0
0
0
0
0
0
0
0
0
0
0
0
0
0
-16
-16
0
0
0
0
-16
0
0
0
0
0
-16
-16
-16
-16
-16
-16
-16
0
0
0
0
0
0
0
-16
0
0
16
16
0
0
0
0
-16
-16
-16
-16
-16
-16
-16
0
0
0
0
0
0
0
0
0
0
0
-16
-16
-16
-16
-16
0
0
-16
0
0
0
0
0
0
0
0
-16
0
0
0
-16
-16
-16
-16
0
0
0
0
0
-16
0
0
0
0
0
0
0
0
0
0
0
0
0
-16
-16
-16
-16
-16
0
0
0
0
0
0
0
0
0
0
0
0
0
0
0
0
0
-16
-16
0
0
-16
-16
0
0
0
0
0
0
0
0
0
0
0
0
0
0
0
0
-16
-16
0
0
0
0
0
0
0
0
0
0
-16
-16
-16
-16
-16
-16
-16
-16
-16
0
0
0
0
0
0
0
0
0
0
0
0
-16
-16
-16
-16
-16
-16
-16
-16
-16
0
0
0
0
0
0
0
0
0
0
0
0
0
-16
-16
-16
-16
-16
-16
-16
-16
0
0
0
0
0
0
16
16
16
0
0
-16
-16
-16
-16
-16
-16
-16
-16
-16
-16
0
0
0
0
0
0
0
0
0
0
0
-16
-16
-16
-16
-16
-16
0
0
0
0
0
0
0
0
0
0
0
-16
-16
-16
-16
-16
-16
-16
-16
-16
-16
0
0
0
0
0
0
0
0
0
0
-16
-16
-16
-16
-16
-16
-16
-16
-16
-16
0
0
0
0
0
0
0
0
0
0
0
0
0
0
0
-16
-16
-16
-16
-16
0
0
0
0
-16
0
0
0
0
0
0
0
0
-16
-16
-16
-16
-16
-16
-16
0
0
0
0
-16
0
0
0
0
0
0
-16
-16
-16
-16
-16
0
0
0
0
0
0
0
0
0
0
0
0
0
0
0
-16
-16
-16
-16
-16
0
0
0
0
0
0
0
0
0
0
0
0
0
0
0
0
-16
-16
-16
-16
0
0
0
0
0
-16
-16
-16
0
0
0
0
0
0
0
0
0
-16
-16
-16
-16
-16
-16
-16
-16
0
0
0
0
0
0
0
0
0
0
0
-16
-16
-16
-16
-16
-16
-16
-16
-16
0
0
0
0
0
0
0
0
-16
-16
-16
-16
-16
-16
-16
-16
-16
-16
-16
0
0
0
0
0
0
0
0
0
0
0
0
0
-16
-16
-16
-16
-16
-16
-16
-16
-16
0
0
0
0
0
0
0
0
0
0
0
-16
-16
-16
-16
-16
-16
-16
-16
0
0
0
0
0
0
0
0
0
0
-16
-16
-16
-16
-16
-16
-16
-16
-16
-16
0
0
0
0
0
0
0
0
0
0
0
-16
-16
-16
-16
-16
-16
-16
-16
0
0
0
0
0
0
-16
-16
0
-16
-16
-16
-16
-16
-16
-16
-16
-16
-16
-16
-16
0
0
0
0
0
0
0
0
0
-16
-16
-16
-16
-16
-16
0
-16
-16
-16
-16
-16
-16
0
0
0
0
0
0
0
0
-16
-16
0
-16
-16
0
0
-16
-16
-16
-16
-16
0
0
0
0
0
0
0
0
0
0
0
-16
-16
-16
-16
-16
-16
-16
-16
-16
0
0
0
0
0
0
0
0
0
0
-16
-16
-16
-16
-16
-16
-16
0
0
0
0
0
0
0
0
0
0
0
0
0
-16
-16
-16
-16
-16
-16
0
0
0
0
0
-16
0
0
0
0
0
0
-16
-16
-16
-16
-16
-16
-16
-16
-16
-16
-16
0
0
0
0
0
0
-16
-16
0
0
0
0
-16
-16
-16
-16
-16
-16
0
0
0
0
0
0
0
0
0
0
0
0
-16
-16
-16
0
0
0
0
0
-16
-16
0
0
0
0
0
0
0
0
0
-16
-16
-16
-16
-16
-16
-16
-16
-16
-16
-16
0
0
0
0
0
0
0
0
0
-16
-16
-16
-16
-16
-16
-16
-16
-16
-16
0
0
0
0
0
0
0
0
0
0
0
0
-16
-16
-16
-16
-16
-16
-16
-16
0
0
0
0
0
0
0
0
0
0
-16
0
0
0
0
-16
-16
-32
-16
-16
0
0
0
0
0
-16
0
0
0
0
-16
-16
-16
-16
-16
-16
-16
-16
0
0
0
0
0
0
0
0
0
0
0
0
0
-16
-16
-16
-16
-16
-16
-16
-16
0
0
0
0
0
0
0
0
0
0
0
0
0
0
-16
-16
-16
-16
-16
-16
0
0
0
0
0
0
0
0
0
0
0
-16
-16
-16
-16
-16
-16
-16
-16
-16
-16
0
0
0
0
0
0
0
0
0
0
0
0
-16
-16
-16
-16
-16
-16
-16
-16
0
0
0
0
0
16
16
16
0
0
-16
-16
-16
-16
-16
-16
0
0
-16
-16
-16
-16
0
0
-16
0
0
-16
-16
-16
-16
-16
0
0
-16
-16
-16
-16
-16
0
0
0
0
0
16
16
0
16
0
0
0
0
-16
-16
-16
0
0
0
0
0
0
0
0
0
0
0
0
0
0
0
0
0
-16
-16
-16
-16
-16
-16
-16
-16
0
0
0
0
0
0
0
0
0
0
0
0
0
0
0
0
0
-16
-16
-16
0
0
0
0
0
0
0
0
0
0
0
0
0
-16
-16
-16
-16
-16
-16
-16
-16
0
0
0
0
0
0
0
0
0
0
0
0
-16
-16
-16
-16
-16
-16
0
0
0
0
0
0
0
0
0
0
0
0
0
0
0
0
0
0
0
0
-16
-16
-16
-16
0
0
0
0
0
0
0
0
0
-16
-16
-16
-16
-16
-16
0
0
0
0
0
0
0
0
0
0
0
0
0
-16
-16
-16
-16
-16
-16
-16
-16
0
0
0
0
0
0
0
0
0
0
0
0
-16
-16
-16
-16
-16
-16
-16
-16
0
0
0
0
0
0
0
0
0
16
0
0
-16
-16
-16
-16
-16
-16
-16
-16
-16
0
0
0
0
0
0
0
0
0
0
0
0
0
-16
-16
-16
-16
-16
-16
-16
-16
0
0
0
0
0
0
0
0
0
0
0
-16
-16
-16
-16
-16
-16
0
0
16
16
16
16
16
0
0
0
0
0
-16
-16
-16
-16
-16
-16
-16
-16
-16
-16
-16
-16
0
0
0
0
0
0
0
0
0
-16
-16
-16
-16
-16
-16
-16
-16
0
0
0
0
0
0
0
0
0
0
0
0
0
0
-16
-16
-16
-16
-16
-16
-16
-16
-16
0
0
0
16
0
16
0
0
-16
-16
-16
-16
-16
-16
-16
-16
-16
-16
-16
0
0
0
0
0
0
0
0
0
0
0
0
0
0
0
0
0
0
-16
-16
-16
-16
0
0
0
0
0
0
0
0
0
0
-16
-16
-16
-16
-16
-16
0
0
0
0
0
0
0
0
0
0
0
0
0
-16
-16
-16
-16
-16
-16
-16
-16
-16
0
0
0
0
0
0
0
0
0
0
0
-16
-16
-16
-16
-16
-16
-16
-16
0
0
0
0
0
0
0
0
0
0
0
0
0
-16
-16
-16
-16
-16
-16
-16
0
0
0
0
0
0
0
0
0
0
-16
-16
-16
-16
-16
-16
-16
-16
-16
0
0
0
0
0
0
0
0
0
0
0
-16
-16
-16
-16
-16
-16
-16
-16
-16
-16
-16
0
0
0
0
0
0
0
0
0
0
0
0
-16
-16
-16
-16
-16
-16
-16
-16
-16
-16
-16
0
-16
-16
-16
-16
-16
-16
0
0
-16
-16
-16
-16
-16
0
0
0
0
0
0
0
0
0
0
0
0
0
0
0
-16
-16
-16
-16
0
0
0
0
0
0
0
0
0
0
0
16
0
0
0
0
-16
-16
-16
-16
-16
-16
-16
0
0
0
-16
-16
-16
0
0
0
0
-16
-16
-16
-16
-16
-16
-16
-16
-16
-16
0
0
0
0
0
0
0
0
16
16
0
0
0
0
0
-16
-16
-16
-16
-16
-16
-16
0
0
0
0
0
0
0
0
0
-16
-16
-16
-16
-16
-16
-16
-16
-16
-16
0
0
0
0
0
0
0
0
0
0
0
-16
-16
-16
-16
-16
-16
-16
-16
-16
0
0
0
0
0
0
0
0
0
0
0
0
-16
-16
-16
-16
-16
-16
-16
-16
-16
0
0
0
0
0
0
0
0
0
0
-16
-16
-16
-16
-16
-16
-16
-16
-16
-16
-16
-16
0
0
0
0
0
0
0
0
-16
-16
-16
-16
-16
-16
-16
-16
-16
-16
-16
0
0
16
16
16
16
0
-16
-16
-16
-16
-16
-16
-16
0
0
0
0
0
0
0
16
16
16
0
0
0
0
0
0
0
-16
-16
-16
-16
-16
-16
-16
-16
0
0
0
0
0
0
0
0
0
0
-16
-16
-16
-16
-16
-16
-16
-16
0
0
0
0
0
0
0
0
0
0
0
0
-16
-16
-16
-16
-16
-16
-16
-16
-16
0
0
0
0
-16
-16
-16
0
0
0
0
0
0
0
-16
-16
-16
-16
0
0
0
0
0
0
0
0
0
0
0
-16
-16
-16
-16
-16
-16
-16
-16
-16
0
0
16
16
16
16
0
0
0
0
0
0
-16
-16
-16
-16
-16
-16
-16
-16
-16
-16
-16
-16
-16
-16
-16
0
0
0
0
0
-16
-16
-16
-16
-16
-16
-16
-16
-16
-16
0
0
0
0
0
0
0
0
0
0
0
-16
0
-16
0
0
0
-16
-16
-16
0
0
0
0
0
-16
-16
-16
0
0
0
-16
-16
-16
-16
-16
-16
-16
-16
-16
-16
-16
0
-16
-16
-16
-16
-16
-16
-16
-16
-16
-16
-16
-16
0
-16
-16
-16
-16
-16
-16
-16
-32
-16
-16
-16
-16
-16
0
0
0
0
0
0
0
0
0
0
0
0
-16
-16
-16
-16
-16
-16
-16
-16
-16
-16
-16
0
0
0
0
0
0
0
0
0
0
0
-16
-16
-16
-16
-16
0
0
0
0
16
0
0
-16
0
-16
-16
-16
-16
-16
-16
-16
-16
-16
0
-16
-16
0
0
0
0
0
0
0
0
0
0
0
-16
-16
-16
-16
-16
-16
-16
-16
-16
-16
-16
-16
-16
0
0
-16
-16
-32
-32
-32
-32
-16
0
-16
-16
-16
-16
-16
0
0
0
16
16
16
0
0
0
0
0
0
-16
-16
-16
-16
-16
-16
0
0
0
0
0
0
-16
0
0
0
-32
-16
-16
-16
-16
0
-32
-32
-16
-16
-32
-32
-32
-48
-48
-16
-32
-48
-16
0
0
16
48
48
0
16
64
64
32
0
0
-16
-48
-48
-64
-64
-64
-64
-48
0
16
0
-16
48
64
48
32
16
-16
-48
-80
-64
-64
-48
-32
-32
-16
32
32
32
32
16
32
48
16
0
-32
-48
-80
-32
16
16
-16
-32
-32
-48
-48
-16
16
0
0
16
48
0
-32
-96
-128
-64
-48
-16
-16
32
16
16
16
-16
-64
-64
16
48
16
-32
-16
-32
-48
-32
0
-16
0
0
-80
-128
-32
48
80
112
96
32
-48
-96
-144
-112
-64
-16
32
32
-64
-128
-64
-16
-32
-64
-64
-48
-32
32
96
80
0
-96
-144
-144
-96
-96
-64
16
64
64
32
-32
-64
-32
32
32
0
-112
-96
-32
-64
-16
-32
-64
-32
0
-80
-160
-176
-208
-80
112
176
96
-32
-48
-16
0
16
-32
16
128
160
112
16
0
-64
-112
-144
-112
-80
-48
80
96
-32
-32
-32
-160
-192
-80
16
0
-80
-32
-16
-16
-48
-64
-112
-80
48
112
-32
-96
-64
0
64
176
96
16
-48
-96
-80
-64
-48
0
32
80
-16
-16
48
32
-112
-224
-128
128
128
-80
-176
-176
-128
-48
96
272
288
64
-80
-128
-112
32
96
-16
-144
-208
-64
32
-32
-144
-80
96
96
16
-80
-128
-96
-64
64
96
112
48
-112
-208
-192
0
112
240
-96
-176
32
80
16
0
-48
-144
-256
-144
32
80
-32
0
32
-16
0
64
80
32
-144
-208
-96
96
128
-80
-352
-128
192
272
160
32
32
-16
-80
-160
-144
-160
-112
-16
208
144
-96
-192
-80
-32
16
0
-80
-80
-80
-64
0
32
32
-32
-32
-16
-48
16
144
80
0
48
304
176
0
-128
-176
-96
-80
-80
0
16
-64
0
32
-112
-144
-160
-128
-32
-32
-112
-32
192
352
-64
-512
-464
-96
272
304
176
-144
-272
-192
-32
128
128
32
-112
-224
-96
144
224
80
0
112
176
0
-64
32
-96
-112
-48
-32
-32
-128
-128
64
144
16
-112
-128
-240
-352
-176
-32
-16
48
80
0
-48
48
16
-32
-48
80
112
128
32
-48
-32
-64
0
160
144
0
-304
-304
-48
48
0
-32
32
64
-32
-32
-224
-352
-304
112
288
16
-64
144
-48
-224
-32
160
256
96
-112
-48
-32
-64
32
32
-80
-96
32
96
48
-112
-128
96
80
-64
-48
-160
-272
-256
48
144
32
-128
-16
-16
-16
96
48
32
128
144
-80
-128
32
128
16
-80
-144
-80
-192
-112
80
208
128
-32
-80
-64
16
96
-64
-80
48
64
80
-80
-64
16
0
-96
-32
-64
-96
-32
32
32
-32
-64
-32
-128
-208
-64
160
240
176
96
16
-32
80
0
-256
-272
-80
0
-160
-224
-32
-16
-48
-32
64
96
64
-32
64
32
0
64
-16
-16
32
-32
-112
-160
-48
64
48
-48
-48
-16
64
16
-48
-64
32
80
48
128
208
160
32
-80
-96
-80
-48
-48
-96
-96
0
16
-48
-80
16
112
0
-96
16
144
-48
-96
-16
-16
-64
-64
-64
-80
-128
-160
-64
0
48
64
32
64
0
0
-48
-48
-48
32
48
48
-16
-32
16
96
112
-48
-64
0
0
-64
16
-32
-96
-144
-208
-144
-80
-16
48
272
272
64
-32
-16
112
96
-16
-112
-96
-176
-240
-128
64
192
256
128
-48
-192
-208
-16
112
16
-96
-64
160
144
48
-48
-16
64
-32
-32
144
176
0
-160
-176
-112
-16
-48
32
160
160
16
-144
-96
64
32
-64
48
48
-64
-64
80
128
16
-16
32
64
-32
-128
-128
-80
16
-32
-32
128
336
320
-160
-464
-256
96
64
16
0
-144
-208
-16
224
336
224
-176
-192
-64
80
16
-128
-128
80
176
80
32
64
128
112
-32
-128
-112
-80
-144
-128
96
160
160
48
-16
-16
16
-16
32
16
-48
32
0
-160
16
464
432
-128
-320
-160
-48
-64
-96
-16
32
0
16
208
352
80
-176
-224
48
128
64
-48
-96
-144
-16
384
288
48
-64
-80
-48
-80
-48
-32
-64
-48
-32
-32
-64
-32
32
160
112
-64
-32
144
96
-32
-48
-32
-96
-32
0
16
16
-64
-112
16
-32
0
48
96
96
32
-48
-64
16
0
-96
-160
-128
16
80
16
-32
112
80
64
144
176
112
80
80
128
-80
-384
-352
-112
128
-32
-80
0
-32
48
240
208
64
0
0
128
128
-96
-240
-160
16
144
112
-32
-112
-112
-96
-16
32
48
32
-16
-80
-96
-96
32
352
496
80
-160
-80
-32
64
80
-16
-48
-16
-48
-96
-64
-128
-128
-96
-48
16
16
32
32
0
16
160
48
-16
-80
-128
-48
64
48
16
-80
-128
-80
16
48
272
176
-96
-112
-32
16
0
-32
-32
32
160
208
48
80
64
-208
-288
-96
144
192
32
-32
-64
-112
-80
48
96
32
-48
0
32
-32
-80
-64
128
96
64
-48
-96
32
112
48
48
48
16
-80
-32
128
96
-128
-144
-144
-48
0
0
48
128
16
-64
16
-32
-128
-160
-80
160
192
128
192
224
128
-192
-208
-32
16
-96
-112
-32
80
80
48
0
-96
-64
0
0
-32
-16
0
32
-16
16
96
144
144
16
-64
-96
-80
-64
-48
-32
0
16
32
32
32
48
48
64
0
-160
-192
-16
64
-64
-144
-128
-16
144
128
64
32
-80
-176
32
496
416
-48
-176
-112
-112
-80
-96
-80
-64
0
32
32
16
-48
-32
80
112
32
-112
-208
-96
272
464
16
-192
-80
48
-16
-48
-16
0
16
-32
-48
-32
0
48
64
128
144
144
-16
-128
-32
-16
-16
64
192
32
-112
-144
-16
80
32
-32
-64
-112
-112
-80
-48
0
64
64
-64
-112
16
160
96
0
32
-32
-16
16
48
16
-48
-16
-16
-16
-16
-32
-112
-144
-48
32
144
160
32
-64
-16
64
112
64
16
64
32
-32
0
80
-32
-96
-96
-64
-16
0
80
208
144
-192
-192
-64
32
128
144
0
-64
16
48
-32
-32
-64
-96
-16
80
48
-96
-112
16
128
96
48
-16
-16
48
48
0
-112
-208
-288
-192
-64
256
352
224
-48
-144
-32
64
16
0
112
256
304
16
-128
-160
-112
-112
0
96
80
-64
-96
112
192
-48
-160
-160
-112
16
176
128
-48
-112
-80
0
64
48
16
48
80
0
-48
-80
-80
48
64
16
0
-48
-32
-16
-48
-48
0
-16
0
176
208
-64
-80
64
32
16
0
-48
-112
-64
48
-16
-112
0
144
192
176
80
-96
-112
-96
-48
-48
-112
-128
-80
-16
48
64
0
-16
-32
-96
-96
80
256
176
-16
-32
-48
-80
16
-64
0
112
128
96
144
-16
-64
-112
-128
16
96
-16
-32
-64
-96
-80
-112
-96
80
-16
-80
-80
-16
-32
224
352
80
-176
-64
96
48
-112
-64
64
64
-80
-112
-32
0
48
16
-16
0
0
16
-80
-144
16
160
160
160
64
-16
48
272
64
-160
-112
-96
0
0
-16
-48
-192
-304
-112
176
240
256
192
0
-112
-64
16
64
48
-32
-96
-112
-16
48
112
80
112
112
-96
-112
-64
16
32
-144
-160
80
224
16
-256
-224
48
224
32
-112
-112
-96
-48
-32
0
32
32
32
128
48
-48
-32
112
240
128
16
-64
-80
0
144
64
-16
-80
-32
-64
-80
0
-16
-48
0
96
64
-112
-176
-128
0
192
320
272
-16
-192
-192
-96
-128
0
160
0
-64
-16
64
112
0
-80
-32
-16
-32
-48
-80
-64
-64
-32
80
192
176
0
-80
-16
64
0
-48
-32
32
96
64
80
96
48
-80
-144
-224
-208
-64
112
144
224
96
-80
-176
-112
16
160
128
-64
-48
48
96
144
128
-64
-144
-48
32
32
-32
-64
-32
96
96
16
-64
-48
0
-80
-144
-128
-16
144
32
-64
-64
0
16
64
16
-48
0
160
144
-64
-160
-64
32
64
48
80
48
-32
-64
-32
-32
-32
16
16
112
80
64
-16
-64
-64
-48
-80
-64
-48
64
128
48
16
32
80
-32
-96
96
160
64
-112
-112
-96
-80
64
112
-16
-48
-32
-96
-48
128
96
32
48
64
16
-128
-112
0
48
0
0
-48
-112
-32
80
160
128
-48
-48
16
-48
-128
-64
64
112
64
-16
16
32
112
160
-32
-112
-80
-16
0
16
0
16
16
-32
-32
0
64
0
-16
96
160
112
-112
-80
64
16
0
32
48
-32
-16
80
112
64
32
-80
-160
-128
-16
80
-48
-80
-16
0
48
16
-32
-80
64
160
192
176
16
-160
-96
64
176
128
-96
-128
16
-16
-16
0
-48
-32
-16
32
-32
-144
-32
176
320
48
-128
-80
-16
64
112
96
80
0
-96
-80
0
48
32
-16
-16
64
80
-144
-256
16
96
80
160
48
-48
-64
-48
-16
0
16
16
0
-48
-80
-48
96
176
224
144
16
16
80
80
-160
-288
-80
112
128
-32
16
16
-16
-16
-32
-48
0
-80
-144
-64
32
144
144
144
128
32
32
0
-48
-32
160
208
-48
-400
-304
192
384
128
-48
-80
-64
-16
16
48
0
-48
-80
-64
96
32
16
160
160
-96
-80
112
224
96
-96
-64
80
112
-80
-112
16
0
-64
-128
-160
-144
-32
32
192
352
224
-96
-112
-128
-48
-64
-96
-16
96
48
48
80
16
-48
-32
32
32
48
32
48
112
64
16
64
64
16
48
-48
-128
-96
64
112
96
240
288
32
-80
-16
96
128
80
-16
-48
48
64
0
-80
-80
0
32
48
32
32
16
16
-48
-32
208
288
144
-80
-128
-80
-48
-16
-48
-32
112
144
48
80
128
32
-16
16
48
80
32
-80
-48
-32
-32
16
0
-48
80
208
80
-32
0
128
96
-64
-96
-64
-16
-16
16
80
96
48
64
48
-96
-224
-144
176
400
144
160
80
-112
-144
-96
-16
0
16
-32
-32
64
144
144
64
32
48
80
128
16
-64
-64
32
112
48
-16
-144
-176
-64
-16
16
16
-80
-112
-112
64
304
272
96
32
48
48
-32
-64
96
144
0
-48
-32
-16
-16
0
48
-16
-16
64
80
48
32
48
32
16
64
32
-80
-64
-64
-16
16
16
0
0
-32
-144
-112
16
16
80
240
288
128
144
64
-112
-160
-144
-64
-32
-64
-48
32
64
48
48
64
112
224
224
16
-160
-112
-128
-112
0
48
48
80
176
48
-64
-32
48
48
0
16
48
-16
-80
0
128
208
-80
-160
-16
64
80
32
-16
-64
-80
-64
-32
48
48
16
-16
16
80
0
-80
-32
-16
-48
-32
16
112
96
16
-32
32
112
80
96
80
-16
-48
64
64
0
-32
-128
-144
-64
80
128
16
-64
-48
32
32
48
48
48
16
32
128
128
-48
-128
-96
-32
0
-32
-48
-48
-64
0
96
80
32
0
16
48
16
-16
0
16
48
-32
-96
-48
-16
32
48
32
-48
-32
144
96
32
-32
-80
-32
-16
-96
0
80
192
128
-32
-208
-128
32
48
16
48
64
16
-32
-16
0
0
-16
0
-16
-32
32
32
-64
-64
0
-16
-16
0
96
32
16
64
96
16
-32
64
80
48
-16
-80
-64
16
16
-96
-128
-112
-16
64
48
-16
0
48
64
48
48
16
-48
-96
-64
16
32
-16
48
32
16
-48
-32
32
48
0
0
32
16
32
-16
-16
96
16
0
-32
-32
-16
-48
-48
16
16
16
128
176
80
-128
-192
-64
-16
-48
16
80
80
64
32
-16
-64
-80
16
80
64
-16
32
-48
-128
-16
0
-64
-32
16
48
64
48
0
16
48
0
-16
16
80
128
96
-64
-96
-48
-32
0
-64
-144
-160
-96
48
48
64
32
16
80
16
-32
32
0
-96
-48
0
-48
-64
-48
16
96
112
80
0
-32
32
96
48
80
32
-48
-80
-64
-48
-32
-48
0
48
80
64
0
16
32
16
-32
-16
-16
-16
-32
-16
16
16
0
-16
16
32
16
-16
-16
0
-48
-64
-16
0
0
-16
32
48
16
16
0
0
0
-48
-80
-48
32
64
64
0
0
16
16
16
0
-32
-32
-16
0
0
0
0
-16
16
16
0
-16
-32
-48
-32
32
112
64
32
0
-16
-32
-32
-32
-32
0
0
-16
-32
-16
16
0
0
0
32
0
-32
-48
0
112
32
-64
-16
80
32
-32
-32
-48
0
16
-16
-32
-16
0
32
0
0
32
48
-16
-48
-16
-16
-16
-16
0
16
0
0
-16
-32
-16
16
32
48
32
0
-16
-16
-16
-16
-16
0
32
48
48
32
-16
-48
-32
-16
-16
0
0
0
0
0
0
0
16
0
0
16
0
-16
-32
-32
-16
0
-16
-16
0
16
16
16
16
16
16
16
16
0
16
16
0
0
0
-16
-16
-32
-64
-32
16
32
48
64
48
0
-16
0
0
16
32
16
0
0
0
-16
0
16
0
16
16
16
0
0
-16
0
16
0
32
0
0
16
16
32
16
16
0
0
-32
-16
-16
0
0
16
16
16
16
0
0
16
16
16
0
-16
-16
-16
0
16
0
0
0
0
0
0
0
0
16
0
16
16
16
16
0
0
-16
-16
0
16
0
0
0
0
0
0
16
16
16
0
0
0
0
16
16
0
-16
-16
-16
0
0
0
0
0
0
0
0
16
16
16
0
-16
-16
0
-16
-32
-32
-16
-16
0
0
-16
-16
-16
-16
-16
0
16
16
0
16
16
16
0
0
0
-16
-16
-16
0
-16
-16
-16
0
0
0
0
0
0
0
0
-16
0
16
16
0
-16
-32
-16
-16
-16
-16
-16
0
0
0
0
0
0
0
0
0
0
0
-16
-16
-16
-16
-16
0
0
-16
0
0
0
-16
-16
-16
-16
-16
-16
-16
0
0
0
-16
-16
-16
-16
0
-16
-16
-16
-16
-16
0
0
0
0
0
0
0
0
0
-16
-16
-16
-16
-16
-16
-16
-32
-32
-32
-16
-16
-16
-16
-16
-16
-16
0
0
-16
-16
-16
-16
0
-16
-16
-16
-16
-16
-16
-16
-16
-16
-16
0
0
0
0
0
-16
-16
-16
-16
-16
-16
-16
-32
-32
-32
-16
-32
-16
0
0
-16
-16
-16
0
0
0
-16
-16
-16
-16
-16
-16
-16
-16
-16
-16
-16
-16
-16
-16
-16
-16
-16
-16
0
0
-16
-16
-16
-32
-16
-16
-16
-16
-16
-16
-16
-16
-16
-16
-16
-16
-16
-16
-16
0
-16
-16
-16
-32
-16
-16
-16
-32
-16
-16
-16
-16
-16
-16
-16
-16
-16
-16
-16
0
-16
-16
-16
-16
-16
-16
-16
-16
-16
-16
-16
-16
-16
-16
-16
-16
-16
-32
-32
-32
-32
-16
-16
-16
-16
-16
-16
-32
-32
-16
-16
-16
-32
-16
-16
-16
-16
-16
-16
-16
-16
-16
-16
-16
-16
-16
-16
-16
-16
-16
-16
-16
-16
-16
-16
-16
0
-16
-16
-16
-16
-16
-16
-16
-16
-16
-16
-16
-16
-32
-32
-16
-16
-16
-16
-16
-16
-16
-16
-16
-16
-16
0
-16
-16
-16
-16
-16
-16
-16
-32
-32
-32
-16
-16
-16
-16
0
0
0
-16
-32
-16
-16
-16
-16
-32
-32
-32
-32
-32
-32
-32
-32
-16
-16
-16
-16
-16
-16
-16
-16
-16
-16
-16
-16
-32
-32
-16
-16
-16
-16
-16
-16
-16
-16
-16
-16
-16
-16
-16
0
-16
-16
-16
-16
-32
-32
-16
-16
-16
-16
-32
-32
-32
-32
-16
-16
-16
-16
-16
-16
-32
-32
-16
-16
-32
-16
-16
-32
-32
-16
-16
-16
-16
-16
-16
-16
0
0
0
0
-16
-16
-16
-16
-16
-32
-32
-32
-32
-32
-32
-32
-16
-16
-16
-16
-16
-16
-16
-16
-16
-32
-32
-32
-32
-32
-32
-32
-32
-32
-16
-16
-16
-16
-16
-16
-16
-16
-16
-16
-16
-16
-16
-16
-16
-16
-16
-16
-32
-32
-32
-32
-16
-16
0
0
-16
-16
-16
-16
-16
-32
-16
-16
-32
-32
-32
-16
-16
-16
-16
-16
-16
-16
-16
-16
-16
-16
-16
-16
-16
-16
-16
-32
-32
-32
-32
-16
-16
-16
-16
-16
-16
-16
-16
-16
-16
-16
-16
-16
-32
-48
-48
-48
-48
-16
0
16
16
0
-16
-48
-64
-48
-32
-32
-32
-32
-32
-16
-16
-16
-16
-32
-64
-80
-112
-112
-64
32
96
48
32
16
16
16
0
0
0
0
-16
-32
-16
-16
-16
-32
-16
-16
-16
-16
-16
0
-16
-16
-16
-16
-16
-16
-16
-16
-16
-16
-16
-16
-16
-16
-16
-16
-16
-16
-32
-16
-16
-16
-16
-16
-16
0
-16
-16
0
0
0
0
0
-16
-48
-48
-32
-32
-16
0
-16
-16
-16
-16
-16
-16
-16
-16
-16
-16
-16
-16
-16
-16
-16
-16
-32
-32
-32
-16
-16
-32
-32
-48
-48
-32
32
32
16
16
0
0
-16
-48
-48
-48
-48
-32
-32
-16
0
0
-16
-32
-32
-48
-48
-32
-16
0
0
16
0
0
0
0
-16
-16
-32
-16
-16
-16
-16
0
0
0
-16
-16
-16
-16
-16
-16
-16
-16
-16
-16
-16
-32
-32
-32
-16
-16
-16
0
0
0
0
0
-16
-16
-16
-16
-16
-16
-16
-16
-32
-32
-32
-32
-16
-16
-16
0
0
0
0
0
-16
-16
-16
-16
-16
-16
-16
-16
-16
-16
-32
-32
-32
-16
0
0
0
0
-16
-48
-48
-48
-32
-16
-16
0
0
0
0
-16
-32
-16
-16
-16
0
0
0
0
0
0
0
-16
-16
-16
-16
-16
-16
-16
-32
-32
-32
-16
-16
-16
-16
0
0
0
0
0
0
-32
-32
-32
-32
-32
-32
-32
-32
-32
-32
-16
-16
-16
0
0
0
-16
0
0
0
-16
-16
-16
-32
-32
-32
-32
-32
-32
-32
-16
-16
-16
0
0
0
-16
0
0
0
-16
-16
-16
-16
-16
-32
-32
-48
-48
-48
-32
0
0
0
0
16
16
16
0
0
0
-16
-48
-48
-48
-48
-48
-32
-16
0
0
0
-16
-16
-32
-16
-16
0
16
16
0
-16
-16
-16
-32
-32
-32
-32
-16
-16
-16
-16
-16
-16
0
-16
-16
-16
0
0
0
-16
-16
-16
-16
-16
-16
-16
-16
-16
-16
-16
-16
-16
0
-16
-16
-16
0
0
0
0
-16
-16
-16
-32
-16
-16
-16
-16
-16
-16
-16
-16
0
0
0
0
0
-16
-32
-32
-32
-32
-32
-32
-32
-16
-16
0
0
0
0
-16
-16
-16
-16
-16
-16
-16
-16
0
-16
-16
-32
-32
-32
-32
-32
-16
0
0
0
0
0
0
0
0
0
0
-16
-16
-16
-16
-16
-16
-16
-32
-32
-32
-32
-16
-16
0
0
16
16
-16
-16
-16
-16
-16
-16
-16
-16
-16
-16
-16
-16
-16
-16
-16
-16
-16
-16
-16
-16
-16
-16
0
-16
-16
-16
-16
-16
-16
-16
-16
-16
-32
-16
-16
-16
-16
-16
-16
-16
0
0
0
0
0
0
0
-16
-16
-16
-16
-16
-32
-32
-32
-32
-32
-16
-16
-16
-16
-16
0
0
0
0
-16
-16
-16
-16
-16
-16
-16
-16
0
0
0
-16
0
0
0
0
0
-16
-16
-32
-32
-32
-16
-16
-16
-16
-16
-16
-16
-16
-16
0
0
0
-16
-16
-16
-16
-16
-16
-16
-16
-16
-16
-16
-16
-32
-32
-16
-16
-16
0
0
0
0
0
0
-16
-16
-16
-16
-16
-16
-16
-16
-16
-32
-16
-16
-16
-16
-16
-16
-16
-16
-16
-16
-16
-16
-16
-16
-16
-16
-16
-32
-16
-16
-16
-16
-16
-16
-16
-16
-16
-16
-16
0
-16
-16
0
0
-16
-16
-16
-16
-16
-16
-16
0
0
0
0
0
-16
-16
-16
-16
-16
-16
-16
-16
-16
-16
-16
-16
-16
-16
-16
-16
-16
0
0
0
0
0
0
0
-16
-16
-16
-16
-16
-16
-16
-16
-16
-16
-16
-16
0
0
0
0
0
0
0
0
-16
-16
-32
-16
-32
-32
-16
-16
-16
-16
-16
-16
-16
-16
0
0
0
0
0
0
-16
-16
-16
-16
-16
-16
-16
-16
-16
-16
-16
-16
-16
-16
0
0
-16
-16
-16
-16
-16
-16
-16
-16
-16
-16
-16
-16
-16
-16
-16
-16
-16
0
0
0
0
-16
0
0
0
-16
-16
-16
-16
-16
-16
-16
-16
-16
-16
-16
-16
-16
0
0
-16
-16
0
0
-16
-16
-16
-16
-16
-16
-16
-16
-16
-16
-16
-16
-16
-16
-16
-16
-16
-16
-16
0
0
0
-16
-16
-16
-16
-16
-32
-32
-16
-16
-16
-16
-16
-16
-16
-16
-16
-16
-16
-16
-16
-16
-16
-16
-16
-16
-16
-16
-16
-16
-16
-16
0
0
0
0
-16
-16
-16
-16
-16
-16
-16
-16
-16
-16
-16
-16
-16
-16
0
0
-16
-16
-16
-16
-16
0
0
0
0
-16
-16
-32
-32
-32
-16
-16
-16
-16
-16
-16
-16
-16
-16
-16
-16
0
0
0
-16
-16
-16
-16
-16
-16
-16
-16
-16
-16
-16
0
0
0
0
0
-16
-16
-16
-16
-16
-16
-16
-16
-16
-16
-16
-16
-16
-16
-16
-16
0
0
0
0
0
0
-16
-16
-16
-16
-16
-16
-16
-16
-16
-16
-32
-16
-16
-16
-16
0
0
0
0
0
0
-16
-16
-16
-16
-16
-16
-16
-16
-16
-16
-16
-16
-16
0
0
0
0
0
0
0
0
-16
-16
-16
-32
-32
-32
-16
-16
-16
-16
-16
-16
-16
-16
-16
-16
-16
-16
0
0
0
0
-16
-16
-16
-16
-16
-16
-16
-16
-16
-16
-16
-16
-16
-16
-16
-16
-16
-16
-16
-16
-16
-16
-16
-16
-16
-32
-32
-16
-16
-16
-16
-16
-16
-16
-16
-16
-16
0
0
0
-16
-16
-16
-16
-16
-16
-16
-16
-16
-16
-16
-16
0
0
0
0
0
0
0
0
-16
-16
-16
-16
-16
-16
-32
-32
-16
-16
-16
0
0
-16
-16
-16
-32
-32
-32
-16
-16
-16
-16
-16
-16
-16
-16
-16
-16
-16
-16
-16
-16
-16
-16
-16
0
0
0
0
-16
-16
-16
-16
-16
-16
-16
-16
-16
0
0
0
-16
-16
-16
-16
-16
-16
-16
-16
-16
-16
-32
-32
-32
-32
-16
-16
-16
-16
-16
0
0
0
0
0
0
0
0
0
0
-16
-16
-32
-16
-16
-16
-16
-16
-16
-16
-16
-16
-16
0
0
0
0
-16
-16
-32
-32
-16
-16
-16
-16
-16
0
0
0
0
-16
-16
-16
-16
-16
-16
0
-16
-16
-16
-16
-16
-32
-32
-32
-32
-32
-16
0
0
0
0
0
0
0
0
-16
-16
-16
-16
-16
0
0
0
0
-16
-16
-16
-16
-16
-16
-16
0
-16
-16
-16
0
0
0
0
-16
-16
-32
-32
-16
-16
-16
0
0
0
0
0
0
-16
-16
-16
-16
-16
-16
-16
-16
-16
-16
-16
-16
-16
-16
-16
-16
-16
0
0
0
0
0
0
0
-16
-16
-16
-16
-32
-16
-16
-16
-16
-16
-16
-16
-16
0
0
0
0
-16
0
0
0
-16
-16
-16
-16
-16
-16
-16
-16
-16
-16
-16
-16
0
0
0
0
0
0
0
-16
-16
-16
-32
-32
-16
0
-16
-16
-32
-16
-16
-16
-16
0
0
0
0
0
0
0
-16
-16
-16
-16
-16
-16
-16
-16
-16
-16
-16
-16
-16
-16
-16
-16
-16
0
0
0
0
0
-16
-16
-16
-16
-16
-16
-16
-16
-16
0
0
0
0
0
0
0
-16
-16
-16
-16
-16
-16
-16
-16
-16
-16
-16
-16
-16
-16
0
0
0
0
0
0
-16
-16
-32
-16
-16
-16
-16
-16
-16
-32
-32
-32
-16
-16
-16
0
-16
-16
-16
0
0
-16
-16
-16
-16
-16
-16
-16
-16
-16
-16
-16
-16
-16
0
0
0
0
0
0
0
-16
-16
-16
-16
-16
-16
-16
-16
-16
-16
-16
-16
-16
-16
-16
0
0
0
16
16
16
0
-16
-16
-16
-16
-32
-32
-32
-16
-16
-16
-16
-16
-16
-16
-16
-16
-16
-16
-16
-16
-16
-16
-16
-16
-16
-16
-16
-16
-16
-16
-16
-16
-16
-16
0
0
-16
-16
-16
-16
-16
-16
-16
0
0
0
-16
-16
-16
-16
-16
-16
-16
-16
-16
-16
0
0
-16
-16
-16
-16
-16
-16
-16
-16
-16
-16
-16
-16
-16
-16
-16
0
0
0
0
0
-16
-16
-16
-16
-16
-32
-32
-16
-16
-16
-16
-16
-16
-16
0
0
0
0
0
0
0
-16
-16
-16
-16
-16
-16
-32
-16
-16
-16
-16
-16
-16
-16
-16
-16
-16
-16
0
0
0
0
-16
-16
-16
-16
-16
-16
-16
-16
0
0
0
0
0
0
0
0
0
0
0
-16
-16
-32
-32
-32
-32
-32
-16
-16
-16
-16
-16
0
0
0
0
0
0
0
0
-16
0
0
-16
-16
0
-16
-16
-16
-16
-16
-16
-16
-16
-16
-16
-16
0
0
-16
-16
-16
-16
-16
-16
-16
-16
-16
-16
-16
-16
0
0
0
-16
-16
-16
0
0
-16
-16
-16
-16
-16
-16
-16
-16
-16
-16
0
0
0
0
16
0
0
-16
-16
-16
-16
0
0
-16
-16
-16
-16
-16
-16
-16
-16
0
0
0
0
0
0
0
0
0
-16
-16
-16
-16
-16
-16
-16
-16
-16
-16
-16
-16
-16
-16
0
0
0
0
0
0
0
-16
-16
-32
-32
-32
-32
-16
-16
-16
0
0
0
0
0
-16
-16
-16
0
0
0
0
-16
-16
-16
-16
-16
-16
-16
-16
-16
0
0
0
0
0
0
0
0
0
-16
-16
-16
-16
-16
-16
-16
-16
-16
-16
-16
0
0
0
0
0
0
0
0
0
0
0
-16
-16
-16
-16
-16
-16
-16
-16
-16
-16
-16
-16
-16
-16
0
0
0
0
0
0
0
-16
-16
-16
-16
-32
-32
-16
-16
-16
0
0
0
-16
-16
0
0
0
0
-16
-16
-16
-16
-16
-16
-16
-16
-16
-16
0
0
0
0
0
0
0
0
0
0
-16
-16
-16
-16
-16
-16
-16
-16
-32
-16
0
0
-16
0
0
0
0
0
0
-16
-16
-16
-16
-16
-16
-16
-16
-16
-16
-16
-16
-16
0
0
0
0
0
0
0
0
0
-16
-16
-16
-16
-16
-16
-16
-16
-16
-16
-16
-16
0
0
0
0
0
0
0
0
-16
-16
-16
-16
-16
-16
-16
-16
-16
-16
-16
-16
-16
0
0
0
0
0
0
-16
-16
-16
-16
-16
-16
-16
-16
-16
-16
-16
-16
0
0
0
0
0
0
0
-16
-16
-16
-16
-16
-16
-16
-16
-16
-16
-16
-16
0
16
16
0
0
0
0
0
0
0
-16
-16
-16
-32
-32
-16
-16
-16
-16
0
-16
-16
0
0
0
0
0
0
0
0
0
-16
-16
-16
-16
-16
-16
-16
-16
-16
-16
-16
0
0
0
0
0
0
-16
-16
-16
-32
-32
-32
-16
0
0
0
0
0
0
0
0
0
0
0
0
0
0
0
0
0
-16
-16
-16
-16
0
0
-16
0
0
0
0
-16
0
0
0
0
0
0
-16
-16
-16
-16
-16
-16
-16
-16
-16
-16
0
0
0
0
0
0
0
0
-16
-16
-16
-16
-16
-16
-16
-16
-16
-16
-16
-16
0
0
0
0
0
-16
-16
0
0
0
0
-16
-16
-16
-16
-16
-16
-16
-16
0
0
16
16
0
0
0
0
-16
-16
-16
-16
-16
-16
-16
-16
-16
-16
-16
-16
-16
-16
0
0
0
0
0
0
0
0
0
-16
-16
-16
-16
-16
-16
-16
-16
-16
-16
-16
0
0
0
0
0
0
0
0
0
0
0
-16
-16
-16
-16
0
0
0
0
0
-16
0
0
0
0
0
0
0
0
-16
-16
-16
-16
-16
-16
-16
-16
-16
0
0
-16
0
0
0
0
0
16
0
0
0
0
0
-16
-16
0
0
-16
-16
-16
-16
-16
-16
-16
0
0
0
0
0
0
0
-16
-16
-16
-16
-16
-16
-16
-16
-16
0
0
0
0
0
0
0
0
0
0
-16
-16
-16
-16
0
0
0
0
-16
-16
-16
-16
-16
-16
-16
0
0
0
0
-16
-16
-16
-16
-16
-16
0
0
0
0
16
0
0
0
0
0
-16
-16
-16
-16
0
-16
-16
-16
-16
-16
-16
-16
-16
-16
-16
0
0
0
0
0
0
0
16
0
0
-16
-16
-16
-16
-16
-16
-16
-16
-16
-16
-16
-16
0
0
0
0
0
0
0
0
0
-16
-16
-16
-16
-16
-16
-16
-16
-16
0
0
0
0
0
0
0
0
0
-16
-16
-16
-16
-16
-16
-16
-16
-16
-16
0
0
0
0
0
0
0
0
0
0
-16
-16
-16
-16
-16
-16
-16
-16
-16
-16
-16
0
0
0
16
16
16
16
0
0
0
0
0
-16
-16
-16
-16
-32
-32
-32
-16
-16
-16
-16
0
0
0
0
-16
-16
-16
-16
-16
-16
-16
0
-16
-16
-32
-16
-16
0
0
0
0
0
0
0
0
0
-16
-16
-16
-16
-16
-16
-16
-16
-16
-16
-16
0
0
0
0
0
0
0
0
16
16
0
0
0
0
-16
-16
-16
-32
-16
-16
0
0
0
-16
-16
0
0
0
0
0
0
-16
-16
-16
-16
-16
-16
-16
-16
-16
-16
0
0
0
0
-16
-16
0
0
0
0
-16
-16
-16
-16
-16
-16
-16
-16
-16
0
0
0
16
16
0
16
16
0
-16
-16
-16
-16
-16
-16
-16
-16
-16
-16
-16
-16
0
0
0
0
0
0
0
0
-16
-16
-16
-16
-16
-16
-16
0
0
0
0
0
0
0
0
0
0
0
0
0
0
-16
-16
-16
-16
-16
-16
-16
-16
-16
-16
0
0
0
0
0
0
-16
-16
-16
-16
-16
-16
-16
-16
-16
-16
-16
-16
-16
-16
-16
0
0
0
0
0
0
0
0
0
-16
-16
-16
-16
-32
-32
-16
-16
-16
-16
-16
-16
-16
0
0
0
0
0
0
0
-16
-16
-16
-32
-32
-32
-16
-16
-16
0
0
0
0
16
16
16
0
0
0
0
0
-16
-16
-16
-16
-16
-16
-32
-16
-16
-16
0
0
0
0
0
0
0
16
0
0
0
-16
-16
-16
-16
-16
-16
-16
-16
-16
-16
0
0
0
0
-16
0
-16
-16
-16
-16
-16
-16
0
0
0
0
0
0
-16
-16
-16
0
0
0
0
0
0
-16
-16
-16
-16
-16
-16
-16
-16
-16
-16
-16
-16
0
0
0
0
0
0
0
0
0
0
0
0
-16
-16
-16
-16
-16
-16
-16
-16
-16
0
0
0
0
0
0
0
-16
-16
-16
0
0
0
0
-16
-16
-16
-16
-16
-16
0
0
0
0
0
0
0
0
-16
-16
0
-16
-16
-16
-16
-32
-32
-16
-16
-16
-16
0
0
0
0
0
0
0
-16
-16
-16
-16
-16
-16
-16
0
0
0
0
0
0
0
0
0
0
0
0
0
-16
-16
-16
-32
-32
-32
-16
-16
-16
0
0
0
0
0
0
0
0
0
0
-16
-16
-16
-16
-16
-16
-16
-16
-16
-16
-16
-16
-16
0
0
0
0
0
0
0
0
0
0
0
0
-16
-32
-32
-16
-16
-16
0
0
0
0
0
0
0
0
0
0
-16
-16
-16
-16
-16
-16
-16
-16
-16
-16
-16
-16
-16
0
0
0
0
0
0
0
0
-16
-16
-16
-32
-32
-32
-16
-16
-16
-16
-16
0
0
0
0
0
0
0
0
0
-16
-16
-16
-16
-16
-16
-16
-16
0
0
0
0
-16
-16
0
0
0
16
0
0
0
0
-16
-16
-16
-32
-32
-32
-16
-16
-16
-16
-16
-16
0
0
0
0
0
-16
-16
-16
-16
-16
-16
-16
-16
-16
0
0
0
0
0
0
0
0
0
0
0
0
-16
-16
-16
-16
-16
-16
-16
-16
-16
-16
-16
-16
0
0
0
-16
-16
-16
-16
-16
-16
-16
-16
-16
-16
-16
-16
-16
-16
-16
-16
0
0
0
0
0
0
0
0
0
0
-16
-16
-16
-16
-16
-16
-16
-16
-16
-16
0
0
0
0
0
0
0
0
0
0
0
0
0
0
0
0
-16
-16
-16
-32
-32
-32
-16
-16
-16
0
0
0
0
0
0
0
-16
-16
-16
-16
-16
-16
-16
-16
-16
-16
-16
-16
-16
-16
0
0
-16
0
0
-16
-16
-16
-16
-16
-16
-16
0
0
0
0
0
0
0
0
0
-16
-16
-16
-16
-16
-16
-16
-16
-16
-16
-16
-16
0
0
0
0
0
0
0
0
0
0
-16
-16
-16
-16
-16
-16
-16
-16
-16
-16
-16
0
0
0
16
0
0
0
-16
-16
-16
-16
-16
-16
-16
-16
-16
-16
-16
-16
-16
-16
0
0
0
0
0
0
-16
-16
0
0
0
0
0
-16
-16
-16
-16
-16
-16
-16
-16
0
0
0
0
0
0
0
-16
-16
-16
-16
-16
-16
-16
-16
-16
-16
-16
-16
-16
0
0
0
0
0
0
0
0
0
0
-16
-16
-16
-16
-16
0
0
-16
-16
0
0
0
0
0
0
0
0
0
-16
-16
-16
-16
-16
-16
-16
-16
-16
0
0
0
0
0
0
0
0
0
0
0
-16
-16
-16
-16
-16
-16
-16
0
0
0
-16
-16
-16
-16
0
0
0
0
0
-16
-16
-16
-16
-16
-16
-16
-16
0
0
0
0
0
0
0
0
0
0
0
0
0
0
-16
-16
-16
-16
-16
-16
-16
-16
0
0
0
0
0
0
0
0
0
0
0
0
-16
-16
-16
-16
-16
-32
-16
-16
-16
0
0
0
0
0
0
0
0
-16
-32
-32
-32
-32
-16
-16
0
0
0
0
0
16
16
0
0
0
0
0
0
0
0
0
-16
-16
-16
-16
-16
-16
-16
-16
0
0
0
0
0
0
0
0
0
0
0
0
0
-16
-16
-16
-16
-16
-16
0
0
0
0
16
16
0
0
0
0
0
-16
-16
-16
-16
0
0
0
0
-16
-16
-16
-16
0
0
0
0
0
0
0
0
0
0
-16
-16
-16
-16
-16
-16
0
0
0
16
16
16
0
0
0
0
0
-16
-16
-16
-16
-16
-16
-16
-16
0
0
0
0
0
0
0
0
16
16
16
16
16
0
0
0
-16
-16
-16
-16
-16
0
16
16
0
0
0
0
0
0
0
0
-16
0
0
0
0
0
0
-16
-16
-16
-16
0
0
0
0
0
0
0
16
16
0
0
-16
-16
0
0
0
0
0
0
16
16
0
0
0
0
0
0
0
0
0
-16
0
0
0
-16
-16
-16
-16
-16
-16
-16
0
0
0
0
0
0
0
0
0
0
0
0
0
0
0
-16
-16
0
0
0
0
0
0
0
0
16
16
16
16
0
0
0
0
0
0
0
0
-16
-16
-16
-16
-16
-16
0
16
0
0
0
0
0
0
0
0
0
0
0
0
0
-16
-16
-16
-16
-16
0
0
0
0
16
16
0
0
-16
-16
-16
-16
-16
-16
0
0
0
0
0
0
0
0
0
0
0
0
0
0
0
-16
-16
-16
0
-16
-16
-16
0
0
0
0
0
0
0
0
0
0
0
0
0
0
0
-16
-16
-16
-16
-16
-16
0
0
16
16
16
16
16
0
-16
-16
-32
-32
-32
-32
0
16
0
0
0
0
-16
-16
-16
-16
-16
-16
-16
0
0
16
16
16
16
16
0
0
0
-16
-16
-16
0
0
16
0
0
0
-16
0
0
0
0
16
0
0
0
0
0
0
-16
0
0
0
0
0
0
0
0
0
0
0
0
0
16
16
16
16
16
0
0
0
0
0
-16
-16
-16
0
0
0
0
0
-16
0
0
0
16
-16
-16
-16
0
0
0
16
0
0
0
0
0
-16
-16
-16
-16
-16
0
0
16
16
16
0
-16
-16
-16
-16
-32
-32
-32
-32
-32
-48
-80
-80
-48
-48
-32
32
112
96
16
-16
-32
-32
-32
-16
32
48
48
16
-16
-16
0
0
16
16
0
0
-32
-96
-128
-128
-112
-48
-32
-32
0
80
128
96
48
32
32
0
0
32
48
48
32
48
16
0
0
16
16
0
-32
-32
-32
-32
16
48
0
-16
-64
-96
-80
-64
-64
-64
-64
-48
-48
0
112
160
80
-32
-16
0
0
0
0
32
64
64
32
-64
-128
-128
-128
-128
-64
16
0
-16
32
16
-16
32
16
16
128
160
112
0
-128
-192
-176
-128
-80
48
144
144
64
0
0
16
48
96
128
0
-96
-96
-64
32
160
144
16
-96
-128
-64
-16
80
80
16
-64
-112
-48
-48
-64
-32
32
32
64
48
-64
-176
-160
-80
32
16
0
16
80
48
-16
-80
-160
-112
-16
0
144
208
64
-32
-32
16
80
112
80
16
-64
-112
-48
-96
-48
-16
16
48
80
64
48
-48
-192
-208
-128
-128
-16
32
16
112
112
112
-32
-32
48
112
32
-64
-96
-32
64
16
-128
-96
-64
0
96
112
80
-16
-144
32
224
160
16
-32
-48
-96
16
16
-128
-144
-16
32
0
-176
-352
-272
-16
128
176
64
48
0
-112
-112
16
80
48
0
-32
-16
-32
64
144
176
112
-48
-160
-256
-384
-384
-192
-32
144
336
256
192
96
16
-48
32
64
-32
-128
-128
-64
112
112
-48
128
288
32
-304
-224
-64
16
48
-64
-128
-192
-272
-224
-128
16
96
-16
0
-16
192
320
240
-96
-160
-64
-32
-208
-432
-320
0
320
272
96
32
64
80
32
-16
0
48
16
-96
-64
-16
-16
-16
64
144
176
32
-32
-96
-80
-16
-16
-80
-160
-144
-112
-144
-64
-64
32
32
-96
-176
-80
-48
112
80
144
208
160
80
-16
-224
-272
-128
80
304
176
-32
48
160
112
-48
-192
-192
-112
-64
16
-80
-16
-16
-192
-288
-144
112
288
64
0
112
96
-96
-144
48
32
-144
-224
32
96
-32
16
112
112
-80
-64
-32
32
-16
-80
-256
-96
32
-32
-48
112
272
160
32
0
64
32
-48
-48
64
96
16
-112
-144
0
144
-16
-80
-32
-64
-32
48
-48
-32
0
-96
80
32
0
96
176
80
-96
-80
-112
-208
-144
16
96
16
96
96
80
48
-128
-32
32
80
64
64
32
-112
-336
-368
-80
112
192
256
-256
-480
-128
416
336
80
-16
32
64
-128
-384
-240
32
256
336
240
80
-64
-16
32
16
0
-32
-48
-32
-16
-48
48
-48
-112
-64
48
-48
-160
-80
-32
-48
32
0
-128
-144
48
176
48
16
64
-48
-64
-32
96
160
48
-32
-16
-48
-80
0
0
-16
-32
-48
-80
144
96
-16
48
-32
-112
-64
-112
-112
64
176
112
-16
-48
16
112
144
48
0
-16
-80
-16
80
16
-48
-176
-48
48
16
32
32
-64
-112
-144
16
208
48
-16
80
64
16
0
-16
-48
-64
-16
0
64
64
96
-80
-112
-144
-192
-80
144
112
-112
-80
-64
16
0
-144
-144
112
192
64
80
192
144
-96
-192
32
96
-32
-32
-64
-96
-16
112
48
-112
-176
48
288
128
0
-32
0
0
-32
-48
-112
-48
0
16
-32
16
144
112
16
-32
-32
16
32
48
-80
-160
-16
-16
-128
-256
-144
160
288
-96
-288
-144
160
240
-48
-48
256
16
80
144
128
128
0
-16
32
0
-32
-48
-144
-176
-112
-16
16
64
64
0
0
-32
-144
-32
96
16
-128
-240
-224
16
288
112
80
64
0
0
-96
-160
-32
128
48
-32
-32
-112
-128
0
48
128
240
208
-96
-32
96
-112
-240
-32
112
208
192
16
-224
-272
-128
128
96
-144
-368
-352
48
240
224
144
0
0
144
144
64
-16
-112
-64
-80
-48
-112
-128
64
240
144
-16
16
16
16
80
48
-16
-160
-256
-160
16
-176
-176
208
432
208
-96
-64
16
80
0
-80
16
128
-32
-16
32
-128
-384
-368
-32
192
304
208
160
32
-96
0
0
64
80
160
160
-128
-208
-208
-80
64
128
-32
-288
-240
112
352
192
32
-80
-112
-64
16
64
128
144
48
-256
-272
-16
-32
64
144
128
-32
-192
-96
16
-128
-80
96
112
48
-16
48
112
16
-80
-16
128
160
16
16
64
-144
-272
-96
112
192
160
80
-32
-48
64
48
144
240
128
-128
-176
-64
48
32
-80
-224
-352
-304
64
336
96
32
208
288
144
-128
-176
-48
0
32
32
-16
-80
16
192
272
-16
-192
-192
-224
48
144
96
80
96
-32
-176
-176
-128
-176
64
176
208
160
32
-160
-112
192
400
32
-128
-144
-112
-160
-256
-128
144
208
-32
-416
-128
352
256
0
-80
16
-32
-112
-272
48
288
160
-96
112
144
64
64
-48
-112
-192
-176
-64
-96
-240
64
336
192
112
128
32
32
0
0
-96
-96
160
256
-16
-48
-16
-128
-224
-64
208
208
128
-32
-336
-368
-16
304
416
256
-96
-160
-128
-96
64
32
-64
-144
-96
-16
112
16
-144
-112
128
208
64
64
-32
-176
-208
-16
256
336
64
-160
-112
-112
-16
160
96
64
0
-64
-80
0
-96
-176
-64
32
16
-32
128
368
128
-80
-64
-160
-144
16
32
128
112
96
128
80
-64
-64
-48
-160
-320
-336
112
336
80
-48
-16
0
48
160
112
0
64
64
0
-16
0
0
-96
-16
64
80
32
-64
-96
0
16
-32
48
144
-96
-320
-64
224
112
80
80
64
-64
-80
-16
64
-48
-144
-96
48
144
80
-48
-112
-80
-16
16
-48
-128
-256
112
192
112
80
48
144
-16
-224
-176
64
256
208
160
64
0
-16
-80
-80
48
96
-16
-80
-64
-32
16
16
-112
-208
-64
80
208
304
144
-64
-16
-64
-128
-80
16
-64
-48
144
0
-32
32
-64
-80
-64
-32
-64
-16
0
-48
80
272
96
-80
-128
-96
96
224
48
-96
-128
-32
128
80
-80
-112
0
-64
-64
112
304
64
-112
-16
80
-16
-16
64
-64
48
160
64
-48
-32
-128
-80
16
0
-160
-176
-80
0
-64
-32
144
320
192
-32
-96
-48
-64
-64
32
80
0
0
-16
16
96
96
-32
0
16
-16
-32
-64
-80
-32
80
48
-32
-32
-96
-80
208
256
16
-96
-160
-96
-16
128
176
80
64
48
112
96
-64
-240
-224
-208
-48
80
0
80
176
128
-64
-336
-320
96
432
256
224
96
-192
-208
-64
-32
-64
-48
48
16
-32
0
0
48
48
-32
-80
-128
-176
0
240
240
208
0
-32
-16
16
96
96
-48
-112
-96
-160
-160
-16
144
304
224
16
-80
-128
-208
-320
-240
32
320
160
48
64
80
48
32
-32
-32
0
32
-48
-96
96
208
16
-48
-32
0
-16
-112
-176
-240
-384
-224
272
384
240
192
112
128
80
32
16
32
0
-96
32
80
-48
-80
0
0
-48
-64
32
0
-16
80
64
-32
-144
-96
0
-16
-80
-48
0
-32
-112
-208
-256
-32
320
208
64
64
32
64
64
32
0
16
0
0
-32
16
-32
-192
-128
48
160
48
-224
-320
-80
288
336
-16
-96
0
-48
-80
64
144
128
96
16
-48
64
-32
-80
-16
-16
-96
-112
-16
16
-48
-48
48
32
64
16
48
176
96
-128
-64
16
48
16
16
144
128
-144
-176
-32
-32
-144
-128
-80
-96
-32
-64
16
176
256
192
96
-16
16
80
80
16
-96
-112
-80
-32
-112
-80
96
224
80
-80
-96
-80
-48
0
-16
-96
48
288
304
-48
-464
-576
48
512
320
-80
-176
-96
-80
48
48
0
-16
64
64
32
32
48
16
16
0
-16
64
80
-32
-48
-64
-128
-176
-32
96
64
-128
-128
-192
-224
0
128
16
80
128
96
128
192
80
-32
-32
-16
0
16
64
0
-96
-144
-80
0
16
-48
-48
96
160
224
0
-176
-160
-112
48
16
-32
48
256
240
48
-32
-208
-160
-80
48
80
-80
-80
-64
64
128
-32
-288
-176
176
176
112
16
48
-32
-48
-48
-32
0
16
16
-16
-48
-16
-32
32
192
176
16
-144
-64
-144
-288
-272
-176
176
336
192
192
240
64
-80
-96
-96
-112
-176
-192
-112
112
96
-128
-240
-112
160
256
160
64
32
0
-32
-16
-80
16
272
304
0
-112
-80
-16
-32
32
128
16
-112
-48
-96
-160
-192
-96
16
80
-80
-80
-128
-80
32
160
192
80
-16
-48
-48
-32
-16
0
16
80
48
-32
-80
64
48
80
112
96
-144
-176
32
176
-80
-192
-160
-144
128
176
-64
64
176
48
-80
-48
0
-64
-112
-80
-80
-16
192
128
32
64
80
48
-16
0
32
-16
-32
80
32
0
-128
-432
-480
-160
32
0
64
64
16
0
128
144
64
32
64
96
112
80
128
64
-48
-112
-80
0
48
-64
-128
-16
160
112
0
64
16
-48
-32
16
-32
-176
-176
-224
-32
192
160
16
-96
-128
-256
-320
-48
64
64
144
96
112
144
80
-16
-32
32
160
160
-64
-64
64
-80
-64
16
-64
-64
48
64
0
-144
-256
-208
-64
64
160
64
48
48
80
80
-32
-48
-144
-64
64
112
32
-32
-16
-16
112
160
32
-176
-272
-128
144
288
64
-32
128
96
-96
-96
-48
80
64
16
-48
-96
-32
96
192
112
0
-96
-160
-64
160
16
-320
-288
-64
32
144
288
0
-64
-64
-64
32
48
-48
-96
48
224
32
-32
-80
-96
-64
144
128
-64
-80
16
96
16
-32
-16
0
-32
-64
0
16
-32
-112
-144
-80
64
32
32
48
32
16
-64
-112
-80
32
288
336
96
-48
-16
-48
-96
0
48
32
-16
-96
-112
112
80
16
16
32
-48
-128
-176
-176
-48
32
64
32
16
64
176
96
32
64
32
0
-64
0
16
48
48
-48
-80
-64
-96
-80
16
96
96
16
-64
-96
0
32
-32
-32
16
16
-16
-16
32
64
0
0
-16
32
64
16
-64
-16
0
0
-16
-32
-32
0
48
0
-16
16
32
16
16
48
48
64
80
16
-16
-48
-32
0
-32
-32
48
144
160
-48
-128
-48
16
-16
-48
-64
-32
16
16
16
0
0
0
0
16
-16
-16
0
16
0
-32
-16
16
0
-16
-32
-16
16
48
32
16
16
-16
-48
-48
-16
32
32
32
0
-16
0
-16
0
16
0
0
0
16
16
0
-16
-16
0
16
-16
-32
-32
0
32
16
0
16
-16
-16
0
0
0
16
32
0
-32
-48
-64
-32
0
-16
0
32
16
0
16
32
32
32
16
16
16
16
32
32
16
0
-16
0
0
16
0
16
16
0
0
0
0
0
0
0
0
16
16
32
0
-16
-16
0
0
0
16
16
0
-16
0
0
0
0
0
0
16
32
32
32
16
0
-16
-16
0
0
0
0
0
-16
0
0
0
0
0
0
0
16
16
0
0
-16
-16
-16
-16
-16
-16
0
-16
-16
0
0
0
0
0
0
0
16
16
16
0
0
-16
-16
-16
-16
0
0
0
0
0
16
16
0
0
0
0
16
16
16
16
0
-16
-16
-16
-16
0
0
0
-16
0
0
0
0
0
0
0
0
16
16
0
0
-16
-16
-16
-16
0
0
0
-16
0
0
0
0
-16
0
0
16
16
16
0
0
-16
-16
-16
0
0
0
0
-16
0
0
0
0
0
0
0
16
16
16
16
0
-16
-16
-16
0
0
0
0
-16
0
0
0
0
0
0
0
16
16
16
16
0
0
-16
0
0
0
0
0
0
0
0
0
0
0
0
0
16
16
16
0
0
0
-16
0
0
0
0
0
-16
0
0
0
0
0
0
0
16
32
16
16
0
16
0
0
0
0
0
0
0
16
16
16
0
0
0
0
16
16
16
16
0
0
-16
-16
0
0
0
0
0
0
0
0
0
0
0
0
0
16
16
16
0
0
0
0
0
0
0
0
0
0
0
0
0
0
16
16
16
16
16
16
0
0
0
0
0
0
0
0
0
0
0
0
0
0
0
0
16
16
16
16
0
-16
-16
-16
0
0
0
0
0
0
0
0
0
0
16
16
16
16
16
16
0
0
0
-16
0
0
-16
-16
-16
0
16
16
16
16
16
16
16
16
16
0
0
-16
-16
-16
0
0
0
0
-16
0
0
0
0
0
0
0
16
16
0
0
0
0
-16
0
0
0
0
0
0
0
0
0
0
0
0
0
0
0
0
0
0
-16
-16
-16
0
0
0
0
-16
0
0
0
0
0
0
0
16
16
0
0
0
0
-16
-16
-16
0
0
0
-16
0
0
0
0
0
0
0
0
0
0
0
0
0
0
0
0
0
-16
-16
-16
-16
0
0
0
0
0
0
0
0
0
0
-16
-16
-16
-16
-16
-16
0
0
-16
-16
0
0
0
0
0
0
0
0
0
0
0
-16
-16
-16
-16
-16
-16
-16
-16
0
0
0
0
0
0
0
0
0
0
0
0
0
0
0
-16
-16
-16
-16
-16
0
0
0
0
0
0
0
0
0
0
0
0
-16
-16
-16
-16
-16
-16
-16
-16
0
0
0
0
0
0
0
0
0
0
0
0
-16
-16
-16
-16
-16
-16
-16
-16
-16
0
0
0
0
0
0
16
16
16
0
0
-16
-16
-16
-16
-16
-16
-16
-16
-16
0
0
0
0
0
0
0
0
0
-16
-16
-16
-16
-16
-16
-16
-16
-16
-16
-16
0
0
0
0
0
0
0
0
0
0
-16
-16
-16
-16
-16
-16
-16
-16
-16
0
0
0
0
0
0
0
0
0
0
0
0
-16
-16
-16
-16
-16
-16
-16
-16
0
0
0
0
0
0
0
-16
-16
-16
-16
-16
-16
-16
-16
-16
-16
-16
-16
-16
0
0
0
0
0
0
0
0
0
0
-16
-16
-16
-16
-16
-16
-16
-16
-16
-16
-16
-16
-16
0
0
0
0
-16
-16
0
-16
-16
-16
-16
-16
-16
-16
-16
-16
-16
-16
-16
-16
0
0
0
0
0
0
0
0
0
-16
-16
-16
-16
-16
-16
-16
-16
-16
-16
0
0
0
0
0
0
0
0
0
0
-16
-16
-16
-16
-16
-16
-16
-16
0
0
0
0
0
0
-16
-16
-16
-16
-16
-16
-16
-16
-16
-16
-16
-16
-16
-16
-16
-16
-16
-16
-16
0
-16
0
0
0
-16
-16
-16
-16
-16
-16
-16
-16
-16
-16
-16
-16
-16
0
0
0
0
0
0
0
0
-16
-16
-16
-16
-16
-16
-16
-16
-16
-16
-16
-16
0
0
0
0
0
0
0
0
-16
-16
-16
-16
-16
-16
-16
-16
-16
-16
-16
0
0
0
0
0
0
0
0
-16
-16
-16
-16
-16
-16
-16
-16
-16
-16
-16
-16
-16
-16
-16
0
0
0
0
0
0
0
0
0
-16
-16
-16
0
0
0
0
0
0
0
-16
-16
-16
-16
-16
0
-16
-16
-16
-16
-16
-16
-16
-16
-16
-16
-16
-16
-16
-16
-16
0
0
0
0
0
-16
-16
-16
-16
-16
-16
-16
-16
-16
-16
-16
-16
0
0
0
0
0
0
0
0
-16
-16
-16
-16
-16
-16
-16
-16
-16
-16
-16
-16
-16
-16
-16
-16
0
0
0
0
-16
-16
-16
-16
-16
-16
-16
-16
-16
-16
-16
-16
-16
0
0
0
0
0
0
0
0
0
-16
-16
-16
-16
-16
-16
-16
-16
-16
-16
0
0
0
0
0
0
0
0
-16
-16
-16
-16
-16
-16
-16
-16
-16
-16
-16
-16
-16
0
0
0
0
0
0
0
0
0
0
0
-16
-16
-32
-32
-16
-16
-16
-16
-16
0
0
0
0
0
0
0
-16
-16
-16
-16
-16
-16
-16
-16
-16
-16
-16
-16
0
0
0
0
0
0
0
0
-16
-16
-16
-16
-16
-16
-16
-16
-16
-16
-16
0
0
0
0
0
0
0
0
0
-16
-16
-16
-16
-16
-16
-16
-16
-16
-16
-16
-16
0
0
0
0
0
0
0
0
0
-16
-16
-16
-16
-16
-16
-16
-16
-16
-16
-16
-16
-16
-16
-16
-16
-16
0
0
0
-16
-16
-16
-16
-16
-16
-16
-16
-16
-16
-16
-16
-16
0
0
0
0
0
0
0
0
-16
-16
-16
-16
-16
-16
-16
-16
-16
-16
-16
-16
0
-16
-16
-16
-16
0
-16
-16
-16
-16
-16
-16
-16
-16
-16
-16
-16
-16
0
0
0
0
0
0
0
0
-16
-16
-16
-16
-16
-16
-16
-16
-16
-16
-16
0
0
0
0
-16
-16
-16
0
0
-16
-16
-16
-16
-16
-16
-16
-16
-16
-16
-16
-16
-16
-16
0
0
0
-16
0
0
0
-16
-16
-16
-16
-16
-16
-16
-16
-16
-16
-16
-16
0
0
0
0
0
0
0
0
-16
-16
-16
-16
-16
-16
-16
-16
-16
-16
0
0
0
0
0
0
0
0
0
0
-16
-16
-16
-16
-16
-16
-16
-16
-16
-16
0
0
0
0
0
0
0
0
0
0
-16
-16
-16
-16
-16
-16
-16
-16
-16
-16
-16
-16
0
0
0
0
0
0
0
0
-16
-16
-16
-16
-16
-16
-16
-16
-16
0
0
0
0
-16
-16
-16
-16
0
0
0
-16
-16
-16
-16
-16
-16
-16
-16
-16
-16
-16
-16
-16
-16
-16
0
0
0
0
0
-16
-16
-16
-16
-16
-16
-16
-16
-16
-16
-16
0
0
0
0
0
0
0
0
0
-16
-16
-16
-16
-16
-16
-16
-16
-16
-16
-16
-16
0
0
0
0
0
0
0
0
-16
-16
-16
-16
-16
-16
-16
-16
-16
-16
0
0
0
0
-16
-16
-16
0
0
0
0
0
-16
-16
-16
-16
-16
-16
-16
-16
-16
0
0
0
0
0
0
0
0
-16
-16
0
0
0
0
-16
-16
-16
-16
-16
-16
-16
-16
-16
-16
-16
0
0
0
0
-16
-16
-16
-16
-16
-16
-16
-16
-16
-16
-16
0
0
0
0
0
0
0
0
0
0
-16
-16
-16
-16
-16
-16
-16
-16
-16
-16
-16
-16
0
0
0
0
0
0
0
-16
-16
-16
-16
-16
0
0
0
0
0
0
0
-16
0
0
0
0
0
0
-16
-16
-16
-16
-16
-16
-16
-16
-16
-16
-16
-16
0
0
0
0
0
0
0
0
0
-16
-16
-16
-32
-32
-32
-32
-32
-16
-16
0
0
0
0
0
0
0
0
0
0
0
-16
-16
-16
-16
-16
-16
-16
-16
-16
0
0
0
0
0
0
0
0
0
0
-16
-16
-16
-16
-16
-16
-16
-16
-16
-16
0
0
0
0
0
0
-16
0
0
0
0
0
-16
-16
-16
-16
-16
-32
-32
-16
-16
-16
-16
0
0
0
0
0
0
0
0
-16
-16
-16
-16
-16
-16
-16
-16
-16
-16
-16
-16
0
0
0
0
0
0
0
0
0
0
-16
-16
-16
-16
-16
-16
-16
-16
-16
-16
-16
-16
0
0
0
0
0
0
0
0
0
-16
-16
-16
-16
-16
-16
-16
-16
-16
0
0
0
0
0
0
0
0
0
0
-16
-16
-16
-16
0
0
0
-16
-16
-16
-16
-16
-16
-16
-16
-16
-16
-16
-16
-16
-16
-16
-16
-16
-16
-16
-16
-16
0
0
0
0
0
0
0
0
-16
-16
-16
-16
-16
-16
-16
-16
-16
-16
-16
-16
-16
0
0
0
0
0
0
0
0
0
0
0
-16
-16
-16
-16
-16
-16
-16
0
0
0
0
0
0
0
0
0
0
-16
-16
-16
-16
-16
-16
-16
-16
-16
-16
0
0
0
0
0
0
0
-16
0
0
0
0
-16
-16
-16
-16
-16
-16
-32
-32
-16
-16
-16
-16
0
0
0
0
0
0
-16
-16
-16
-16
-16
-16
-16
-16
-16
-16
-16
-16
0
0
0
0
-16
-16
-16
-16
-16
-16
-16
-16
-16
-16
-16
-16
0
0
0
0
0
0
0
-16
-16
-16
-16
-16
0
0
16
0
-16
-32
-64
-64
-64
-32
-16
16
48
32
32
32
32
16
16
0
-16
-16
-16
0
0
0
0
-16
-16
-32
-32
-32
-48
-48
-48
-48
-16
0
0
0
0
0
16
16
16
16
16
0
-16
-16
-16
0
0
0
-16
-32
-32
-32
-32
-32
-16
0
0
0
32
32
32
0
-16
-16
-32
-32
-48
-48
-32
0
0
-16
-32
-48
-48
-32
-32
-48
-48
-16
16
0
16
32
48
48
32
0
-32
-16
0
-32
-48
-32
16
48
48
32
-16
-64
-48
-32
-16
16
16
16
-16
-32
-64
-80
-80
-32
32
48
16
-16
-16
0
-32
-16
48
32
-48
-48
-16
32
0
-32
0
16
-16
-16
16
32
-16
-48
-64
-64
-64
-32
0
0
0
0
0
16
32
48
48
16
-16
-16
-48
-80
-64
-16
0
-32
-16
-32
-16
0
-48
-80
-64
-64
-32
0
0
48
80
64
32
-16
-32
-32
-16
0
-32
-64
-80
0
48
0
-48
-32
0
16
0
-16
0
-32
-16
16
16
-32
-48
-32
-16
48
64
48
64
0
-80
-80
-64
-80
-64
80
192
64
-16
0
-16
-32
-48
-48
-48
-48
-16
16
16
-16
-16
-16
-16
16
0
-64
-80
16
80
96
144
96
-64
-64
0
-48
-80
-64
-48
-16
0
0
-16
-16
-16
-32
-32
16
0
16
32
-16
-64
-80
-80
-64
-64
-16
32
48
80
32
0
-64
-32
0
16
80
80
48
0
-16
-16
-16
16
0
-16
-96
-112
-96
-64
-16
0
-32
0
32
-32
-64
-16
0
-48
0
16
0
0
0
-16
0
32
80
16
-48
-16
0
48
48
-16
-16
-64
-80
-112
-96
16
48
0
0
-16
-32
-16
0
-80
-48
16
32
16
-16
-64
-48
0
0
32
16
0
0
48
64
-16
-96
-80
-48
-32
16
32
-16
32
64
48
0
-32
-48
-16
-32
0
48
64
-16
-80
-96
-48
-16
-16
-32
-16
16
16
-16
-32
-80
-80
-80
-144
-96
-48
0
-16
48
32
-32
-32
0
128
128
0
-48
-32
-32
-32
-32
-32
-64
-32
-16
-16
-16
48
80
80
32
-16
-32
-96
-144
-96
32
80
64
48
32
0
0
16
32
0
0
-16
48
32
-80
-96
-48
-16
0
48
96
48
-32
-112
-112
-32
-32
-64
0
48
-16
-80
-16
64
64
-80
-128
-112
-48
16
0
0
-32
-96
-64
0
32
-16
-16
48
48
16
16
0
32
-16
-80
-96
96
208
48
-128
-64
64
32
-32
-16
16
-16
-64
-96
-144
-80
-16
48
0
-16
48
48
-32
-32
0
-32
-32
-64
-32
160
176
-32
-32
0
16
-16
-48
-48
-48
-80
-32
64
144
80
-80
-176
-80
-16
0
16
48
80
48
-80
-144
-144
-32
112
144
-16
-96
-96
-80
0
32
-32
-96
-80
-16
0
0
48
80
16
-48
-144
-112
-32
-16
16
144
176
-16
-80
-96
-48
-48
-96
-80
-32
0
64
16
-96
-64
-32
-48
64
80
96
16
64
96
64
-32
-64
64
144
80
-160
-96
112
-32
-80
-96
-32
32
48
-16
16
32
-16
-16
16
-32
-16
16
-16
48
112
128
96
48
0
-32
-16
-64
-32
-16
-32
-80
-128
-112
-16
48
112
112
0
-64
-64
-80
-96
-32
16
16
0
-64
64
176
128
160
160
64
16
-48
-32
0
-32
-96
-96
-112
-80
0
48
64
80
48
-80
-128
-80
-48
-32
0
80
160
144
48
-32
-48
-16
-16
-48
-64
-16
0
-64
-32
80
112
96
-64
-176
-224
-160
128
224
112
64
-96
-176
-64
160
112
-224
-192
-192
-176
-80
-32
32
112
96
112
80
16
16
64
176
48
-64
-112
-96
-48
80
32
-80
0
80
0
-128
-176
-96
-128
-48
128
240
128
-176
-80
0
16
48
64
32
-32
16
48
-32
-32
16
-112
-144
64
144
96
-48
-64
32
48
16
16
-48
-48
-48
-16
64
96
48
-16
-112
-96
-80
-32
16
16
-48
-192
-240
-160
80
352
320
80
-64
-64
-64
-80
-112
-224
-224
-64
96
160
176
160
0
-64
64
16
80
144
80
-48
16
-32
-16
-80
-128
-160
-48
112
144
80
-16
-64
-80
-80
-128
-32
96
128
0
-64
-48
0
16
32
16
32
48
80
32
-32
-112
-64
0
64
144
64
-160
-192
-128
-48
64
96
64
0
-16
16
0
-112
-128
-32
80
0
-96
0
32
32
64
32
-48
-128
16
160
48
-80
-32
48
80
64
-80
-128
-32
16
32
64
48
0
-80
-112
-128
-64
0
32
128
80
-80
-64
16
16
-32
-16
0
-128
-144
-96
16
-32
0
160
128
0
-80
-48
80
192
64
-16
-64
-64
0
160
32
-128
-144
-64
80
128
80
-16
-128
-144
-112
16
32
-64
-32
32
80
112
48
-48
-48
-32
-96
-32
0
32
48
0
80
224
272
-64
-288
-128
-16
-16
-32
16
0
-32
-48
-16
32
48
0
0
64
32
0
-144
-272
-96
320
384
-32
-176
-16
144
-96
-144
-64
-32
-32
-48
-48
-16
80
32
-64
64
144
112
-176
-224
0
80
0
-160
-224
-112
144
160
128
80
-16
-64
-16
80
48
16
-112
-128
-48
-96
-144
48
176
64
-112
-80
0
48
64
48
48
48
16
-80
-32
0
-32
-48
16
64
240
128
-16
-80
-96
-64
-48
-32
-48
-16
96
96
-80
-144
-48
32
16
-16
16
48
-16
-208
-144
96
288
0
-208
-128
0
32
112
128
80
0
-128
-96
0
64
-16
-192
-272
-160
-32
80
144
32
16
96
64
0
-32
32
128
80
-96
-112
-32
16
-64
-144
-16
96
16
-80
-80
-16
48
16
-80
-16
32
0
-112
-144
-64
32
160
128
32
-16
80
224
128
-96
-128
-64
0
-96
-224
-208
-48
192
112
64
112
112
0
-128
-160
-32
80
0
-16
48
-32
-96
0
48
16
-96
-48
-64
-32
-48
-32
-32
16
0
-64
-128
-96
80
176
16
0
-16
-16
0
112
128
80
16
64
64
-32
-48
48
-16
-16
48
48
0
-128
-80
-16
-48
-208
-368
-384
-208
0
112
208
48
-128
16
256
112
-64
-32
16
-32
-80
0
112
128
32
-128
-128
0
128
-16
-192
-224
-176
-16
240
240
-16
-128
-48
64
80
-16
-16
-48
-64
0
-16
-160
-240
-64
32
-32
80
224
208
-32
-256
-128
112
64
-48
-16
176
48
-16
-48
-16
48
64
112
80
-112
-208
-240
48
192
-16
16
-16
-112
-48
-48
-96
-16
0
-48
-64
-80
-32
32
80
16
16
64
0
0
96
176
32
-16
16
-48
-64
-48
16
128
192
112
-64
-64
64
96
32
-48
-192
-128
-32
-16
-16
-96
-304
-304
-96
224
192
16
64
48
-32
-80
16
160
320
96
-176
-64
-48
-64
-144
-176
-240
-48
192
176
0
-80
-96
-32
80
16
-16
144
144
80
80
96
0
-48
-176
-288
-144
192
128
48
-16
-48
-16
48
64
16
0
-16
-144
-384
-432
-16
384
400
64
-288
-144
32
32
16
64
160
128
64
-48
-176
-128
-64
0
96
176
32
-192
-224
-32
128
112
48
-16
-48
-64
16
48
16
-16
0
-48
32
80
32
-16
64
128
48
-112
-80
16
16
-32
-48
-128
-160
-144
-160
0
128
-64
-32
64
176
176
32
80
48
16
160
0
-304
-400
-64
224
272
96
0
-48
-80
-112
-80
32
32
-64
-48
16
-48
-240
-368
-160
208
256
32
208
176
16
32
96
32
-48
-80
-64
0
48
16
-16
-32
-48
-16
32
-48
-96
-192
-208
16
304
128
48
176
224
112
-64
-64
-48
-176
-208
-96
48
-112
-368
-128
336
416
80
-32
-32
0
-32
-32
0
16
16
0
0
48
48
-16
-32
64
32
-48
-48
0
-96
-96
-48
32
32
16
-48
-144
-32
192
48
-240
-160
96
256
128
-32
-64
-16
-16
48
48
0
-112
-128
48
128
0
-48
-288
-352
-16
256
192
160
128
64
-16
-80
-48
32
80
48
-48
-80
-112
-64
48
80
96
0
-80
-32
32
48
48
0
-32
0
0
16
48
16
-48
-32
-96
-128
-32
80
176
144
-16
-112
-64
16
96
96
0
-48
-64
-32
32
64
16
-48
-48
16
16
0
-64
-32
16
16
-16
-80
-112
-64
80
144
96
96
192
96
-112
-176
-96
-128
-208
-144
64
112
-80
-224
-64
208
240
128
32
-16
16
0
-48
-48
32
48
32
0
-80
-208
-176
48
64
-16
-32
-112
-80
64
144
96
32
-16
-16
48
-16
-176
-112
32
-32
16
96
112
64
-64
-224
-128
112
176
96
-80
-144
-112
16
-32
-96
0
112
80
-64
-176
-256
-64
192
208
112
48
0
32
32
-48
-16
-16
-32
16
144
176
80
-32
80
80
-16
-160
-160
-32
64
48
-176
-96
16
128
160
112
-80
-128
-16
-16
-96
-112
-64
-48
32
16
-16
32
48
16
16
48
16
32
32
-64
-112
-96
-48
-80
-48
16
32
32
32
0
-32
32
48
64
80
16
-16
-64
-80
48
128
-64
-96
-48
-112
-176
48
240
112
-16
0
16
16
-80
16
64
-32
-112
-144
-80
-96
-80
-16
64
80
176
224
256
32
-128
-128
-64
-16
0
48
48
0
-64
-144
-144
-32
-48
80
96
32
32
32
-16
-48
-48
0
64
-64
-112
-64
-64
-32
32
-16
-96
-16
16
-32
16
112
144
112
32
-64
-48
-16
-80
-64
-48
-16
0
-32
-32
112
192
192
80
0
-48
-64
-48
0
-16
-64
-16
0
0
-16
16
64
32
-32
-64
-112
-208
-176
64
224
144
16
-64
-16
32
16
-32
-32
-16
-32
-32
32
64
-32
-48
96
112
-48
-32
48
0
-48
-16
32
-16
-32
-16
16
32
-16
-64
-64
-48
-16
16
0
-32
-80
-48
16
48
32
0
0
32
96
144
0
-112
-80
-32
-48
-48
80
80
-32
-144
-16
64
64
112
112
0
-80
-16
48
-16
0
16
-48
-80
32
80
0
-112
-128
-80
-48
16
160
160
16
-16
48
80
64
-48
-64
16
0
32
48
-32
-48
-48
-80
-144
-96
-16
64
112
96
64
0
-32
0
16
16
0
-16
0
32
80
16
-96
-16
16
0
32
48
16
-112
-96
-16
-32
0
16
32
144
96
48
32
-80
-160
-96
-16
0
-64
-64
-48
-16
112
96
96
144
48
-48
-80
-64
-48
16
-48
-80
-64
-64
-16
112
96
144
112
48
-32
0
-64
-128
-16
48
16
32
-16
0
-48
-64
-32
32
32
-16
16
32
48
96
96
0
-64
-48
-48
-32
-48
-64
-48
-80
-32
16
32
16
-32
-16
-16
0
80
208
272
80
-32
-144
-112
-48
-48
-64
-80
-16
-16
-48
16
144
128
32
16
16
-80
-112
-16
48
80
0
-96
-48
-64
-64
16
48
64
96
32
-32
-80
-144
-112
0
64
48
-64
-96
32
128
112
32
64
176
208
0
-112
-128
-96
-16
16
48
-80
-192
-64
0
144
144
48
96
16
-128
-128
-48
144
272
224
48
-160
-192
-112
16
-16
-64
-176
-224
-48
80
32
-16
16
48
80
32
-16
16
32
-32
32
320
416
192
-208
-192
-80
-64
-64
-32
-16
-32
0
0
16
-16
-64
-80
-32
32
144
128
32
48
64
-96
-272
-80
208
128
-128
-320
-320
-80
240
240
64
0
64
48
-32
-32
-16
32
80
32
48
144
48
16
-48
-80
-112
-144
-96
-48
-128
-160
-96
16
-16
-80
-32
96
112
96
96
-48
-112
-48
48
32
112
16
-96
-112
-16
32
96
112
-64
-224
-112
32
128
80
-48
-176
-208
-144
-48
96
128
-32
-64
32
112
80
-64
-192
48
336
240
-176
-256
64
96
-96
-160
-80
16
128
192
96
-144
-208
-128
-16
80
128
32
-48
-96
-96
0
224
32
-176
-256
-208
64
272
96
-224
-192
32
-32
80
112
112
128
16
-64
-80
-96
-32
16
16
-48
-160
-176
-128
48
224
336
48
-176
-128
-32
16
32
-32
0
16
-80
-128
-32
16
32
16
0
16
-112
-192
-48
320
336
-80
-192
-128
-96
0
32
0
0
0
208
256
128
-16
-48
-64
-48
-48
-176
-208
-192
-144
-80
80
144
0
-160
-112
32
224
240
48
-208
-208
-48
128
128
112
-16
-224
-240
-240
-64
192
96
-80
-160
-240
-160
32
336
496
432
64
-176
-368
-208
144
208
96
32
-128
-80
-64
-208
-320
-256
32
160
64
0
0
-160
0
144
112
128
48
16
16
16
-16
-16
-144
-416
-512
-96
272
192
272
160
-32
32
80
48
0
-64
-48
32
96
32
32
32
-48
-96
-48
0
0
-16
-16
48
144
112
0
-96
-272
-368
-224
240
304
128
96
48
-48
-16
-16
-32
0
32
16
0
-48
-48
32
32
-16
-32
-48
-144
-128
0
0
-48
-96
-192
-96
160
336
64
-192
-208
-80
64
304
336
48
-64
-64
-96
-144
-112
-16
16
-16
80
80
32
-16
0
-112
-256
-96
64
32
-16
0
48
64
64
-16
-208
-304
-240
-48
-192
-176
-112
192
304
176
64
16
-32
16
80
64
96
144
96
0
-48
0
-48
-32
0
32
32
-48
-48
-64
-96
-96
-176
-80
0
176
128
-320
-432
32
224
0
-48
-16
96
160
160
-16
-128
-64
48
48
32
-32
-112
-16
48
32
80
128
64
32
-64
80
208
96
0
-96
-144
-208
-112
-80
-32
32
0
-176
-224
112
208
-16
-112
-48
144
112
-64
32
48
0
-96
-144
-128
-80
-16
16
0
64
96
16
-256
-256
80
368
304
-128
-192
-48
16
-16
48
160
176
96
0
-128
-224
-32
128
-48
-208
-160
-32
-144
-176
0
224
208
0
-160
16
144
16
-160
-144
32
16
-48
48
192
272
0
-176
-112
-192
-400
-528
-240
288
480
192
112
96
-96
-80
-32
-48
-80
-32
96
128
0
-96
-16
80
224
80
-160
-384
-208
16
0
16
112
160
16
-64
16
-16
-112
-64
16
-96
-80
128
48
-64
-32
96
144
48
-176
-144
48
96
16
-144
-224
-32
352
384
64
-160
-224
-208
32
176
0
-144
-128
-64
-128
-192
-224
-16
96
144
80
96
80
112
112
-80
-80
-48
64
32
0
-32
-128
-144
-80
64
96
-48
-144
-320
-240
208
272
32
0
32
16
-32
16
48
16
-64
-48
64
112
64
144
176
-64
-368
-448
-176
240
96
-80
-16
80
64
16
64
32
-48
-96
-48
48
48
0
-32
0
96
112
-16
-80
-64
-16
16
16
32
0
-48
-112
-64
32
64
48
0
-48
-16
96
160
16
-224
-176
16
96
32
-16
0
-96
16
0
-80
-64
-16
0
-32
0
0
16
64
64
16
-32
-64
-32
16
0
-16
-16
32
32
-32
-48
-32
-16
-32
-32
-16
0
48
64
16
-16
0
16
0
0
-32
-32
0
0
-32
-48
-32
-16
-16
-32
-32
0
32
48
16
-16
-48
-32
16
0
-16
-16
0
16
16
0
-16
-32
-48
-16
0
0
16
32
0
-32
-64
-32
16
16
-16
-16
16
16
-16
-32
0
0
-16
-16
0
16
48
48
0
-32
-48
-32
16
0
-16
-48
-16
16
-16
-16
-16
-16
-16
0
0
0
32
48
16
-16
-32
-16
16
16
0
0
16
16
-32
-48
-16
-16
-16
-16
-16
-16
16
32
16
-16
-32
-16
16
0
-16
0
16
16
-16
-32
-16
0
-16
0
0
0
32
48
32
0
-16
-16
16
16
0
0
16
16
-16
-32
-16
0
-16
0
0
0
32
32
16
-16
-16
-16
0
0
-16
0
16
16
-16
-32
0
0
0
16
16
16
32
48
16
0
-16
0
16
16
0
0
16
16
-16
-16
0
0
0
0
0
16
32
48
16
0
-16
-16
0
0
0
0
16
16
-16
-16
0
0
0
16
16
16
32
48
16
0
0
0
16
16
0
0
16
16
-16
-16
0
0
0
0
16
16
32
32
16
0
-16
-16
16
16
0
0
16
16
0
-16
0
0
0
0
0
16
32
32
16
0
-16
0
0
0
0
0
0
16
-16
-16
0
0
0
16
16
16
16
32
16
0
-16
-16
0
0
-16
0
16
16
0
-16
0
0
0
0
0
16
16
32
16
0
0
0
0
0
-16
-16
0
0
0
-16
0
0
0
0
0
0
16
16
16
0
0
0
0
0
-16
-16
0
0
-16
-16
-16
0
0
0
0
0
16
32
16
0
-16
-16
0
0
-16
-16
0
0
-16
-16
0
0
0
0
0
0
16
16
16
0
0
0
0
0
0
0
0
0
0
-16
-16
-16
-16
0
0
0
16
16
16
0
-16
-16
0
0
-16
-16
0
0
-16
-16
-16
0
0
0
0
0
16
16
16
0
-16
-16
0
0
-16
-16
0
0
-16
-16
-16
-16
-16
0
0
0
16
16
0
0
-16
-16
0
-16
-16
-16
0
0
-16
-16
0
0
0
0
0
0
16
16
0
0
0
0
0
0
0
0
-16
-16
-16
-16
-16
-16
-16
0
0
0
16
16
16
0
0
0
0
-16
-16
-32
-16
-16
-32
-32
-16
-16
-16
-16
-16
0
0
0
0
-16
-16
-16
0
0
-16
-16
0
0
-16
-16
-16
-16
-16
-16
-16
-16
0
0
0
-16
-16
-16
-16
-16
-16
-16
-16
-16
-32
-32
-16
-16
-16
-16
-16
-16
0
0
-16
-16
-16
-16
-16
-16
-16
-16
-16
-16
-16
-32
-32
-16
-16
-16
-16
0
0
0
0
-16
-16
-16
-16
-16
-16
-32
-16
-16
-32
-32
-16
-16
-16
-16
-16
-16
-16
0
-16
-16
-16
-16
-16
-16
-32
-32
-32
-16
-16
-16
-16
-16
-16
-16
-16
-16
0
-16
-16
-16
-32
-32
-32
-32
-32
-32
-16
-16
-16
-32
-16
-16
-16
-16
-16
-16
0
0
-16
-16
-16
-16
-16
-16
-32
-32
-16
-16
-16
-32
-16
-16
-16
-16
0
0
0
0
0
-16
-16
-16
-16
-16
-32
-32
-32
-16
-32
-32
-32
-16
-16
-16
-16
-16
-16
0
-16
-16
-16
-16
-16
-16
-16
-16
-16
-16
-16
-16
-16
-16
-16
-16
-16
-16
-16
0
-16
-16
-16
-16
-16
-16
-16
-16
-16
-16
-32
-32
-16
-16
-16
0
0
0
0
-16
-16
-16
-16
-16
-16
-16
-16
-16
-16
-16
-16
-32
-16
-16
-16
-16
-16
0
0
0
0
0
0
-16
-16
-32
-32
-16
-16
-16
-16
-32
-16
-16
-16
-16
-16
-16
-16
-16
-16
-16
-16
-16
-16
-16
-32
-32
-16
-16
-32
-32
-16
-16
-16
-16
-16
-16
-16
-16
-16
-16
-16
-16
-16
-16
-32
-32
-16
-16
-16
-16
-16
-16
-16
-16
-16
-16
-16
-16
-16
-16
-16
-16
-16
-16
-16
-16
-16
-16
-32
-32
-32
-32
-32
-32
-16
0
16
16
16
16
0
-32
-16
0
-16
-16
-16
-16
-16
-32
-16
-16
-16
-16
-16
-16
-16
-16
-16
-16
-16
-16
-16
-16
-16
-16
-16
-16
-16
-16
-16
-16
-16
-16
-16
-16
-16
0
0
-16
-16
-16
-16
-16
-16
-16
-16
-16
-16
-16
-16
-16
0
0
0
0
-16
-16
-16
-16
-16
-16
-16
-16
-16
-16
-16
-16
-16
-16
-16
-16
-16
-16
-16
0
0
0
0
0
0
0
0
-16
-16
-16
-16
-16
-16
-16
-16
-16
-16
-16
-16
0
0
0
0
-16
-16
-16
-16
-16
-16
-16
-16
-16
-16
-16
-16
-16
-16
-16
-16
-16
0
0
0
0
-16
-16
-16
-16
-16
-16
-16
-16
-16
-16
-16
-16
-16
0
0
0
0
0
0
0
0
-16
-16
-16
-16
-16
-16
-16
-16
-16
0
0
0
0
0
0
0
-16
-16
-16
-16
-16
-16
-16
-16
-16
-16
-16
-16
-16
-16
0
0
0
0
0
0
-16
-16
-16
-16
-16
-16
-16
-16
-16
-16
-16
-16
-16
-16
-16
-16
-16
0
0
0
0
-16
-16
-16
-16
-16
-16
-16
-16
-16
-16
-16
-16
-16
0
0
0
0
0
0
0
-16
-16
-16
-16
-16
-16
-16
-32
-16
-16
-16
-16
-16
-16
-16
-16
-16
-16
0
0
0
-16
-16
-16
-16
-16
-16
-16
-16
-16
-16
-32
-16
-16
-16
-16
-16
0
0
0
0
0
0
0
-16
-16
-16
-16
-16
-16
-16
-16
-16
-16
-16
-16
-16
0
0
0
0
0
0
-16
-16
-16
-16
-16
-16
-16
-16
-16
0
0
0
0
0
0
0
0
0
-16
-16
-16
-16
-16
-16
-16
-16
-16
-16
-16
-16
-16
-16
-16
-16
-16
-16
0
0
0
0
-16
-16
-16
-16
-16
-16
-16
-16
-16
-16
-16
0
0
0
0
0
0
0
0
0
0
-16
-16
-16
-16
-16
-16
-16
-16
-16
-16
-16
0
0
0
0
0
0
0
0
0
0
0
0
-16
-16
-16
-16
-16
-16
0
0
0
-16
-16
-16
-16
-16
0
0
-16
-16
-16
-16
-16
-16
-16
-16
-16
-16
-16
-16
-16
0
0
0
0
0
0
0
-16
-16
-16
-16
-16
-16
-16
-16
-16
-16
-16
0
0
0
0
0
0
0
0
0
0
0
0
0
0
0
0
0
-16
-16
-16
-16
-16
-16
-16
-16
-16
-16
0
0
0
0
0
0
0
-16
-16
-16
-16
-16
-16
-16
-16
-16
0
0
0
0
0
0
0
-16
0
-16
-16
-16
-16
-16
-16
-16
-16
0
0
0
0
0
0
0
0
0
0
0
-16
-16
-16
-16
-16
-16
-16
-16
-16
0
0
0
0
0
0
16
16
16
0
0
0
-16
-16
-16
-16
-16
-16
-16
-16
-16
0
0
0
0
0
0
0
0
0
-16
-16
-16
-16
-16
-16
-16
-16
-16
0
0
0
0
0
0
0
0
0
0
0
0
0
0
0
-16
-16
-16
-16
-16
-16
0
0
0
0
0
0
0
0
0
16
0
0
0
0
0
-16
-16
-16
-16
-16
-16
-16
0
0
0
0
0
0
0
0
-16
-16
-16
-16
-16
-32
-32
-16
-16
-16
-16
-16
0
0
0
0
0
0
0
0
0
-16
-16
-16
-16
-16
-16
-16
-16
-16
-16
0
0
0
0
0
0
0
0
0
0
0
0
-16
-16
-16
-16
-16
-16
-16
-16
-16
-16
0
0
0
0
0
0
-16
-16
-16
-16
-16
-16
-16
-16
-16
-16
-16
0
0
0
0
0
0
0
0
0
-16
-16
-16
-16
-16
-16
-16
-16
-16
-16
0
0
0
0
0
-16
-16
-16
-16
-16
-16
-16
-16
-16
-16
-16
-16
-16
-16
-16
-16
0
0
0
0
0
0
0
0
0
-16
-16
-16
-16
-16
-16
-16
-16
-16
-16
-16
0
0
-16
-16
-16
-16
0
0
0
0
0
-16
-16
-16
-16
-16
-16
-16
-16
-16
-16
-16
-16
-16
-16
-16
0
0
0
0
-16
-16
-16
-16
-16
-16
-16
-16
-16
-16
-16
-16
-16
0
0
0
0
0
0
0
0
-16
-16
-16
-16
-16
-16
-16
-16
0
0
0
0
0
0
0
0
-16
-16
-16
-16
-16
-16
-16
-16
-16
-16
-16
-16
-16
0
0
0
0
0
0
0
0
0
0
0
0
0
-16
-16
-16
-16
-16
-16
-16
-16
-16
0
0
0
0
0
0
0
0
0
0
0
-16
-16
-16
-16
-16
-16
-16
-16
-16
-16
-16
0
0
0
0
0
0
0
0
-16
-16
-16
0
0
0
0
0
-16
0
0
0
0
0
0
0
0
0
0
0
-16
-16
-16
-16
-16
-16
-16
-16
-16
-16
-16
-16
-16
-16
-16
0
0
0
0
0
0
0
-16
-16
-16
-16
-16
-16
-16
0
0
0
0
0
0
0
0
0
0
0
0
-16
-16
-16
-16
-16
-16
0
0
0
0
0
0
0
0
-16
-16
-16
-16
-16
-16
-16
-16
-16
-16
-16
-16
-16
-16
-16
-16
0
0
0
0
0
0
0
0
0
-16
-16
-16
-16
-16
-16
-16
-16
-16
0
0
0
0
0
-16
-16
-16
-16
-16
-16
-16
-16
-16
-16
-16
-16
-16
-16
-16
-16
-16
-16
0
0
0
0
0
0
-16
-16
-16
-16
-16
-16
-16
0
0
0
0
-16
-16
-16
0
0
0
0
0
-16
-16
-16
-16
-16
-16
-16
-16
-16
-16
-16
-16
-16
-16
0
0
0
0
0
0
0
0
-16
-16
0
-16
-16
-16
-16
-16
-16
0
0
0
0
16
16
16
0
0
0
-16
-16
-16
-16
-16
-16
-16
-16
-16
-16
-16
-16
-16
-16
-16
0
0
0
0
0
-16
-16
-16
-16
-16
-16
-16
-16
-16
-16
-16
0
0
0
0
0
-16
0
0
16
16
32
32
16
-16
-48
-48
-32
-16
-16
-16
-16
-32
-16
-32
-32
-16
0
16
16
0
-16
-16
-16
-16
0
0
-16
-32
-16
-16
0
0
0
0
0
0
0
0
0
-16
-16
-32
-16
-16
-16
-16
-16
-16
-16
-16
-16
-16
-16
-16
-16
0
0
0
-16
-16
-16
-16
-16
-16
-16
-16
-16
-16
-16
-16
0
0
0
0
0
0
0
0
0
0
0
0
0
-16
-16
-16
-32
-32
-16
-16
-16
0
0
0
0
0
-16
-16
-16
0
0
0
0
0
0
0
-16
-16
-16
-16
-16
-16
-16
0
0
-16
-16
-16
0
-16
-16
-16
-16
-16
-16
-16
-16
0
0
0
0
0
0
0
0
0
0
-16
-16
-16
-16
-16
-16
-16
0
0
-16
-16
-16
-16
-16
-16
0
0
-16
-16
-16
0
0
0
0
0
-16
-16
-16
-16
-16
-16
-16
0
0
0
0
-16
0
0
0
0
0
0
0
0
0
0
-16
-32
-16
-16
-16
-16
-16
0
0
0
0
0
0
0
0
-16
-16
-16
-16
-16
-16
0
0
-16
-16
-16
0
0
0
0
0
0
0
0
0
0
0
0
-16
-16
-16
0
0
-16
-16
-16
-16
-16
-16
0
0
0
0
0
0
0
-16
-32
-32
-16
-16
-16
-16
-16
-16
-16
-16
-16
0
0
0
0
0
0
0
0
-16
-16
-16
-16
-16
-16
0
0
-16
-16
-16
0
0
0
0
0
0
0
0
-16
-16
-16
-16
-16
-16
0
0
0
-16
0
0
0
0
0
0
0
16
16
0
0
-16
-16
-16
-16
-16
-16
-16
-16
-16
-16
-16
-16
0
0
0
0
0
0
0
0
0
0
-16
-16
-16
-16
-16
0
0
0
0
0
0
0
0
0
0
0
0
0
0
0
-16
-16
-16
-16
0
0
0
0
0
0
0
0
0
-16
0
0
0
0
0
0
0
-16
-16
-16
-16
-16
-16
-16
-16
-16
0
0
0
0
-16
-16
0
-16
-16
-16
-16
-16
-16
-16
-16
-16
-16
-16
-16
-16
0
0
0
0
0
0
0
0
-16
-16
-16
-16
-16
-16
-16
-16
-16
-16
-16
0
0
0
0
0
0
0
0
0
0
-16
-16
-16
-16
-16
-16
-16
-16
-16
-16
-16
-16
0
0
0
0
0
0
0
-16
-16
-16
-16
-16
0
0
-16
-16
-16
-16
-16
-16
-16
-16
-16
-16
0
0
-16
-16
-16
-16
-16
-16
-16
-16
-16
-16
-16
-16
-16
0
0
0
0
0
0
0
0
0
-16
-16
-16
-16
-16
-16
0
0
0
0
0
0
0
0
0
0
0
0
0
-16
-16
-16
-16
-16
-16
-16
-16
-32
-16
-16
0
0
0
0
0
0
-16
-16
-16
-16
-16
-16
-16
-16
-16
-16
-16
-16
-16
-16
-16
-16
0
0
0
0
0
0
0
0
-16
-16
-16
-16
-16
-16
-16
-16
-16
-16
0
0
0
0
0
0
0
0
0
0
0
0
-16
-16
-16
-16
-16
-16
-16
0
0
0
0
0
0
0
0
0
0
-16
-16
-16
-16
-16
-16
-16
-16
-16
-16
-16
-16
0
0
0
0
0
16
16
16
0
0
0
-16
-16
-16
-32
-32
-16
-16
-16
0
0
0
-16
-16
-16
-16
-16
0
0
0
0
16
16
16
16
16
16
0
0
0
0
0
16
0
0
-16
-16
-16
0
0
-16
0
0
-16
-32
-48
-48
-32
-32
-32
-16
0
0
0
-16
-16
0
0
-16
-16
-16
-16
-16
-16
0
0
0
-16
-16
-16
-16
-16
-16
-16
-16
-16
0
0
-16
-16
-16
-16
-16
-16
-16
-16
-16
-16
-16
0
0
0
-16
-16
0
0
0
0
-16
-16
-16
-16
-16
-16
-16
-16
-16
-16
-16
-16
0
0
0
0
0
-16
-16
-16
-16
-16
-16
-16
-16
-16
-16
-16
-16
-16
-16
0
0
-16
-16
-16
-16
0
-16
-16
-16
-16
-16
-16
-16
0
0
-16
-16
-16
0
0
0
0
0
0
0
0
0
-16
-16
-16
0
0
-16
-16
-32
-16
-16
0
0
0
0
0
0
0
0
0
0
-16
-16
-32
-32
-32
-32
-32
-32
-16
0
0
0
-16
-16
0
0
16
16
0
0
0
-16
-16
-16
-16
-16
-16
-16
-16
-16
-16
-16
-16
0
0
0
0
0
-16
0
-16
-16
-16
-16
-32
-16
-16
-16
-16
-16
-16
-16
0
0
0
16
16
16
0
0
-16
-16
-16
0
-16
-16
-16
0
-16
-16
-16
-16
-32
-32
-16
0
0
0
-16
-16
0
-16
-16
0
0
0
0
0
0
-16
-16
-16
0
0
-16
-16
-16
0
0
16
0
-16
-16
-16
-16
-16
-32
-32
-32
-32
-32
-32
-16
-16
-16
0
16
0
0
0
0
0
0
0
0
0
-16
-16
-16
-32
-48
-32
-16
-32
-16
-16
-16
-16
0
-16
-16
-16
-16
-16
-16
-16
0
-16
0
-16
-48
-32
-16
-16
-32
0
-16
0
48
96
80
16
-32
-32
-48
-48
-16
-32
-32
-16
16
16
0
-16
-16
-32
-48
-64
-48
-32
-16
-16
32
48
32
0
-16
0
16
32
32
0
-48
-32
-16
-32
-32
-16
-32
-48
-48
-16
-16
-48
-80
-80
-80
-80
-64
-16
16
32
32
0
0
16
16
32
80
64
-16
-32
-32
-80
-112
-128
-80
-48
-96
-128
-112
-112
-32
112
208
128
96
80
-16
-80
-64
-80
-64
0
80
144
144
176
32
-144
-96
16
64
80
48
16
-32
-16
-16
-48
-64
-32
-16
0
-32
-64
-80
-80
-80
-48
-48
-48
-64
-80
-48
-80
-112
-32
48
16
0
96
0
-144
-80
-80
-144
-16
112
-32
-80
16
-80
-224
-96
-16
-176
-208
-224
-304
-256
-96
-48
-32
112
176
48
-32
-48
-96
-144
-112
-96
128
336
256
128
48
-32
-48
-16
-64
48
0
-64
-48
0
64
48
64
64
0
128
96
-160
-144
-96
-80
-176
-144
-64
-48
96
288
320
144
16
64
-48
-64
16
16
-32
-112
-224
-320
-208
16
288
288
112
32
32
-32
-256
-336
-176
112
128
-144
-112
48
80
240
256
-64
-160
-48
-16
48
112
16
-208
-176
-80
-64
-112
16
16
0
32
32
-16
-48
-240
-304
-192
240
400
64
192
192
-48
-144
-224
-192
0
96
288
128
-176
-192
-16
96
32
32
-16
-288
-240
112
224
-176
-240
48
192
144
48
-48
-48
64
128
208
96
-144
-160
-64
-48
-128
-144
-48
-32
-64
-208
-240
16
240
192
144
-32
-144
0
112
32
-64
-48
-224
-368
-224
256
192
64
80
128
-32
-112
48
128
0
32
144
-48
-80
-32
-16
0
0
-128
-288
-304
-176
-96
32
320
608
608
-48
-208
-128
-144
-224
-208
-256
-336
-224
-64
224
304
176
16
-128
-160
-96
0
-48
-16
288
304
16
-368
-160
-16
208
208
48
-64
16
-48
-288
-448
-272
-64
128
240
-48
-176
-32
112
96
80
32
-128
-320
-256
-32
-96
-192
160
288
0
-32
-176
-224
-128
-16
176
320
80
-112
-128
48
336
128
-304
-208
160
176
-16
-48
-16
48
-16
-160
-256
-96
-272
48
544
512
-16
-288
-256
-240
160
256
112
112
112
112
80
128
32
-32
-48
-80
-160
-272
-144
80
224
192
0
-32
-80
-16
32
128
304
96
-160
-80
48
-64
-160
-128
96
160
16
16
16
-128
-80
64
16
112
176
160
-48
-304
-272
48
224
208
96
-80
-96
-32
-160
-80
80
224
128
128
128
-16
16
160
208
112
-16
-48
-80
-80
-48
-128
-176
-128
-128
-352
-128
320
320
256
208
112
96
-112
-240
-320
-352
-80
272
144
144
-80
-224
-48
112
64
64
16
-16
-16
-16
-112
-160
-16
336
464
160
-32
128
192
32
16
-32
-176
-144
-80
-96
-32
48
-32
-144
-240
-128
48
-32
48
176
160
112
80
112
272
208
-144
-256
-256
-272
32
144
-240
-400
-96
288
272
224
256
128
-80
-128
-16
112
208
128
-160
-240
-96
112
80
144
288
288
-192
-336
-288
32
224
160
-32
-80
-32
-64
-64
-32
-96
-272
-352
-128
96
224
336
240
48
48
-16
-80
-112
-64
-64
-288
0
256
176
48
48
176
160
32
0
-112
-192
-128
-144
-144
96
144
-80
-32
-16
-128
-32
112
192
176
192
64
-128
-160
-112
-16
16
0
-16
32
-16
32
112
64
16
144
208
-96
-192
-80
-16
0
0
-96
-336
-336
-144
-112
144
336
176
96
112
144
176
176
48
-128
-96
-48
-64
-64
32
96
-16
-160
-128
48
-64
32
208
80
-96
112
64
-96
-160
-80
-176
-240
-144
128
192
272
272
32
-64
0
16
-272
-400
-176
160
160
48
32
128
208
48
-160
-80
160
144
-96
-160
-80
-32
16
80
48
-144
-384
-144
160
80
-64
-32
48
-16
48
160
32
-64
-128
-336
-480
-384
160
416
240
-80
-96
208
256
-16
-224
-208
16
192
288
176
-144
-304
-192
-112
-128
0
-48
16
16
48
80
80
-16
-64
240
400
160
16
-128
-256
-272
-176
-48
368
496
80
-320
-32
48
0
32
0
48
-16
-80
-96
-176
-32
288
240
-48
16
128
64
-368
-384
128
400
80
16
96
96
-16
-80
-80
32
32
-160
48
256
144
-32
0
0
48
-32
-48
0
-112
-32
48
-64
16
176
96
16
0
96
192
192
48
-224
-144
0
176
80
-112
-128
48
48
-80
-176
-160
-176
-64
-32
240
368
112
-160
-192
-176
16
160
-112
-176
80
128
16
32
96
80
16
0
-80
-288
-320
-112
96
32
32
144
160
32
80
160
128
144
64
-16
-16
-32
-96
-240
-128
-48
-96
-80
32
128
112
128
-48
-176
-16
224
256
160
16
-96
-112
-96
-128
-64
160
352
176
-400
-352
64
272
144
16
-80
0
32
-16
-192
-240
-80
-32
112
112
32
-80
48
48
0
0
-48
-128
-224
-400
-240
288
432
256
128
192
128
32
96
112
-80
-80
0
32
16
-128
-144
-128
-208
-368
-288
80
208
240
-32
-208
0
112
48
32
32
112
96
64
80
16
-48
-48
-32
96
32
-64
96
96
-128
-192
-128
0
160
80
96
-16
-112
-128
-48
64
144
96
32
16
-128
-256
-112
-32
-256
-112
336
256
-32
16
192
192
0
-32
-16
-48
-80
-64
-80
0
64
16
-16
0
48
80
-144
-288
-112
144
-48
-160
-80
64
128
96
144
240
64
-80
-32
-32
-128
-112
-32
0
64
112
-48
-256
-160
112
96
-16
16
16
-16
16
48
64
16
-80
-128
-112
16
144
208
64
-48
-16
48
-16
-64
-96
112
48
-112
-112
64
128
-80
-176
-64
-48
-176
-320
0
240
176
64
80
128
160
48
32
32
-16
-80
-64
16
0
-32
48
-32
-96
-112
48
80
-32
0
-16
-32
-16
64
0
-144
-128
-16
16
0
80
128
-16
-192
-144
32
64
-96
-128
48
416
400
0
-208
-128
-112
-96
-32
80
80
16
-48
-16
0
-144
-288
-144
128
128
128
80
16
0
32
32
-144
-304
-240
-32
176
224
80
48
144
320
256
-32
-48
-48
-64
-208
-128
128
32
-64
-144
-112
-64
-48
-80
-96
-48
80
144
160
128
-96
-64
80
64
16
-64
-32
0
16
0
-16
-96
-80
160
432
192
-128
-336
-176
224
176
-16
-16
-32
-64
-112
-128
-32
-16
-112
-128
16
-128
-304
16
432
208
64
16
-48
-48
-16
-16
48
160
112
48
-160
-320
-192
-96
-80
192
304
96
0
-32
-16
0
0
0
16
0
-16
0
16
96
128
-64
-208
-80
96
144
32
-144
-48
-16
-48
32
176
144
-96
-112
-64
-32
-48
-208
-208
32
160
64
96
128
64
-64
-64
48
160
160
16
-48
-16
-64
-112
0
112
96
16
-80
48
80
-160
-128
16
96
-48
-192
-224
-16
64
-32
48
160
-48
-288
-176
144
240
240
32
-64
0
0
16
128
80
-96
-336
-256
144
336
48
-64
128
176
16
-96
-16
0
-48
-176
-336
-272
112
272
272
128
-80
-48
0
-32
-80
-208
-224
80
272
128
-48
32
128
16
32
-32
-96
-112
-128
-32
80
48
-48
-128
240
304
112
0
-64
-48
-64
-192
-144
32
0
-96
-96
-64
48
176
128
-16
48
80
16
0
0
-32
-80
-32
32
16
-16
32
96
48
-96
-240
-176
64
128
-16
-80
-64
0
-16
-192
-208
-16
96
32
0
64
176
272
256
304
256
-128
-288
-80
-48
-192
-144
0
-80
-224
-32
64
208
256
-96
-352
-240
240
384
64
-80
-64
-96
-96
-80
-112
-80
32
96
96
96
96
-32
-32
16
48
80
-80
-144
0
80
16
-80
0
16
-288
-384
-192
176
288
176
112
128
80
32
16
0
16
48
-80
-448
-688
-448
256
496
224
32
32
112
144
128
-16
-144
-64
96
96
48
96
0
-176
-176
-16
96
-32
-320
-240
144
272
32
-96
-160
-48
0
64
144
80
-32
-48
-64
-48
-32
80
176
128
32
64
48
-192
-256
-32
160
48
48
32
32
32
-16
0
-64
-144
-64
16
80
64
64
-64
-112
-80
-16
-16
-96
-48
160
192
112
112
64
-128
-192
-32
112
-112
-176
-32
64
128
80
96
96
16
-48
-64
-80
-48
16
0
-128
-96
112
80
0
64
48
-16
16
128
112
-32
-224
-240
-64
112
-160
-96
128
224
112
144
48
-48
-48
0
0
-64
-32
-32
-48
0
80
112
16
-112
-48
64
-32
-160
-224
-272
-192
336
528
160
16
-48
-64
-32
32
32
-16
-16
-16
-48
-64
-96
0
80
-160
-240
32
16
-112
80
288
160
-48
-16
16
-144
-224
-32
112
-48
-16
128
128
48
112
176
96
-192
-208
80
112
-128
-320
-320
-160
48
208
304
160
112
144
-16
-112
-80
64
16
-160
-192
16
64
48
128
144
48
-32
-96
-96
0
16
80
0
-80
-144
-64
208
240
48
-96
-96
-16
-144
-336
-176
96
-128
-512
-400
96
112
144
416
352
144
0
0
48
32
-48
-160
-288
-240
48
192
-288
-224
272
368
112
48
32
0
64
112
48
64
-80
-128
-16
192
112
48
160
32
-176
-96
64
32
32
16
80
48
-64
-192
-96
80
48
-48
32
160
-64
-432
-192
144
144
-64
16
16
-224
-352
-128
176
144
-48
32
176
112
80
112
128
160
0
-480
-624
-64
480
400
192
48
48
-32
-96
-64
16
96
48
64
176
-32
-304
-224
0
208
112
16
16
0
-32
-16
112
176
32
-48
-16
-16
-32
-128
-224
-224
-112
240
464
528
112
-304
-240
-48
16
0
-128
-304
-336
-48
320
528
304
192
32
-128
-128
-64
0
-16
16
-64
-80
-16
0
-64
-16
176
144
32
0
-96
-256
-336
-64
128
48
-176
-80
96
176
160
160
80
-48
-144
-336
-304
64
160
16
144
176
112
160
160
48
0
-96
-224
-112
224
384
128
32
-48
-48
0
-80
-96
-48
-80
-80
0
-48
-288
-480
-128
512
224
-160
-112
128
224
160
144
144
80
0
32
48
-48
-128
-176
-160
16
240
256
-48
-176
0
96
-16
-80
-112
-144
16
208
48
-16
32
80
32
80
0
-16
16
-48
-80
-16
32
64
48
-16
-16
80
128
64
32
32
-16
-96
-80
-16
-16
32
16
-144
-144
-112
96
80
32
16
-48
-176
-288
-160
176
176
32
-32
16
32
112
128
96
32
-16
48
16
-16
-48
-64
-96
-112
32
80
0
-16
32
32
0
-16
64
96
64
64
0
-32
-48
-96
-128
-32
288
288
-64
-160
-48
-32
-16
0
-16
-32
-16
16
64
32
-96
-96
32
96
96
48
-16
-32
32
-16
-64
-32
0
-16
-16
0
48
96
32
-32
-96
-80
-32
-112
-240
-240
-288
48
336
272
80
-16
32
-32
-16
48
64
16
-48
0
-32
-48
32
112
80
0
0
16
48
48
48
64
16
-48
16
48
16
0
-48
-48
-16
0
0
0
16
0
-96
-240
-192
80
48
-112
80
208
176
16
-32
-32
16
16
-32
-112
-144
-32
64
32
16
32
-32
-48
-16
32
32
-16
-64
-64
-16
0
0
-32
32
48
-48
-48
-32
16
32
16
16
-32
-32
-96
-192
-96
80
128
64
-32
-112
-48
80
80
0
16
16
-80
-80
32
144
64
-112
-48
48
48
16
16
16
-32
-16
48
16
16
48
32
-16
-32
32
128
96
16
-144
-208
-96
-16
0
-64
-16
48
48
80
32
0
32
16
-16
0
32
48
80
48
16
32
-48
-112
-128
-80
-32
-16
48
32
-64
-96
0
112
64
-16
-16
32
48
-16
-16
32
16
-48
-32
0
48
48
-16
-32
-32
16
16
-16
64
64
16
16
16
-16
-32
16
32
16
-16
-16
-16
0
16
16
0
16
32
32
-32
-48
-32
-16
-32
-48
-48
-16
0
80
64
32
0
-16
16
16
-16
-16
32
80
48
16
-16
0
16
-32
-48
-16
16
0
0
-16
-16
0
0
0
0
0
0
16
0
16
32
32
32
-16
-32
0
32
0
0
0
0
16
16
16
0
0
0
16
0
0
32
32
32
0
-16
16
16
0
0
0
0
0
16
16
0
0
0
16
0
0
32
32
32
0
-16
0
16
16
0
0
0
0
16
16
0
0
0
0
-16
-16
16
16
16
16
16
0
0
0
16
0
-16
-16
0
16
16
0
-16
-16
-16
-16
32
48
32
-16
0
16
16
16
0
0
0
16
16
16
16
0
0
16
0
0
16
32
32
0
-16
0
16
16
0
0
0
0
0
0
0
0
0
0
0
0
0
16
16
0
-16
0
16
0
0
0
0
0
0
0
0
-16
0
0
0
0
16
16
16
0
-16
0
16
0
0
0
0
0
0
0
0
0
0
0
0
0
16
16
16
-16
-16
0
0
0
0
-16
-16
0
0
0
0
0
0
16
0
0
16
16
16
0
-16
0
0
0
0
0
0
0
0
0
0
-16
-16
0
0
0
16
16
16
0
-16
0
16
0
0
0
-16
0
0
0
0
0
0
16
0
0
16
16
16
0
-16
0
0
0
0
0
0
0
0
0
0
0
0
0
0
0
0
0
0
-16
-16
0
0
0
0
0
-16
0
0
0
0
0
0
0
0
0
0
16
16
0
-16
0
0
0
0
0
-16
0
0
0
-16
-16
0
0
0
0
0
16
16
0
-16
0
0
0
0
0
-16
0
0
-16
-16
-16
0
0
0
0
16
16
16
0
0
0
0
0
-16
-16
-16
-16
-16
-16
-16
-16
0
0
0
0
0
0
0
-16
-16
0
0
0
0
0
0
0
-16
-16
-16
-16
-16
-16
-16
-16
0
0
0
-16
-16
0
0
0
0
0
0
0
0
-16
-16
-16
-16
-16
-16
-16
0
0
0
0
0
0
0
0
0
0
-16
-16
-16
-16
-16
-16
-16
-16
-16
-16
0
0
0
0
-16
0
0
0
0
-16
-16
-16
-16
-16
-16
-16
-16
-16
-16
0
0
0
0
0
0
0
0
0
-16
-16
-16
-16
-16
-16
-16
-16
-16
-16
-16
0
0
0
0
-16
-16
0
0
0
-16
-16
-16
-16
-16
-16
-16
-16
-16
0
-16
-16
0
0
0
-16
-16
0
0
0
-16
-16
-16
-16
-16
-16
-16
-16
-16
-16
-16
-16
-16
0
0
0
-16
0
0
0
-16
-16
-16
-16
-16
-16
-16
-16
-16
-16
-16
-16
0
0
0
-16
-16
-16
0
0
0
-16
-16
-16
-16
-16
-16
-16
-16
-16
-16
-16
0
0
0
0
-16
0
0
0
-16
-16
-16
-16
-16
-16
-16
-16
-16
0
0
0
0
-16
-16
-16
-16
-16
0
0
0
-16
-16
-16
-16
-16
-16
-16
-16
-16
-16
-16
-16
-16
0
-16
0
0
0
0
0
-16
-16
-16
-16
-16
-16
-16
-16
-16
-16
-16
0
0
0
0
-16
-16
0
0
-16
-16
-16
-16
-16
-16
-16
-16
-16
-16
-16
0
0
0
0
-16
-16
0
0
0
-16
-16
-16
-16
-16
-16
-16
-16
-16
-16
-16
-16
0
0
0
-16
-16
0
0
-16
-16
-16
-16
-16
-16
-16
-16
-16
-16
-16
-16
-16
0
0
0
0
0
0
0
0
-16
-16
-16
-16
-16
-16
-16
-16
-16
-16
-16
0
0
0
-16
-16
-16
0
0
0
-16
-16
-16
-16
-16
-16
-16
-16
-16
-16
-16
-16
0
0
0
0
0
-16
-16
-16
-16
-16
-16
-16
-16
-16
-16
-16
-16
-16
-16
-16
-16
-16
0
0
0
0
0
0
0
-16
-16
-16
-16
-16
-16
-16
-16
-16
-16
-16
-16
-16
0
0
0
0
0
0
0
0
0
0
-16
-16
-16
-16
-16
-16
-16
-16
-16
0
0
0
0
0
0
0
-16
-16
-16
-16
-16
-16
-16
-16
-16
-16
-16
-16
-16
-16
0
-16
0
0
0
0
0
-16
-16
-16
-16
-16
-16
-16
-16
-16
-16
-16
-16
-16
0
0
-16
-16
0
-16
-16
-16
-16
-16
-16
-16
-16
-16
-16
-16
-16
-16
0
0
0
0
0
0
0
0
0
0
-16
-16
-16
-16
-16
-16
-16
-16
-16
-16
-16
-16
0
0
0
0
0
0
0
0
-16
-16
-16
-16
-32
-32
-16
-16
-16
-16
0
0
0
0
0
0
0
0
-16
-16
-16
-16
-16
-16
-16
-16
-16
-16
-16
-16
-16
0
0
0
0
0
0
0
0
0
-16
-16
-16
-16
-16
-16
-16
-16
-16
-16
-16
0
0
0
0
0
0
0
-16
-16
0
0
0
0
0
-16
-16
-16
-16
-16
-16
-16
0
0
0
0
0
0
0
0
-16
-16
-16
-16
-16
-16
-16
-16
-16
-16
-16
0
0
0
0
0
0
0
0
0
0
0
-16
-16
-16
-16
-16
-16
-16
-16
0
0
0
-16
-16
-16
-16
-16
-16
-16
-16
-16
-16
-16
-32
-16
-16
-16
-16
-16
-16
-16
0
0
0
0
0
0
0
-16
-16
-16
-16
-16
-16
-16
-16
-16
-16
-16
0
0
0
0
0
0
0
0
0
0
-16
-16
-16
-16
-16
-16
-16
-16
-16
-16
0
0
0
0
0
-16
0
0
0
0
-16
-16
-16
-16
-16
-16
-16
-16
-16
-16
-16
-16
0
0
-16
0
0
0
0
-16
-16
-16
-16
-16
-16
-16
-16
-16
-16
-16
-16
0
0
-16
-16
-16
-16
0
0
0
0
0
0
0
-16
-16
-16
-16
-16
-16
-16
0
0
0
0
0
0
0
0
0
-16
-16
-16
-16
-16
-16
-16
-16
-16
0
0
0
0
0
0
0
0
0
0
0
-16
-16
-16
-16
-16
-16
-16
-16
-16
-16
-16
-16
-16
0
0
0
0
-16
-16
-16
-16
0
-16
-16
-16
-16
-16
-16
-16
-16
-16
0
0
0
0
-16
-16
0
0
-16
-16
-16
-16
-16
-16
-16
-16
-16
-16
-16
0
0
0
0
0
0
0
0
0
0
0
0
0
0
0
0
-16
-16
-16
-16
-16
-16
-16
-16
0
0
0
0
0
0
-16
-16
-16
-16
-16
-16
-16
-16
-16
-16
0
0
0
0
0
0
0
0
0
0
-16
-16
-16
-16
-16
-16
-16
-16
-16
-16
0
0
0
0
0
0
0
0
0
0
0
-16
-16
-16
-16
-16
-16
-16
-16
-16
-16
0
0
0
0
0
0
0
0
0
-16
-16
-16
-16
-16
-16
-16
-16
-16
-16
-16
0
0
0
0
0
0
0
0
0
-16
-16
-16
-16
-16
-16
-16
-16
-16
-16
0
0
0
0
0
0
0
0
0
0
0
0
-16
-16
-32
-16
-16
-16
-16
-16
0
0
16
16
16
16
16
0
0
-16
-16
-16
-16
-16
-16
-16
-16
-16
-16
-16
-16
-16
-16
-16
-16
0
0
0
0
-16
-16
-16
-16
-16
-16
-16
-16
-16
-16
0
0
0
0
0
0
-16
-16
0
0
0
0
0
0
0
-16
-16
-16
-16
-16
-16
-16
-16
-16
0
0
0
0
0
0
0
-16
-16
-16
-16
-16
-16
-16
-16
-16
-16
0
0
0
0
0
0
0
0
0
0
-16
-16
-16
-16
-16
0
0
-16
-16
-16
0
0
0
0
0
0
0
0
0
0
-16
-16
-16
-16
-16
-16
-16
-16
-16
-16
-16
0
0
0
0
-16
0
0
0
0
0
-16
-16
-16
-16
-16
-16
-16
-16
-16
-16
-16
-16
-16
-16
-16
0
0
0
0
0
-16
-16
-16
-16
-16
-16
-16
-16
-16
-16
-16
-16
0
0
0
0
0
0
0
0
-16
-16
-16
-16
-16
-16
-16
-16
-16
-16
-16
0
0
16
0
0
0
0
0
0
-16
-16
-16
-16
-16
-16
-16
-16
-16
0
0
0
0
0
0
0
16
16
16
16
0
-16
-16
-16
-16
-16
-16
-32
-16
-16
-16
-16
-16
-16
0
0
0
0
0
0
-16
-16
-16
-16
-16
-16
-16
-16
-16
-16
-16
-16
0
0
0
0
0
0
-16
-16
-16
-16
-16
-16
-16
-16
-16
-16
-16
-16
-16
0
0
0
0
0
0
0
0
0
-16
-16
-16
-16
-16
-16
-16
-16
-16
0
0
0
0
0
0
0
0
0
0
0
0
0
0
0
0
0
-16
-16
-16
-16
0
0
0
-16
-16
0
0
0
0
0
0
-16
-16
-16
-16
-16
-16
-16
0
0
-16
-16
-16
-16
-16
-16
0
0
0
-16
-16
-16
-16
-16
-16
-16
-16
-16
-16
-16
0
0
0
0
0
0
0
0
0
-16
-16
-16
-16
-16
-16
-16
-16
-16
-16
-16
-16
0
0
0
0
0
0
0
0
0
-16
-16
-16
-16
-16
-16
-16
-16
-16
-16
0
0
0
0
0
0
0
0
0
-16
-16
-16
-16
-16
-16
-16
-16
-16
-16
-16
-16
-16
-16
0
0
0
0
0
0
0
-16
-16
-16
-16
-16
-16
-16
-16
-16
-16
-16
-16
0
0
0
0
0
0
0
0
-16
-16
-16
-16
-16
-16
-16
-16
-16
-16
0
0
0
0
0
0
0
0
0
0
-16
-16
-16
-16
-16
-16
-16
-16
-16
-16
0
0
0
0
0
0
0
0
0
0
0
0
-16
-16
-16
-16
-16
-16
-16
0
0
0
0
0
0
0
0
0
0
-16
-16
-16
-16
-16
-16
-16
-16
-16
-16
-16
0
0
0
0
0
0
0
0
0
0
-16
-16
-16
-16
-16
-16
-16
-32
-16
-16
0
0
0
0
0
0
0
0
0
0
-16
-16
-16
-16
-16
-16
-16
-16
0
0
0
0
0
-16
-16
-16
-16
0
0
0
0
-16
-16
-16
-16
-16
-16
-16
-16
-16
-16
-16
-16
0
0
0
0
0
0
0
0
-16
-16
-16
-16
-16
-16
-16
-16
0
0
0
0
0
0
0
0
0
0
0
0
0
0
0
-16
-16
-16
-16
-16
-16
-16
-16
-16
-16
0
0
0
0
0
-16
-16
-16
-16
-16
-16
-16
-16
-16
-16
-16
0
0
0
0
0
0
0
0
0
0
0
-16
0
0
-16
-16
-16
-16
0
0
0
0
0
0
0
0
0
0
0
-16
-16
-32
-32
-32
-32
-16
-16
0
-16
-16
-16
0
0
0
0
0
0
0
16
0
0
0
0
-16
-16
-16
-16
-16
-16
-16
-16
0
0
0
0
0
0
0
0
0
0
-16
-16
-16
-16
-16
-16
-16
-16
-16
-16
-16
0
0
0
0
0
0
0
0
0
0
0
0
0
0
-16
-16
-16
-16
-16
0
0
0
0
0
0
0
0
0
-16
-16
-16
-16
-16
-16
-16
-16
-16
-16
-16
0
0
0
0
0
0
0
16
0
0
-16
-16
-16
-16
-16
-16
-16
-16
-16
-16
-16
-16
0
0
0
0
0
0
0
0
-16
-16
-16
-16
-16
-16
-16
-16
-16
0
0
0
0
0
0
16
16
16
0
0
-16
-16
-16
-16
-16
-16
-16
-16
-16
-16
-16
0
0
0
0
0
0
0
0
0
-16
-16
-16
-16
-16
-16
-16
-16
0
0
0
0
0
0
0
0
0
0
0
0
-16
-16
-16
-16
-16
-16
-16
-16
-16
-16
0
0
0
0
0
0
0
0
0
-16
-16
-16
-16
-16
-16
-16
-16
-16
-16
-16
-16
-16
-16
0
0
16
16
16
16
0
-16
-16
-16
-16
-16
0
0
-16
0
0
0
0
0
0
0
-16
-32
-32
-32
-16
-16
0
0
16
0
0
-16
0
0
0
0
0
0
0
0
-16
-16
-16
0
0
0
-16
-32
-32
-32
-16
-16
0
0
16
48
16
-48
-32
0
0
0
0
16
0
0
-16
0
0
-16
0
0
-16
-16
-32
-48
-48
-48
-48
-64
-48
-16
0
16
16
32
32
0
-32
-32
-64
-80
-32
32
80
64
96
112
32
-48
-48
-16
-16
-32
-48
-80
-96
-112
-96
-64
-80
-96
-64
16
32
48
64
112
112
64
48
64
48
0
0
-16
-64
-80
-64
-64
-48
-32
-16
16
-32
-80
-96
-80
-32
16
48
32
0
-16
-32
-32
-32
-32
0
32
64
96
48
-32
-32
-16
0
16
0
0
0
0
0
16
16
16
0
-16
-16
-32
-48
-32
0
-16
-32
-32
-32
-16
32
80
64
-16
-96
-128
-144
-80
0
48
64
32
0
32
48
32
16
-16
-48
-48
-48
-32
16
48
0
0
32
16
-16
0
16
-16
-32
16
16
-48
-80
-32
16
32
64
48
32
32
-16
-112
-128
-64
48
80
32
-32
-48
-32
0
16
-48
-64
-48
-32
-32
-16
16
32
16
32
48
48
32
64
64
16
16
-48
-64
-48
-16
16
16
-16
-64
-32
32
48
64
64
32
-16
-48
-32
-16
-16
32
64
16
-64
-80
-48
48
64
-112
-240
-256
-144
48
144
160
96
-32
-128
-112
-112
-64
128
96
-16
-32
0
0
0
16
32
32
0
-80
-80
16
32
32
112
48
16
112
48
-48
-64
0
32
-16
-32
32
96
64
0
-64
-48
32
48
-16
-96
-80
-80
-80
-48
-16
-96
-144
-128
0
96
128
112
32
64
-48
-176
-144
32
112
176
128
48
-96
-192
-144
-48
0
-16
-96
-112
16
112
128
48
-16
-64
-80
-96
-64
-64
-96
0
-16
0
32
-16
-32
0
160
416
368
-48
-192
-208
-144
-64
-48
-32
-16
64
32
-16
-32
-64
-80
-96
-32
-32
-32
128
208
192
-16
-192
-96
0
16
80
-16
-128
-48
96
160
0
-96
-112
-144
-80
176
288
144
-80
-48
0
-32
0
-80
16
144
96
80
128
32
-64
-80
-64
-208
-288
-224
-144
48
272
384
224
32
-32
16
16
80
272
144
-16
-144
-160
64
48
-48
80
144
176
-144
-288
-16
144
0
-48
-48
-32
-16
-64
-128
-64
32
80
64
64
16
-64
-224
-272
-64
160
-48
-160
-64
112
112
-64
-160
-128
-112
64
256
304
176
-32
-96
-192
-256
-144
16
96
32
-96
-112
16
96
112
144
128
48
-64
-48
64
-80
-128
-80
-16
64
112
-48
0
64
240
112
-208
-256
-272
-192
-32
48
32
0
16
32
16
64
80
144
208
96
-32
-256
-336
-224
0
176
80
-144
-64
224
112
-144
0
-16
-96
-224
-192
0
16
-48
-32
16
-32
16
112
128
64
-144
-256
-128
208
272
0
-112
-80
-80
-112
-144
-144
48
192
128
32
-16
-64
48
288
224
-80
-112
-144
-192
-144
-96
0
48
16
-32
16
-48
-192
-112
-32
176
240
32
-176
-48
112
80
-176
-240
-240
-16
80
16
48
144
32
-160
-48
-16
0
16
32
0
-80
-128
-80
128
192
80
16
-48
-240
-256
96
144
-112
-256
-80
16
32
64
64
0
-80
-48
-32
-128
-176
-144
-64
112
144
80
128
176
-16
-144
-112
-48
16
16
-128
-64
16
64
256
112
-128
-96
-64
-96
-16
32
0
-128
-176
-112
16
64
0
-128
-32
128
144
16
-32
-96
0
32
16
-16
-64
-64
32
96
32
-192
-128
-96
48
176
16
-160
-48
128
80
0
-64
32
96
-32
-96
80
144
0
-224
-96
-144
-144
-192
-240
-80
96
128
64
32
-16
-128
-208
0
336
432
240
96
-160
-256
-80
-32
-64
-48
-32
-16
-96
-192
-176
16
192
96
-32
-128
-96
32
64
-48
-144
-144
-16
48
64
128
128
64
128
64
-128
-176
-64
96
64
64
-48
-256
-240
-96
112
80
-128
-192
-96
-48
-48
80
112
80
128
80
-96
-80
32
32
64
144
-16
-240
-192
0
128
32
-64
-48
160
160
-272
-400
64
336
48
-64
-80
-96
-112
64
224
128
-176
-272
-160
-16
176
160
144
144
112
32
-128
-384
-528
-368
192
192
128
128
176
160
112
208
192
-16
-80
-16
-144
-208
-192
-112
16
-16
-160
0
-96
-288
-160
-16
-48
-144
-64
160
96
-16
32
128
176
272
352
16
-96
96
48
-192
-256
-128
0
64
-32
-80
-64
-16
96
144
0
0
96
0
-32
-32
0
-96
0
128
64
-32
-96
-16
64
32
0
-16
-80
-176
-48
128
16
0
0
-80
-64
-32
32
96
-80
-16
80
160
96
-208
-304
-96
96
64
16
-16
0
-16
-32
64
-96
-304
-80
96
-96
-224
-80
240
336
128
-64
-64
16
16
48
208
368
64
-208
-176
-112
-80
-64
-128
-112
-48
80
144
96
16
-32
-64
-144
-160
16
0
-112
-32
32
48
144
112
0
-32
-16
-32
48
256
176
-160
-208
32
176
80
-112
-160
-128
-48
-32
32
48
32
-32
-176
-208
-144
-16
48
32
64
64
16
16
16
-32
-208
-112
-32
64
128
112
96
96
64
160
192
16
-208
-192
-80
-64
0
-16
32
96
80
-80
-304
-208
0
64
-32
0
112
96
48
32
144
-80
-144
80
160
96
-64
-80
80
128
32
-112
-80
-48
-32
-96
-128
-128
-192
-272
-272
-112
224
432
336
-96
-176
16
112
-32
-80
0
48
96
112
208
64
-64
48
48
-80
-96
-80
-64
-48
-176
-224
-160
64
80
144
256
160
-96
-160
-16
32
-64
-272
-304
-32
272
176
176
80
-112
-144
-16
32
-96
-288
-128
96
144
64
32
64
48
80
16
-64
-64
-16
-48
-128
-32
64
48
16
128
208
-64
-16
64
96
-80
-48
64
160
-48
-96
-96
-80
-144
-80
64
96
32
-48
-32
-80
-256
-96
176
80
-16
0
48
-32
-80
48
208
80
-48
-128
0
96
32
-32
48
32
-48
-64
-32
-48
-128
-256
-256
-32
256
112
96
336
304
64
-32
-144
-176
-64
-32
16
16
0
-16
0
32
16
0
-80
-112
16
192
16
-64
-96
-32
16
-160
-288
-144
80
-64
32
352
368
-16
-48
128
64
-80
-112
-80
0
0
-80
-48
-48
16
112
128
240
128
-48
-96
-112
-48
-16
32
128
128
-112
-288
-16
128
-80
-112
224
352
-64
-336
-320
-48
32
-112
-96
64
96
144
48
-80
-128
-64
0
208
304
48
-48
-48
-32
48
112
112
80
-96
-240
-208
-128
-64
-16
-128
-112
160
112
-80
-144
16
-64
-16
80
80
80
80
-16
-128
-32
112
240
112
16
-16
-64
-64
-16
-16
-48
16
96
112
0
-80
-64
16
-80
-144
-64
112
80
0
-48
96
144
-144
-336
-80
32
160
96
32
0
-32
-64
-48
-48
-128
-176
16
144
224
176
16
-144
-16
96
-96
-80
272
128
-144
-240
-80
80
16
-64
-32
16
32
0
-80
-96
-16
128
240
-32
-112
-64
16
32
0
-16
48
64
16
16
-32
0
32
16
32
48
64
16
-96
-80
32
32
-80
-32
16
-128
-144
-48
128
0
-256
-192
96
272
240
16
48
16
-80
0
16
-16
-80
-16
48
80
0
-128
-176
-80
0
-16
16
16
32
48
0
-32
-32
32
16
-32
0
-32
48
176
-32
-144
-80
16
144
48
-160
-96
48
32
-32
-80
-48
-64
-160
-160
16
112
64
208
256
96
-32
96
240
128
-160
-224
-96
-48
-32
-16
-16
0
16
16
32
64
32
-16
16
0
-48
-32
-32
-48
96
256
64
-80
-64
-128
-112
0
-48
-64
-48
-32
-48
-80
0
16
80
96
16
16
32
32
64
16
-80
-160
-176
-128
-192
32
192
256
64
-32
-32
48
16
0
0
16
32
16
0
16
0
64
48
64
0
-64
0
16
-80
-32
-32
-176
-80
-32
32
-16
-48
-112
-64
32
16
32
48
64
16
16
48
96
112
96
-32
16
32
-32
-64
-32
-48
-64
-64
-80
-144
-144
96
256
64
-80
-80
-48
-32
-16
32
96
176
176
-32
-208
-128
-48
64
144
64
-192
-336
-176
144
144
16
0
0
-32
16
0
-64
-80
-16
48
48
48
48
48
64
64
-64
-64
-32
16
32
64
64
64
32
32
-16
-48
-16
0
-16
-64
-64
-32
-48
-80
-48
48
144
160
48
16
-16
-80
-48
-16
16
16
-64
-48
-16
-64
-112
-48
-16
32
112
160
16
-64
-80
-48
16
16
16
16
0
-16
48
48
-16
-80
-80
0
-16
-80
-112
-144
-32
128
208
64
-48
-80
-48
16
48
16
-16
-16
16
-48
-80
-64
-32
16
16
16
0
0
-16
-16
16
32
32
16
-48
-64
0
112
64
-16
-48
-48
0
0
-32
-32
-32
0
0
32
16
-16
0
16
16
-16
-16
0
-16
-32
-48
-48
-48
-16
48
48
0
-80
-80
-16
48
32
16
16
16
16
-32
-32
-48
-32
0
0
-48
-80
-48
32
160
144
80
-32
-128
-64
0
0
32
48
96
64
-32
-64
-32
48
96
80
-80
-112
-16
32
0
-80
-48
48
144
96
-32
-64
-32
0
0
-32
-48
-48
-16
80
224
176
16
-48
-32
-64
-64
-32
0
16
16
0
-32
-32
-32
-16
16
16
0
0
0
0
0
0
-16
-16
0
0
0
0
16
0
-16
0
0
0
-16
0
0
0
0
0
-16
-16
-32
0
16
16
16
16
32
32
16
16
0
0
0
0
0
0
0
-16
-16
-16
-16
-16
16
0
16
16
32
16
0
0
0
-16
-16
-16
-16
-16
-16
-16
0
0
-16
0
16
0
16
16
32
32
16
0
-16
-16
-16
0
0
0
0
0
0
16
0
0
16
0
-16
-16
16
16
-16
0
16
16
16
0
0
0
0
-16
0
0
0
0
16
16
16
16
16
16
16
16
0
0
-16
-16
0
0
0
0
0
0
-16
0
16
16
16
16
16
16
16
16
16
0
0
0
0
0
16
0
16
0
0
16
16
16
16
16
16
16
0
0
0
0
0
0
0
0
0
0
0
-16
-16
0
0
0
0
0
0
0
0
0
0
0
0
0
0
0
0
0
0
0
0
0
16
16
16
16
16
16
16
16
0
0
0
0
0
0
0
0
0
-16
-16
0
16
16
16
16
16
16
16
16
16
0
0
0
0
0
0
0
0
0
-16
0
16
16
16
16
16
16
16
16
0
0
0
0
0
0
0
-16
-16
-16
0
0
16
0
0
0
16
16
0
0
0
0
0
0
0
0
0
0
0
0
0
0
16
16
16
0
0
0
0
0
0
0
0
0
0
0
0
0
0
0
-16
0
16
16
16
16
16
16
0
0
0
0
0
0
0
0
0
0
0
0
0
0
16
16
16
16
16
0
0
0
0
0
-16
0
0
0
0
0
0
0
0
0
16
16
16
16
16
0
0
0
0
0
0
0
-16
-16
-16
-16
0
0
-16
0
0
0
0
0
16
16
16
16
0
0
0
0
0
0
0
0
0
0
0
0
0
0
0
16
16
0
0
0
0
0
-16
-16
0
0
0
0
0
0
-16
-16
0
16
32
32
48
32
0
-16
-16
-16
-16
0
0
0
0
0
0
0
-16
0
16
0
0
0
0
0
0
0
0
0
0
0
-16
-16
-16
-16
-16
0
0
0
16
0
0
0
0
0
0
0
0
0
0
0
-16
-16
-16
-16
-16
0
0
0
0
0
0
0
16
16
0
0
0
0
0
0
0
0
0
0
0
0
0
0
0
0
0
16
16
16
16
0
0
0
-16
-16
-16
-16
-16
-16
-16
0
0
0
0
0
0
0
0
0
0
0
0
0
0
-16
-16
-16
-16
0
0
0
0
0
0
0
0
0
0
0
0
0
0
-16
-16
-16
-16
-16
-16
-16
-16
0
0
0
0
0
0
0
0
0
0
0
0
0
0
0
0
0
0
0
0
0
0
0
0
0
0
0
0
0
0
0
0
0
0
0
0
0
0
-16
-16
0
0
0
0
0
0
0
0
0
0
0
0
0
0
-16
-16
0
0
0
0
0
0
0
0
0
0
0
0
0
0
0
0
0
0
-16
-16
-16
-16
-16
-16
-16
0
0
16
0
0
0
0
16
16
0
-16
-16
-16
0
0
-16
-16
-16
0
0
16
16
32
32
16
16
0
0
0
-16
-16
0
0
0
-16
-16
-16
0
0
0
0
0
0
0
0
0
0
0
0
0
0
0
-16
-16
-16
0
-16
-16
-16
0
0
0
0
0
0
0
0
0
0
0
0
0
-16
-16
-16
-16
-16
-16
-16
0
0
0
0
0
0
0
0
0
0
0
0
0
0
-16
-16
-16
-16
-16
-16
-16
-16
0
0
0
0
0
0
0
0
0
0
0
0
-16
-16
-16
-16
0
0
16
16
16
0
0
0
0
0
0
0
0
0
0
-16
-16
-16
-16
-16
-16
-16
-16
-16
0
0
0
16
16
0
0
0
0
0
0
0
-16
-16
-16
-16
-16
-16
-16
0
0
0
0
0
0
0
0
0
0
0
-16
-16
-16
-16
-16
-16
-16
-16
-16
-16
0
0
0
0
0
0
0
0
0
0
-16
-16
-16
-16
-16
-16
-16
-16
0
0
0
0
0
0
0
0
0
0
0
0
0
0
0
-16
-16
-16
