-928
-1184
-928
-176
-16
-16
0
0
144
1120
1920
1488
880
416
256
0
-192
-400
-592
-768
-928
-1184
-944
-192
-16
0
0
0
144
1072
1904
1488
912
416
272
0
-192
-400
-576
-752
-912
-1184
-976
-208
-16
0
0
0
128
1040
1920
1536
944
432
272
16
-192
-400
-576
-736
-880
-1152
-976
-224
-16
0
0
0
112
992
1936
1568
976
432
288
16
-176
-384
-560
-720
-880
-1136
-976
-240
-16
0
0
0
112
960
1936
1600
1008
448
304
32
-176
-384
-544
-704
-848
-1120
-1008
-256
-16
-16
0
0
96
912
1936
1600
1024
448
304
48
-160
-368
-544
-704
-848
-1120
-1024
-272
-16
0
0
0
96
864
1920
1616
1040
464
320
48
-144
-352
-528
-688
-832
-1104
-1024
-288
-16
0
0
0
80
832
1920
1632
1072
496
352
80
-128
-336
-512
-672
-832
-1088
-1056
-320
-16
0
0
0
80
784
1920
1664
1104
512
368
96
-112
-320
-496
-656
-800
-1072
-1040
-320
-16
0
0
0
64
752
1904
1680
1120
528
384
128
-96
-304
-480
-640
-784
-1056
-1056
-352
-16
0
0
0
64
704
1904
1712
1152
544
400
144
-80
-288
-464
-640
-784
-1056
-1088
-368
-16
0
0
0
64
672
1888
1728
1168
560
416
160
-64
-288
-464
-656
-800
-1056
-1104
-384
-16
0
0
0
48
640
1872
1744
1184
576
416
176
-64
-272
-448
-624
-784
-1056
-1120
-432
-16
0
0
0
48
608
1872
1792
1232
576
416
176
-48
-272
-448
-624
-768
-1040
-1136
-448
-32
-16
0
0
48
560
1856
1824
1248
592
432
176
-48
-272
-448
-640
-768
-1040
-1152
-464
-32
0
0
0
32
528
1824
1824
1264
592
432
192
-32
-256
-448
-640
-784
-1056
-1184
-496
-32
0
0
0
32
496
1792
1840
1264
608
432
192
-32
-240
-432
-624
-768
-1040
-1184
-528
-32
-16
0
0
32
464
1776
1872
1296
624
432
224
-16
-240
-432
-624
-768
-1024
-1184
-560
-32
-16
0
0
32
432
1744
1888
1312
640
448
224
0
-224
-416
-608
-752
-1008
-1200
-576
-48
0
0
0
32
400
1712
1920
1360
672
464
240
0
-224
-416
-608
-752
-992
-1184
-576
-48
-16
0
0
16
384
1664
1920
1360
656
448
224
0
-208
-416
-608
-752
-992
-1200
-624
-48
0
0
0
16
352
1616
1936
1376
672
432
224
0
-224
-416
-624
-768
-1008
-1216
-656
-64
-16
0
0
16
320
1584
1952
1392
688
432
240
0
-208
-416
-608
-768
-976
-1200
-688
-64
0
0
0
16
304
1552
1984
1424
704
448
240
0
-208
-416
-608
-768
-976
-1200
-688
-64
0
0
0
16
288
1504
2016
1456
736
448
256
16
-192
-400
-592
-752
-976
-1216
-736
-80
-16
0
0
16
256
1472
2032
1488
768
464
288
32
-192
-400
-576
-752
-960
-1216
-768
-96
-16
0
0
16
240
1424
0
1520
816
496
320
64
-160
-368
-560
-720
-928
-1184
-768
-96
0
0
0
16
224
1376
32
1568
848
528
352
96
-128
-336
-512
-688
-912
-1168
-784
-96
0
0
0
16
208
1328
48
1584
896
576
400
128
-96
-304
-480
-672
-896
-1136
-768
-96
0
0
0
0
192
1280
48
1600
928
592
432
160
-80
-288
-464
-672
-864
-1136
-784
-112
0
0
0
0
176
1232
64
1632
944
592
432
160
-64
-272
-464
-656
-864
-1136
-832
-128
0
0
0
0
160
1184
80
1648
960
592
432
160
-64
-288
-464
-656
-864
-1120
-832
-128
0
0
0
0
144
1120
48
1664
992
608
448
160
-64
-288
-464
-656
-880
-1152
-896
-144
0
0
0
0
128
1072
64
1712
1024
592
448
160
-48
-288
-464
-640
-832
-1120
-912
-160
-16
-16
0
0
128
1040
80
1744
1056
608
464
176
-48
-288
-464
-640
-832
-1104
-912
-160
0
0
0
0
112
976
64
1760
1056
624
480
192
-32
-256
-432
-624
-816
-1088
-912
-176
0
0
0
0
112
928
48
1776
1104
640
496
208
-16
-240
-416
-608
-800
-1088
-928
-176
0
0
0
0
96
880
48
1808
1136
656
528
224
-16
-240
-416
-608
-800
-1072
-960
-208
0
0
0
0
80
848
48
1824
1152
656
528
240
0
-224
-400
-592
-784
-1056
-960
-208
0
0
0
0
80
800
32
1856
1184
672
544
256
16
-224
-400
-576
-768
-1040
-992
-240
0
0
0
0
80
752
32
1904
1232
688
560
272
32
-208
-384
-560
-736
-1008
-992
-256
-16
0
0
0
64
704
0
1920
1248
704
592
304
48
-192
-368
-544
-736
-1008
-1008
-256
0
0
0
0
64
656
2032
1952
1280
704
592
304
64
-176
-368
-544
-720
-992
-1024
-272
0
0
0
0
64
624
2016
1984
1312
736
608
320
64
-176
-352
-528
-704
-992
-1024
-288
0
0
0
0
48
576
1968
2000
1344
752
640
352
80
-160
-352
-528
-688
-960
-1024
-304
0
0
0
0
48
544
1936
0
1360
752
640
368
112
-128
-336
-512
-688
-976
-1040
-320
0
0
0
0
48
512
1904
16
1392
768
656
384
128
-128
-320
-512
-672
-960
-1056
-352
0
-16
0
0
32
464
1856
32
1408
768
656
400
128
-128
-336
-512
-688
-960
-1072
-384
0
0
0
0
32
432
1808
48
1440
768
656
384
112
-144
-336
-528
-688
-976
-1088
-400
-16
-16
0
0
32
400
1760
48
1456
768
640
384
112
-144
-336
-528
-688
-976
-1120
-432
-16
0
0
0
32
384
1712
80
1472
752
624
368
112
-128
-352
-544
-704
-976
-1136
-480
-16
-16
0
0
32
352
1664
96
1504
768
624
384
112
-144
-352
-544
-704
-992
-1152
-496
-16
0
0
0
16
320
1616
96
1504
768
624
384
112
-128
-352
-544
-720
-1008
-1184
-544
-16
0
0
0
16
304
1552
96
1520
768
608
384
112
-144
-352
-544
-736
-1008
-1200
-576
-16
0
0
0
16
272
1504
112
1536
768
592
368
112
-144
-368
-560
-736
-1008
-1200
-608
-32
0
0
0
16
256
1440
112
1552
752
560
352
80
-160
-384
-576
-752
-1008
-1232
-656
-32
0
0
0
16
240
1376
96
1568
752
544
336
64
-176
-400
-576
-768
-1008
-1232
-688
-32
0
0
0
16
208
1312
80
1568
752
512
320
64
-192
-416
-592
-784
-1024
-1264
-736
-48
0
0
0
16
192
1264
96
1600
752
480
304
32
-208
-432
-608
-784
-1024
-1264
-784
-64
0
0
0
16
176
1200
80
1632
768
464
288
16
-224
-448
-624
-784
-1008
-1264
-816
-64
0
0
0
16
176
1152
80
1632
768
432
272
16
-224
-464
-640
-800
-1024
-1280
-864
-80
0
0
0
0
160
1104
80
1664
784
416
256
0
-240
-464
-640
-800
-1024
-1280
-896
-96
0
0
0
0
144
1040
64
1680
800
400
256
0
-240
-480
-640
-800
-1008
-1280
-944
-128
0
0
0
0
128
992
64
1712
832
384
256
0
-240
-480
-640
-800
-1008
-1280
-976
-128
0
0
0
0
112
944
64
1744
864
384
256
0
-256
-480
-656
-800
-992
-1264
-992
-144
0
0
0
0
112
896
32
1760
880
368
272
0
-224
-464
-640
-800
-992
-1264
-1040
-176
0
0
0
0
96
848
16
1792
928
368
272
16
-224
-464
-640
-800
-976
-1280
-1088
-192
0
0
0
0
96
800
0
1792
944
368
288
16
-224
-464
-640
-800
-992
-1264
-1088
-208
0
-16
0
0
80
752
2032
1824
976
368
288
32
-208
-464
-640
-816
-992
-1280
-1120
-224
0
0
0
0
80
704
2000
1824
992
368
288
32
-192
-448
-624
-816
-992
-1280
-1152
-256
0
0
0
0
64
656
1952
1840
1008
368
288
48
-192
-432
-624
-800
-976
-1264
-1184
-272
0
0
0
0
64
624
1936
1872
1056
368
288
48
-176
-432
-608
-784
-960
-1248
-1200
-304
0
0
0
0
64
576
1888
1872
1088
384
304
48
-176
-432
-608
-800
-976
-1264
-1232
-336
-16
-16
0
0
48
544
1856
1888
1104
368
288
48
-192
-432
-624
-800
-976
-1248
-1248
-352
-16
0
0
0
48
496
1808
1904
1136
384
288
48
-176
-432
-624
-800
-960
-1248
-1264
-384
-16
0
0
0
48
464
1776
1936
1168
384
288
48
-176
-432
-624
-800
-960
-1232
-1280
-432
-16
-16
0
0
48
432
1728
1952
1200
384
272
48
-192
-432
-624
-800
-960
-1216
-1296
-448
-16
0
0
0
32
400
1680
1952
1232
400
272
48
-192
-432
-640
-816
-976
-1248
-1328
-496
-16
0
0
0
32
368
1632
1968
1248
400
256
32
-192
-448
-640
-816
-976
-1232
-1312
-512
-16
0
0
0
32
352
1600
1984
1280
416
256
48
-192
-432
-640
-816
-960
-1216
-1328
-560
-32
0
0
0
32
320
1552
2000
1312
432
256
48
-192
-432
-640
-816
-960
-1216
-1360
-592
-32
0
0
0
32
304
1488
2000
1344
448
256
48
-192
-448
-640
-816
-976
-1216
-1360
-624
-32
0
0
0
16
272
1440
2000
1344
464
256
64
-192
-432
-656
-832
-992
-1248
-1376
-672
-32
-16
0
0
16
256
1392
2016
1376
480
256
64
-192
-432
-640
-816
-976
-1216
-1376
-688
-48
0
0
0
16
240
1344
2016
1392
512
256
64
-192
-432
-640
-816
-976
-1200
-1376
-720
-48
0
0
0
16
208
1296
2016
1424
544
256
80
-176
-416
-640
-816
-976
-1200
-1376
-752
-48
0
0
0
16
192
1248
2032
1440
560
240
80
-176
-416
-640
-800
-976
-1200
-1376
-800
-64
0
0
0
16
176
1184
2016
1456
592
256
96
-160
-400
-640
-800
-960
-1168
-1376
-832
-80
0
0
0
16
160
1136
2016
1488
624
240
96
-160
-400
-624
-800
-960
-1168
-1392
-864
-80
0
0
0
16
160
1088
2032
1536
672
256
128
-144
-400
-640
-800
-944
-1152
-1376
-880
-96
0
0
0
0
144
1040
2016
1552
704
272
128
-128
-368
-608
-784
-912
-1120
-1376
-944
-112
0
0
0
0
128
992
0
1616
752
256
144
-128
-368
-624
-784
-928
-1120
-1376
-976
-128
0
0
0
0
112
944
2032
1632
784
256
144
-128
-352
-608
-784
-928
-1104
-1360
-1008
-144
0
0
0
0
112
896
2032
1648
816
256
144
-128
-352
-608
-768
-928
-1120
-1376
-1040
-160
0
0
0
0
96
848
2000
1648
832
256
144
-128
-352
-608
-768
-912
-1104
-1360
-1072
-176
0
0
0
0
96
800
2000
1664
864
256
160
-112
-336
-576
-752
-912
-1104
-1360
-1104
-208
0
0
0
0
80
752
2000
1712
896
256
160
-112
-336
-576
-752
-896
-1072
-1344
-1120
-224
-16
0
0
0
80
704
1968
1744
944
272
160
-96
-320
-576
-752
-896
-1072
-1344
-1168
-240
-16
0
0
0
64
672
1936
1744
960
272
176
-96
-304
-560
-736
-896
-1072
-1344
-1184
-272
-16
0
0
0
64
624
1920
1792
1008
272
176
-80
-304
-560
-736
-912
-1072
-1344
-1200
-288
-16
0
0
0
64
592
1888
1792
1024
288
176
-80
-304
-544
-736
-896
-1072
-1328
-1248
-336
-16
0
0
0
48
560
1872
1824
1056
288
176
-64
-288
-528
-720
-896
-1040
-1312
-1248
-352
-16
0
0
0
48
512
1824
1856
1104
320
192
-64
-272
-528
-720
-896
-1040
-1296
-1264
-384
-16
0
0
0
48
480
1808
1872
1136
320
192
-48
-256
-512
-704
-880
-1040
-1296
-1280
-400
-16
-16
0
0
48
448
1760
1888
1168
352
192
-48
-272
-512
-704
-896
-1040
-1296
-1312
-432
-16
-16
0
0
32
416
1728
1920
1200
368
192
-32
-256
-496
-704
-896
-1040
-1296
-1328
-480
-16
0
0
0
32
384
1696
1968
1248
384
192
-32
-256
-480
-688
-880
-1024
-1280
-1328
-496
-16
0
0
0
32
368
1648
1968
1280
416
208
-16
-240
-480
-688
-864
-1024
-1248
-1344
-544
-32
-16
0
0
32
336
1600
1984
1296
432
192
0
-240
-464
-672
-864
-1008
-1248
-1360
-560
-32
0
0
0
32
304
1536
1984
1312
464
208
0
-240
-464
-672
-864
-1040
-1264
-1376
-608
-32
-16
0
0
16
288
1488
2000
1344
480
208
16
-240
-464
-672
-848
-1024
-1248
-1376
-656
-32
0
0
0
16
256
1440
2000
1376
512
208
32
-224
-464
-672
-848
-992
-1216
-1360
-672
-48
0
0
0
16
240
1392
2016
1392
544
208
32
-208
-432
-656
-832
-992
-1216
-1392
-720
-48
0
0
0
16
224
1344
2032
1424
560
208
32
-224
-448
-656
-832
-1008
-1232
-1408
-752
-64
0
0
0
16
208
1280
2016
1456
608
208
48
-224
0
16
160
1120
2016
1504
672
176
48
-224
-448
-688
-864
-1024
-1232
-1456
-944
-112
0
0
0
0
144
1072
2016
1536
704
176
48
-224
-448
-688
-848
-1008
-1216
-1456
-976
-128
0
0
0
0
128
1024
2000
1536
736
192
64
-208
-432
-688
-848
-1024
-1232
-1472
-1008
-144
0
0
0
0
128
976
1984
1536
752
192
64
-192
-416
-656
-848
-1024
-1216
-1456
-1056
-160
0
0
0
0
112
928
2000
1584
800
208
80
-192
-400
-656
-832
-992
-1184
-1440
-1072
-176
-16
0
0
0
112
880
1984
1600
832
224
96
-160
-384
-640
-816
-976
-1168
-1424
-1104
-192
-16
0
0
0
96
832
1968
1616
864
224
112
-144
-368
-608
-800
-960
-1152
-1424
-1120
-208
-16
0
0
0
96
784
1968
1648
912
240
128
-128
-352
-608
-800
-960
-1136
-1408
-1152
-224
-16
0
0
0
80
752
1936
1648
928
256
144
-112
-336
-576
-768
-960
-1136
-1408
-1184
-256
-16
0
0
0
80
704
1920
1680
960
272
160
-112
-320
-560
-752
-944
-1120
-1392
-1200
-272
-16
0
0
0
64
656
1904
1712
992
288
160
-96
-304
-544
-736
-912
-1072
-1344
-1200
-304
-16
0
0
0
64
624
1888
1744
1040
304
176
-64
-288
-528
-720
-896
-1040
-1328
-1216
-320
-16
0
0
0
64
592
1872
1760
1072
336
192
-48
-272
-512
-704
-880
-1040
-1312
-1216
-336
-16
0
0
0
48
544
1840
1792
1088
352
208
-48
-272
-496
-688
-880
-1040
-1312
-1248
-368
-16
0
0
0
48
512
1808
1824
1136
384
208
-32
-256
-480
-688
-864
-1024
-1280
-1248
-384
-16
0
0
0
48
480
1776
1840
1168
400
208
-16
-240
-480
-672
-864
-1008
-1264
-1264
-416
-16
0
0
0
32
448
1760
1872
1200
416
208
-16
-240
-464
-672
-848
-992
-1248
-1264
-432
-16
0
0
0
32
416
1712
1904
1232
432
224
-16
-240
-464
-672
-848
-1008
-1248
-1280
-464
-16
0
0
0
32
384
1664
1888
1232
448
224
0
-240
-448
-656
-848
-992
-1248
-1312
-512
-32
0
0
0
32
352
1616
1904
1264
464
208
0
-240
-464
-672
-848
-1008
-1248
-1344
-544
-32
0
0
0
32
336
1584
1936
1296
480
192
-16
-256
-464
-672
-864
-1008
-1248
-1360
-592
-32
0
0
0
16
304
1536
1952
1328
496
192
-16
-256
-464
-688
-864
-1008
-1248
-1376
-624
-32
0
0
0
16
288
1472
1968
1360
528
208
0
-240
-448
-672
-864
-1024
-1248
-1376
-656
-48
0
0
0
16
256
1424
1952
1360
544
208
16
-240
-448
-672
-864
-1040
-1264
-1408
-704
-48
0
0
0
16
240
1376
1968
1392
576
192
16
-240
-464
-688
-864
-1024
-1248
-1424
-752
-64
0
0
0
16
224
1328
1984
1424
608
192
16
-240
-448
-688
-864
-1024
-1232
-1424
-800
-64
0
0
0
16
208
1280
1984
1440
640
192
32
-240
-448
-672
-864
-1024
-1248
-1440
-832
-80
0
0
0
16
192
1232
2000
1472
672
192
32
-224
-432
-672
-848
-1024
-1232
-1440
-864
-96
0
0
0
16
176
1184
2000
1488
704
208
48
-224
-416
-656
-848
-1008
-1216
-1440
-912
-112
0
0
0
16
160
1136
2000
1504
736
208
64
-208
-416
-656
-832
-992
-1200
-1424
-928
-112
-16
0
0
0
144
1088
2000
1520
784
224
80
-192
-400
-640
-832
-1008
-1200
-1440
-976
-128
-16
0
0
0
128
1040
2000
1552
800
240
96
-176
-384
-624
-800
-976
-1168
-1408
-992
-144
0
0
0
0
128
992
2016
1584
848
240
112
-160
-368
-624
-784
-944
-1136
-1392
-1024
-160
-16
0
0
0
112
944
2016
1616
880
256
112
-144
-352
-608
-784
-944
-1120
-1392
-1056
-176
-16
0
0
0
112
896
2000
1632
912
272
128
-128
-336
-576
-768
-944
-1120
-1376
-1072
-192
-16
0
0
0
96
848
1984
1648
944
288
160
-112
-320
-576
-752
-928
-1104
-1376
-1104
-224
-16
0
0
0
80
800
1984
1680
992
320
160
-112
-320
-560
-752
-928
-1088
-1360
-1136
-240
-16
0
0
0
80
768
2000
1728
1024
336
176
-96
-320
-560
-736
-912
-1072
-1344
-1152
-256
-16
0
0
0
80
720
1968
1744
1056
352
192
-80
-304
-528
-720
-912
-1072
-1344
-1184
-288
-16
0
0
0
64
672
1936
1744
1072
352
192
-64
-288
-528
-720
-912
-1072
-1328
-1200
-304
-16
0
0
0
64
640
1904
1760
1088
368
208
-64
-288
-512
-704
-896
-1056
-1328
-1232
-336
-16
0
0
0
64
592
1888
1792
1120
384
208
-48
-272
-512
-704
-896
-1040
-1312
-1232
-352
-16
0
0
0
48
560
1856
1808
1152
400
208
-48
-272
-512
-720
-912
-1056
-1312
-1264
-384
-16
0
0
0
48
528
1808
1808
1168
400
208
-48
-272
-496
-704
-896
-1056
-1312
-1296
-432
-16
0
0
0
48
480
1776
1840
1200
416
192
-32
-272
-496
-704
-896
-1056
-1328
-1328
-464
-16
0
0
0
32
448
1744
1856
1216
432
192
-48
-272
-496
-720
-912
-1072
-1328
-1360
-512
-16
0
0
0
32
416
1712
1872
1248
448
176
-48
-272
-496
-720
-912
-1056
-1312
-1360
-528
-32
0
0
0
32
400
1664
1888
1264
464
176
-32
-272
-496
-704
-896
-1056
-1312
-1392
-560
-32
-16
0
0
32
368
1616
1904
1280
480
176
-32
-272
-464
-704
-896
-1040
-1296
-1408
-608
-32
0
0
0
32
336
1584
1920
1312
496
176
-16
-256
-464
-688
-896
-1040
-1296
-1408
-640
-48
0
0
0
16
320
1520
1904
1328
528
192
0
-256
-448
-688
-880
-1040
-1280
-1408
-672
-48
0
0
0
16
288
1488
1952
1344
560
176
0
-240
-448
-672
-864
-1024
-1264
-1408
-704
-48
0
0
0
16
272
1440
1936
1360
592
192
16
-240
-432
-672
-864
-1024
-1264
-1424
-752
-64
0
0
0
16
240
1392
1952
1392
608
192
16
-240
-432
-656
-864
-1040
-1264
-1440
-784
-64
0
0
0
16
224
1344
1952
1392
624
192
32
-224
-432
-656
-848
-1024
-1248
-1440
-800
-80
-16
0
0
16
208
1280
1936
1408
656
208
48
-224
-416
-640
-832
-1008
-1232
-1440
-848
-96
0
0
0
16
192
1232
1936
1408
688
208
48
-208
-400
-624
-816
-992
-1200
-1424
-864
-96
0
0
0
16
176
1184
1952
1440
720
224
64
-192
-400
-624
-816
-976
-1184
-1408
-896
-112
-16
0
0
16
160
1136
1968
1472
752
240
64
-192
-384
-608
-800
-976
-1168
-1408
-944
-128
-16
0
0
0
144
1088
1952
1472
768
240
96
-176
-384
-608
-800
-976
-1168
-1392
-960
-128
-16
0
0
0
144
1040
1936
1472
784
256
112
-160
-368
-592
-768
-944
-1136
-1376
-992
-144
-16
0
0
0
128
992
1952
1520
832
272
112
-144
-352
-576
-752
-912
-1088
-1344
-992
-160
-16
0
0
0
112
960
1968
1552
880
288
144
-128
-336
-560
-752
-896
-1072
-1328
-1008
-176
-16
0
0
0
112
912
1968
1584
912
304
144
-128
-336
-560
-752
-912
-1072
-1344
-1072
-208
-16
0
0
0
96
864
1952
1600
944
304
144
-112
-320
-560
-736
-896
-1072
-1344
-1088
-224
-16
0
0
0
96
816
1936
1616
960
320
160
-112
-320
-544
-736
-896
-1056
-1328
-1120
-240
-16
0
0
0
80
768
1936
1632
992
320
160
-112
-320
-544
-736
-896
-1040
-1312
-1136
-256
-16
0
0
0
80
720
1904
1664
1024
336
160
-96
-320
-528
-736
-896
-1040
-1312
-1168
-288
-16
0
0
0
64
688
1888
1680
1040
320
160
-96
-304
-528
-720
-896
-1040
-1312
-1200
-320
-16
0
0
0
64
640
1872
1696
1072
336
160
-96
-304
-528
-720
-912
-1040
-1312
-1216
-336
-16
0
0
0
64
608
1840
1712
1088
352
160
-80
-304
-512
-720
-912
-1056
-1312
-1248
-368
-16
0
0
0
48
576
1808
1712
1104
368
160
-80
-304
-512
-704
-896
-1024
-1296
-1248
-384
-16
0
0
0
48
528
1792
1744
1136
384
176
-64
-288
-512
-704
-880
-1008
-1264
-1248
-416
-16
0
0
0
48
496
1760
1760
1152
400
176
-48
-272
-480
-688
-880
-1008
-1264
-1280
-448
-16
0
0
0
32
464
1728
1792
1184
416
176
-48
-272
-496
-688
-880
-1008
-1264
-1280
-464
-16
0
0
0
32
432
1696
1808
1200
448
192
-48
-272
-480
-688
-880
-1008
-1264
-1312
-496
-32
0
0
0
32
400
1664
1824
1216
464
192
-32
-256
-464
-672
-864
-1008
-1248
-1296
-528
-32
0
0
0
32
384
1616
1824
1248
496
208
0
-256
-448
-656
-848
-976
-1216
-1312
-544
-32
-16
0
0
32
352
1584
1856
1280
512
208
0
-240
-432
-640
-832
-960
-1216
-1328
-592
-32
0
0
0
16
320
1536
1872
1312
544
208
0
-240
-432
-656
-832
-960
-1200
-1328
-608
-48
0
0
0
16
304
1488
1872
1312
576
240
32
-208
-416
-640
-832
-976
-1200
-1344
-656
-48
0
0
0
16
288
1456
1872
1312
576
224
48
-208
-400
-624
-816
-960
-1184
-1344
-688
-48
0
0
0
16
256
1424
1920
1360
624
224
48
-208
-400
-608
-800
-944
-1168
-1344
-720
-64
0
0
0
16
240
1376
1920
1392
656
240
64
-192
-400
-608
-816
-944
-1168
-1360
-768
-64
0
0
0
16
224
1328
1936
1392
672
240
80
-176
-368
-592
-784
-928
-1152
-1360
-784
-80
0
0
0
16
208
1280
1936
1408
688
240
80
-176
-368
-592
-784
-944
-1168
-1376
-848
-96
0
0
0
16
192
1232
1936
1424
720
240
80
-176
-368
-592
-784
-944
-1152
-1376
-864
-96
0
0
0
16
176
1184
1952
1440
752
240
80
-176
-368
-592
-784
-928
-1136
-1376
-896
-112
0
0
0
0
160
1136
1952
1456
768
240
80
-176
-368
-576
-784
-928
-1136
-1376
-944
-128
0
0
0
0
144
1088
1968
1488
800
240
80
-176
-368
-592
-784
-928
-1136
-1392
-976
-144
0
0
0
0
128
1056
1968
1504
816
240
80
-176
-352
-576
-784
-960
-1152
-1408
-1024
-160
-16
0
0
0
128
1008
1968
1520
848
240
96
-160
-352
-576
-768
-944
-1120
-1392
-1040
-176
-16
0
0
0
112
944
1936
1536
880
256
96
-160
-352
-576
-784
-944
-1120
-1392
-1072
-192
-16
0
0
0
96
912
1952
1568
912
256
96
-160
-352
-576
-768
-912
-1088
-1376
-1104
-224
-16
0
0
0
96
864
1936
1584
928
256
112
-144
-336
-560
-752
-912
-1072
-1360
-1120
-240
-16
0
0
0
80
816
1936
1600
960
288
112
-144
-336
-544
-752
-928
-1072
-1360
-1152
-256
-16
0
0
0
80
768
1920
1632
1008
304
128
-128
-336
-560
-736
-912
-1056
-1344
-1152
-272
-16
-16
0
0
80
736
1888
1632
1024
320
144
-112
-320
-544
-736
-912
-1072
-1344
-1184
-304
-16
0
0
0
64
688
1888
1664
1040
336
144
-96
-320
-528
-720
-896
-1040
-1312
-1200
-336
-16
0
0
0
64
656
1872
1696
1072
352
144
-96
-320
-528
-720
-896
-1040
-1312
-1216
-352
-16
0
0
0
48
608
1856
1728
1120
368
160
-80
-304
-512
-720
-896
-1040
-1296
-1248
-384
-16
0
0
0
48
576
1824
1728
1120
384
176
-64
-288
-496
-704
-896
-1024
-1280
-1232
-400
-16
0
0
0
48
544
1792
1728
1136
400
176
-64
-288
-496
-688
-880
-1008
-1280
-1248
-416
-16
0
0
0
48
512
1760
1760
1168
432
192
-48
-272
-480
-672
-864
-992
-1264
-1280
-464
-16
0
0
0
32
464
1728
1776
1200
448
192
-32
-272
-480
-672
-848
-976
-1232
-1280
-480
-16
-16
0
0
32
448
1696
1792
1216
480
208
-16
-256
-448
-672
-864
-992
-1232
-1296
-512
-32
-16
0
0
32
416
1680
1824
1232
496
208
-16
-256
-448
-656
-848
-976
-1232
-1312
-544
-32
0
0
0
32
384
1632
1824
1264
528
208
0
-240
-448
-656
-848
-976
-1216
-1328
-576
-32
0
0
0
32
352
1584
1840
1264
544
224
16
-240
-448
-656
-848
-976
-1232
-1376
-640
-48
0
0
0
16
336
1568
1872
1296
560
208
16
-240
-448
-656
-848
-976
-1232
-1360
-656
-48
0
0
0
16
304
1520
1888
1312
576
208
16
-224
-432
-640
-848
-976
-1216
-1376
-704
-48
0
0
0
16
288
1472
1888
1312
592
208
32
-224
-416
-640
-848
-976
-1216
-1376
-720
-64
0
0
0
16
256
1424
1888
1344
624
224
48
-224
-416
-640
-848
-976
-1200
-1376
-736
-64
0
0
0
16
240
1360
1888
1344
640
224
48
-208
-416
-624
-832
-992
-1200
-1392
-800
-80
0
0
0
16
224
1328
1888
1344
656
224
48
-208
-416
-624
-816
-960
-1184
-1376
736
240
80
-192
-384
-608
-800
-960
-1168
-1376
-896
-112
0
0
0
0
160
1136
1920
1424
752
240
80
-176
-368
-576
-784
-944
-1152
-1392
-960
-128
-16
0
0
0
144
1104
1936
1456
800
240
96
-160
-352
-576
-768
-944
-1136
-1392
-976
-144
-16
0
0
0
144
1056
1920
1472
816
272
112
-160
-352
-560
-768
-944
-1136
-1392
-1008
-160
-16
0
0
0
128
1008
1936
1488
848
272
112
-160
-352
-560
-752
-912
-1088
-1344
-1008
-176
-16
0
0
0
112
960
1920
1520
880
272
128
-144
-336
-544
-752
-896
-1072
-1344
-1040
-192
-16
0
0
0
112
928
1952
1552
912
272
128
-128
-320
-528
-736
-896
-1072
-1360
-1104
-224
-16
0
0
0
96
880
1952
1584
944
288
128
-128
-320
-544
-720
-896
-1056
-1328
-1104
-240
-16
0
0
0
96
832
1920
1584
960
320
160
-96
-304
-528
-720
-880
-1040
-1312
-1120
-256
-16
0
0
0
80
784
1952
1648
1008
320
144
-112
-304
-512
-704
-880
-1024
-1312
-1152
-288
-16
0
0
0
80
752
1920
1664
1040
352
176
-80
-304
-496
-704
-864
-1024
-1312
-1168
-304
-16
0
0
0
64
704
1904
1664
1056
368
176
-64
-288
-496
-688
-864
-1008
-1296
-1200
-336
-16
0
0
0
64
672
1904
1712
1104
384
176
-64
-288
-496
-672
-848
-1008
-1280
-1216
-352
-16
0
0
0
64
624
1872
1728
1120
400
208
-48
-272
-496
-672
-864
-1008
-1280
-1248
-384
-16
0
0
0
48
592
1856
1744
1152
416
208
-48
-272
-480
-672
-848
-992
-1280
-1248
-400
-16
0
0
0
48
560
1824
1760
1168
432
208
-16
-256
-480
-672
-848
-992
-1264
-1264
-432
-16
0
0
0
48
512
1792
1792
1200
448
208
-16
-256
-464
-656
-848
-992
-1264
-1296
-480
-16
0
0
0
32
480
1760
1824
1232
480
208
-16
-256
-480
-672
-848
-976
-1248
-1296
-496
-32
-16
0
0
32
448
1712
1792
1232
496
224
0
-240
-448
-656
-832
-976
-1248
-1328
-544
-32
0
0
0
32
416
1696
1840
1248
512
208
0
-240
-448
-640
-848
-976
-1248
-1344
-560
-32
-16
0
0
32
400
1648
1840
1280
528
224
16
-240
-448
-656
-848
-976
-1232
-1344
-592
-32
0
0
0
32
368
1600
1840
1280
560
240
32
-224
-432
-640
-848
-976
-1232
-1376
-640
-48
0
0
0
16
336
1568
1856
1296
576
240
32
-224
-432
-640
-848
-992
-1232
-1376
-672
-48
0
0
0
16
320
1536
1888
1312
592
240
48
-208
-416
-640
-832
-976
-1216
-1392
-704
-64
-16
0
0
16
288
1504
1904
1344
624
240
48
-208
-416
-624
-832
-960
-1200
-1376
-736
-64
0
0
0
16
272
1456
1904
1344
656
256
64
-192
-400
-624
-816
-960
-1184
-1376
-768
-80
0
0
0
16
256
1408
1920
1376
672
256
64
-192
-384
-608
-800
-944
-1168
-1376
-816
-80
0
0
0
16
224
1376
1952
1408
704
256
80
-176
-368
-592
-800
-928
-1152
-1376
-832
-96
0
0
0
16
208
1328
1968
1424
736
272
96
-160
-352
-576
-800
-944
-1168
-1392
-880
-112
0
0
0
16
192
1264
1968
1440
752
272
96
-160
-352
-576
-784
-912
-1136
-1376
-896
-112
-16
0
0
16
176
1232
1968
1456
784
288
112
-144
-352
-576
-768
-928
-1136
-1376
-928
-128
0
0
0
0
160
1184
1984
1488
800
288
128
-144
-336
-560
-752
-912
-1104
-1376
-960
-144
0
0
0
0
160
1136
1984
1504
832
288
128
-128
-320
-544
-752
-912
-1104
-1376
-976
-160
-16
0
0
0
144
1088
2000
1536
880
304
144
-128
-336
-560
-752
-912
-1104
-1360
-1024
-176
-16
0
0
0
128
1040
1984
1552
896
304
144
-128
-336
-544
-752
-912
-1104
-1360
-1040
-192
-16
0
0
0
112
992
1984
1568
912
304
144
-128
-336
-544
-736
-912
-1088
-1360
-1072
-208
-16
0
0
0
112
944
2000
1600
944
304
144
-128
-320
-528
-736
-896
-1072
-1344
-1104
-240
-16
0
0
0
96
896
1984
1616
976
320
144
-112
-320
-544
-720
-896
-1056
-1328
-1104
-240
-16
0
0
0
96
848
1968
1648
1008
336
160
-112
-320
-528
-720
-896
-1056
-1328
-1136
-272
-16
0
0
0
80
800
1936
1648
1024
336
160
-96
-304
-512
-720
-880
-1040
-1328
-1168
-288
-16
0
0
0
80
768
1952
1680
1056
352
176
-80
-304
-512
-704
-896
-1040
-1312
-1184
-320
-16
0
0
0
64
720
1920
1696
1072
368
176
-80
-288
-496
-704
-896
-1040
-1312
-1216
-352
-16
0
0
0
64
672
1904
1712
1104
384
192
-64
-288
-496
-688
-880
-1024
-1296
-1216
-368
-16
0
0
0
64
640
1872
1728
1136
400
192
-48
-272
-480
-688
-864
-1008
-1296
-1248
-400
-16
0
0
0
48
608
1856
1760
1152
416
192
-48
-272
-480
-688
-880
-1008
-1280
-1248
-416
-16
0
0
0
48
560
1824
1776
1184
448
208
-32
-272
-480
-672
-864
-992
-1264
-1264
-448
-16
0
0
0
48
528
1792
1776
1184
448
208
-32
-256
-464
-672
-864
-992
-1264
-1296
-480
-16
0
0
0
48
496
1760
1792
1216
480
208
-16
-240
-448
-656
-848
-976
-1248
-1312
-512
-32
0
0
0
32
464
1728
1824
1248
512
224
0
-240
-448
-656
-832
-960
-1232
-1328
-560
-32
0
0
0
32
432
1712
1856
1280
544
256
48
-208
-432
-640
-832
-960
-1232
-1328
-576
-32
0
0
0
32
400
1664
1856
1280
560
272
48
-192
-400
-624
-816
-960
-1216
-1344
-608
-48
-16
0
0
32
368
1632
1888
1312
592
272
64
-192
-384
-608
-816
-944
-1216
-1376
-672
-48
-16
0
0
32
352
1600
1904
1344
608
272
80
-176
-384
-608
-800
-944
-1200
-1360
-672
-48
0
0
0
16
320
1552
1904
1360
640
288
96
-160
-368
-592
-800
-944
-1184
-1360
-704
-64
0
0
0
16
304
1520
1936
1376
656
288
96
-160
-368
-592
-800
-944
-1184
-1360
-720
-64
0
0
0
16
272
1456
1936
1376
672
288
112
-144
-352
-576
-784
-944
-1184
-1392
-768
-80
0
0
0
16
256
1424
1968
1408
704
288
96
-160
-352
-576
-784
-928
-1152
-1392
-816
-80
0
0
0
16
240
1376
1968
1408
704
288
112
-144
-352
-576
-784
-928
-1152
-1360
-816
-96
0
0
0
16
224
1328
1984
1440
736
288
96
-160
-352
-576
-768
-944
-1152
-1376
-864
-96
0
0
0
16
208
1280
1968
1440
768
272
112
-144
-352
-560
-768
-912
-1120
-1360
-880
-112
-16
0
0
16
192
1232
1984
1472
784
288
112
-144
-352
-560
-768
-912
-1120
-1376
-928
-128
-16
0
0
0
176
1184
2000
1504
816
288
128
-144
-352
-560
-752
-912
-1104
-1376
-976
-144
-16
0
0
0
160
1136
2016
1520
848
288
128
-144
-336
-560
-752
-912
-1104
-1360
-976
-160
-16
0
0
0
144
1088
2000
1536
880
304
144
-128
-320
-544
-736
-896
-1072
-1344
-1008
-176
-16
0
0
0
128
1040
2016
1584
912
304
144
-128
-320
-544
-736
-896
-1072
-1328
-1024
-192
-16
0
0
0
128
992
2000
1584
944
320
160
-112
-320
-544
-736
-896
-1072
-1344
-1056
-208
-16
0
0
0
112
944
2000
1616
960
320
160
-96
-304
-528
-720
-896
-1056
-1328
-1104
-240
-16
0
0
0
96
896
1984
1632
976
320
176
-96
-304
-528
-720
-896
-1056
-1328
-1120
-256
-16
0
0
0
96
848
1984
1664
1024
352
176
-96
-304
-512
-704
-880
-1040
-1312
-1136
-272
-16
0
0
0
80
800
1952
1664
1040
368
192
-80
-288
-512
-704
-864
-1024
-1296
-1152
-288
-16
0
0
0
80
752
1936
1680
1072
384
208
-64
-272
-496
-688
-880
-1024
-1296
-1184
-320
-16
0
0
0
64
720
1936
1712
1088
384
208
-48
-272
-480
-688
-864
-1008
-1296
-1200
-336
-16
0
0
0
64
672
1904
1728
1120
400
208
-32
-272
-480
-672
-864
-1008
-1280
-1216
-368
-16
0
0
0
64
640
1872
1744
1152
432
224
-32
-256
-480
-672
-864
-1008
-1280
-1248
-400
-16
0
0
0
48
592
1856
1760
1152
432
224
-16
-240
-464
-656
-848
-992
-1264
-1248
-416
-16
0
0
0
48
560
1824
1792
1200
464
240
0
-240
-448
-656
-848
-976
-1248
-1264
-448
-16
0
0
0
48
528
1808
1792
1216
480
240
0
-240
-448
-656
-848
-992
-1264
-1296
-496
-32
0
0
0
48
496
1760
1808
1216
496
240
0
-224
-448
-656
-848
-976
-1248
-1312
-512
-32
0
0
0
32
464
1728
1824
1248
512
240
16
-224
-432
-640
-848
-976
-1248
-1328
-560
-32
0
0
0
32
432
1696
1856
1264
528
240
16
-224
-432
-640
-832
-960
-1232
-1328
-576
-32
0
0
0
32
400
1664
1872
1296
544
240
32
-224
-432
-640
-832
-944
-1216
-1328
-608
-48
0
0
0
32
368
1632
1888
1312
560
240
32
-208
-400
-624
-832
-960
-1216
-1360
-656
-48
0
0
0
32
352
1600
1920
1328
576
224
32
-208
-400
-624
-816
-944
-1200
-1376
-688
-48
0
0
0
16
320
1552
1936
1360
608
240
48
-208
-400
-624
-816
-944
-1200
-1376
-720
-64
0
0
0
16
304
1504
1952
1376
640
240
48
-192
-384
-608
-816
-960
-1216
-1392
-752
-64
0
0
0
16
272
1472
1968
1392
672
240
64
-192
-384
-608
-816
-960
-1200
-1408
-800
-80
-16
0
0
16
256
1424
1984
1424
688
240
64
-192
-384
-608
-816
-960
-1184
-1408
-832
-96
0
0
0
16
240
1376
2000
1456
720
240
64
-192
-384
-592
-800
-944
-1168
-1392
-848
-96
-16
0
0
16
208
1328
2000
1472
752
256
80
-192
-384
-592
-784
-928
-1152
-1392
-896
-112
-16
0
0
16
192
1280
2016
1488
784
240
80
-176
-368
-592
-784
-944
-1136
-1392
-912
-128
0
0
0
16
176
1232
2000
1504
816
256
112
-160
-368
-592
-784
-928
-1136
-1392
-960
-144
-16
0
0
0
176
1184
2016
1536
848
272
112
-160
-352
-576
-768
-928
-1136
-1408
-1008
-160
-16
0
0
0
160
1136
2032
1568
880
288
128
-160
-352
-576
-768
-912
-1104
-1376
-1024
-176
-16
0
0
0
144
1088
0
1584
912
288
128
-144
-352
-576
-768
-928
-1104
-1376
-1056
-192
-16
0
0
0
128
1040
2032
1600
928
304
144
-128
-352
-576
-752
-912
-1088
-1360
-1072
-208
-16
0
0
0
128
992
2016
1616
960
320
144
-128
-336
-560
-768
-928
-1104
-1376
-1088
-224
-16
0
0
0
112
944
2032
1648
992
320
160
-128
-336
-560
-752
-912
-1088
-1360
-1136
-256
-16
0
0
0
96
896
2016
1664
1008
336
176
-96
-320
-544
-736
-912
-1072
-1344
-1152
-272
-16
0
0
0
96
848
1984
1680
1040
352
176
-96
-304
-528
-736
-912
-1056
-1344
-1168
-288
-16
0
0
0
80
800
1968
1712
1072
368
192
-80
-304
-528
-720
-896
-1056
-1328
-1200
-320
-16
0
0
0
80
752
1952
1712
1104
384
192
-64
-288
-512
-720
-912
-1056
-1344
-1232
-352
-16
0
0
0
64
704
1952
1744
1120
400
208
-64
-288
-512
-720
-912
-1072
-1344
-1264
-384
-16
0
0
0
64
672
1952
1792
1168
416
208
-48
-288
-496
-720
-912
-1040
-1328
-1280
-400
-16
0
0
0
64
624
1920
1808
1184
448
224
-48
-272
-480
-704
-896
-1056
-1344
-1328
-448
-16
0
0
0
48
592
1904
1856
1232
464
224
-32
-272
-496
-704
-896
-1040
-1328
-1328
-480
-16
0
0
0
48
560
1872
1856
1232
480
224
-16
-256
-464
-704
-912
-1040
-1328
-1344
-496
-32
0
0
0
48
512
1840
1872
1264
496
240
0
-240
-448
-672
-896
-1040
-1344
-1408
-576
-32
0
0
0
48
480
1824
1936
1312
528
224
0
-256
-464
-688
-896
-1040
-1312
-1408
-592
-32
0
0
0
32
448
1792
1952
1328
560
240
16
-240
-448
-672
-896
-1024
-1296
-1408
-624
-48
0
0
0
32
416
1760
1984
1360
576
240
16
-240
-448
-672
-880
-1024
-1312
-1440
-656
-48
0
0
0
32
400
1712
2000
1392
608
240
32
-224
-432
-656
-880
-1008
-1296
-1456
-720
-48
0
0
0
32
368
1680
2032
1424
640
240
32
-224
-432
-656
-880
-1024
-1280
-1456
-752
-64
0
0
0
32
336
1632
0
1440
656
240
48
-208
-416
-656
-864
-1008
-1264
-1456
-768
-64
0
0
0
16
320
1600
48
1472
688
256
64
-208
-416
-640
-864
-1024
-1280
-1488
-816
-80
0
0
0
16
288
1536
32
1488
720
256
64
-208
-400
-640
-848
-1008
-1264
-1488
-864
-96
-16
0
0
16
-848
-1024
-1248
-1504
-992
-128
0
0
0
16
208
1328
96
1600
864
288
112
-176
-400
-624
-832
-1008
-1216
-1488
-1024
-160
-16
0
0
16
192
1264
96
1616
896
304
128
-160
-384
-608
-832
-1008
-1216
-1488
-1056
-160
-16
0
0
16
176
1216
96
1664
944
320
128
-160
-384
-624
-832
-1008
-1200
-1488
-1104
-192
-16
0
0
0
160
1168
112
1680
976
320
144
-160
-384
-624
-832
-1008
-1200
-1472
-1120
-208
-16
0
0
0
144
1120
112
1712
1008
336
160
-128
-368
-592
-816
-992
-1184
-1472
-1168
-240
-16
0
0
0
144
1056
112
1760
1056
368
176
-128
-368
-608
-816
-976
-1168
-1456
-1200
-256
-16
0
0
0
128
1008
112
1776
1088
368
176
-112
-352
-592
-800
-976
-1152
-1440
-1200
-272
-16
0
0
0
112
960
96
1792
1120
384
192
-96
-336
-576
-800
-976
-1152
-1456
-1232
-304
-16
0
0
0
112
896
80
1808
1136
400
192
-96
-336
-576
-800
-976
-1152
-1440
-1280
-336
-16
0
0
0
96
848
64
1824
1168
416
208
-80
-336
-576
-800
-992
-1152
-1440
-1296
-352
-16
0
0
0
96
800
16
1824
1168
432
224
-64
-320
-544
-784
-992
-1152
-1456
-1344
-400
-16
0
0
0
80
752
0
1856
1200
448
224
-48
-304
-544
-768
-976
-1152
-1456
-1360
-432
-16
0
0
0
80
704
2032
1888
1232
464
224
-48
-288
-544
-768
-960
-1120
-1424
-1376
-464
-16
0
0
0
64
672
2000
1904
1264
480
240
-32
-272
-512
-752
-960
-1104
-1408
-1392
-496
-16
0
0
0
64
624
1968
1920
1264
496
240
-16
-256
-496
-736
-944
-1088
-1392
-1408
-528
-32
0
0
0
64
576
1952
1952
1296
512
240
-16
-256
-480
-720
-928
-1088
-1392
-1440
-576
-32
0
0
0
48
544
1920
1968
1328
544
240
0
-256
-480
-720
-928
-1072
-1376
-1456
-608
-32
0
0
0
48
512
1872
2000
1360
560
240
0
-256
-464
-704
-928
-1072
-1360
-1456
-640
-48
0
0
0
48
464
1840
2016
1376
576
240
16
-240
-448
-688
-912
-1056
-1360
-1472
-688
-48
0
0
0
32
432
1792
0
1408
608
240
16
-240
-448
-688
-896
-1056
-1328
-1488
-720
-64
0
0
0
32
400
1744
16
1424
640
240
32
-240
-448
-672
-896
-1040
-1312
-1472
-768
-64
0
0
0
32
384
1696
48
1456
672
240
48
-224
-432
-656
-896
-1056
-1312
-1504
-800
-64
0
0
0
32
352
1648
80
1488
704
240
48
-224
-432
-656
-880
-1040
-1296
-1504
-848
-80
0
0
0
32
320
1600
96
1520
736
256
64
-208
-432
-656
-864
-1024
-1280
-1488
-880
-96
0
0
0
16
304
1552
112
1568
784
272
80
-208
-416
-656
-864
-1024
-1264
-1488
-912
-112
0
0
0
16
272
1488
144
1600
816
288
96
-192
-416
-640
-864
-1024
-1264
-1504
-960
-128
0
0
0
16
256
1440
160
1632
848
288
96
-192
-416
-640
-848
-1008
-1248
-1504
-992
-144
-16
0
0
16
240
1376
144
1648
896
304
112
-176
-400
-640
-864
-1024
-1232
-1504
-1024
-144
-16
0
0
16
208
1328
160
1680
928
320
128
-160
-384
-640
-848
-1024
-1232
-1504
-1072
-176
-16
0
0
16
192
1264
176
1696
960
320
144
-144
-384
-624
-832
-1008
-1216
-1488
-1088
-192
-16
0
0
16
176
1200
160
1712
992
336
160
-144
-368
-592
-816
-1008
-1216
-1504
-1152
-208
-16
0
0
16
160
1152
160
1744
1024
352
160
-128
-368
-608
-832
-1008
-1200
-1472
-1152
-224
-16
0
0
16
160
1088
128
1760
1056
368
176
-112
-352
-592
-816
-1008
-1184
-1472
-1168
-256
-16
0
0
0
144
1040
128
1792
1088
384
192
-112
-352
-592
-816
-1008
-1184
-1472
-1232
-288
-16
0
0
0
128
976
112
1792
1104
400
192
-96
-336
-576
-800
-992
-1152
-1440
-1232
-304
-16
0
0
0
112
928
80
1808
1136
416
208
-80
-320
-560
-784
-992
-1152
-1440
-1264
-336
-16
0
0
0
112
880
80
1840
1168
416
208
-80
-320
-560
-768
-960
-1136
-1424
-1280
-352
-16
0
0
0
96
816
48
1856
1200
448
240
-64
-304
-544
-768
-976
-1136
-1424
-1312
-384
-16
0
0
0
96
768
16
1872
1216
448
240
-48
-288
-528
-752
-960
-1120
-1424
-1360
-432
-16
0
0
0
80
736
0
1904
1264
480
240
-32
-288
-528
-752
-960
-1120
-1424
-1376
-464
-16
0
0
0
80
688
2016
1920
1280
496
256
-32
-288
-512
-752
-960
-1120
-1408
-1392
-496
-16
0
0
0
64
640
1984
1952
1312
528
256
-16
-272
-496
-720
-944
-1104
-1408
-1424
-528
-32
0
0
0
64
592
1968
2000
1360
544
256
0
-272
-496
-720
-944
-1088
-1392
-1440
-576
-32
0
0
0
64
560
1920
1984
1360
560
256
16
-256
-480
-720
-944
-1088
-1376
-1456
-624
-32
-16
0
0
48
528
1904
2032
1392
592
256
16
-256
-480
-704
-928
-1088
-1376
-1456
-640
-48
0
0
0
48
480
1840
2032
1408
608
256
32
-240
-464
-704
-912
-1072
-1360
-1472
-688
-48
0
0
0
48
448
1808
16
1424
624
256
32
-240
-464
-688
-912
-1056
-1344
-1472
-720
-64
0
0
0
48
416
1760
32
1440
656
256
32
-240
-448
-672
-896
-1040
-1328
-1488
-768
-64
-16
0
0
32
384
1712
64
1472
688
272
48
-224
-432
-672
-896
-1040
-1312
-1504
-816
-80
0
0
0
32
352
1664
80
1488
704
256
64
-208
-432
-672
-896
-1040
-1312
-1504
-848
-80
0
0
0
32
336
1616
96
1536
752
272
80
-208
-432
-672
-896
-1040
-1312
-1536
-896
-96
0
0
0
32
304
1552
112
1552
784
272
80
-208
-416
-656
-880
-1040
-1280
-1504
-928
-112
0
0
0
32
288
1504
144
1584
816
288
96
-192
-400
-656
-864
-1024
-1264
-1504
-960
-128
-16
0
0
16
256
1456
176
1632
848
288
96
-176
-400
-640
-864
-1008
-1248
-1504
-1008
-144
-16
0
0
16
240
1392
160
1632
880
304
128
-160
-384
-624
-848
-1024
-1248
-1504
-1024
-160
-16
0
0
16
224
1328
160
1648
896
304
128
-160
-384
-608
-848
-1024
-1248
-1520
-1088
-176
-16
0
0
16
208
1280
160
1680
944
320
144
-160
-384
-624
-832
-1024
-1232
-1488
-1088
-192
-16
0
0
16
192
1216
160
1712
992
336
160
-128
-368
-608
-832
-1024
-1216
-1488
-1136
-208
-16
0
0
16
176
1152
160
1744
1008
352
160
-128
-352
-592
-816
-1008
-1200
-1488
-1168
-240
-16
0
0
16
160
1104
144
1760
1040
352
176
-112
-352
-592
-800
-1008
-1184
-1472
-1184
-256
-16
0
0
16
144
1040
128
1776
1088
384
192
-96
-352
-576
-800
-1008
-1184
-1472
-1232
-288
-16
0
0
0
128
992
128
1808
1120
400
192
-96
-336
-592
-800
-992
-1168
-1440
-1232
-304
-16
0
0
0
128
928
112
1824
1152
416
208
-80
-320
-560
-784
-992
-1136
-1424
-1264
-336
-16
0
0
0
112
880
96
1872
1184
432
208
-64
-304
-544
-768
-976
-1136
-1424
-1296
-368
-16
0
0
0
96
832
80
1888
1216
448
240
-64
-304
-560
-768
-976
-1136
-1424
-1312
-384
-16
0
0
0
96
784
32
1904
1232
464
240
-32
-288
-512
-752
-960
-1120
-1424
-1344
-432
-16
0
0
0
80
736
32
1936
1280
496
256
-32
-288
-512
-752
-960
-1120
-1424
-1376
-464
-16
0
0
0
80
688
2032
1936
1296
512
272
-16
-272
-512
-736
-944
-1104
-1408
-1392
-496
-16
0
0
0
80
640
2000
1968
1328
528
272
0
-256
-496
-720
-944
-1104
-1392
-1424
-544
-32
0
0
0
64
608
1984
2000
1360
544
256
16
-256
-480
-704
-928
-1088
-1376
-1440
-576
-32
0
0
0
64
560
1936
2032
1376
576
272
16
-256
-480
-704
-928
-1088
-1376
-1456
-608
-32
0
0
0
48
528
1888
2032
1392
592
272
32
-240
-464
-704
-928
-1088
-1376
-1472
-640
-48
0
0
0
48
480
1856
16
1424
624
272
32
-240
-448
-688
-912
-1072
-1360
-1488
-688
-48
0
0
0
48
448
1808
32
1456
640
272
48
-224
-448
-688
-912
-1056
-1344
-1504
-752
-64
0
0
0
48
416
1776
64
1472
672
272
48
-224
-448
-688
-912
-1056
-1328
-1504
-768
-64
0
0
0
32
384
1712
80
1504
704
288
64
-208
-432
-672
-896
-1040
-1328
-1520
-816
-80
0
0
0
32
352
1664
96
1536
736
288
80
-208
-432
-656
-880
-1040
-1328
-1536
-864
-96
-16
0
0
32
336
1616
128
1568
784
288
96
-208
-432
-656
-880
-1024
-1296
-1520
-912
-96
-16
0
0
32
304
1568
144
1584
800
288
96
-192
-416
-656
-880
-1024
-1264
-1520
-960
-112
-16
0
0
32
288
1520
176
1632
848
304
112
-192
-416
-656
-864
-1024
-1264
-1520
-976
-128
0
0
0
16
256
1456
192
1648
880
304
112
-176
-400
-640
-864
-1024
-1264
-1520
-1024
-144
-16
0
0
16
240
1392
176
1664
896
320
128
-160
-384
-640
-848
-1024
-1248
-1520
-1040
-160
-16
0
0
16
224
1328
176
1680
928
320
144
-160
-384
-624
-848
-1008
-1216
-1504
-1072
-176
-16
0
0
16
208
1264
192
1728
976
336
144
-144
-368
-624
-848
-1024
-1216
-1504
-1136
-208
-16
0
0
16
192
1216
192
1744
1008
352
160
-128
-368
-608
-832
-1008
-1200
-1488
-1152
-224
-16
0
0
16
176
1152
176
1776
1056
368
176
-112
-352
-592
-816
-1008
-1200
-1488
-1200
-256
-16
0
0
16
160
1104
176
1792
1072
384
192
-112
-352
-592
-816
-1008
-1184
-1472
-1200
-272
-16
0
0
16
144
1040
144
1792
1104
400
208
-96
-336
-592
-816
-1008
-1200
-1472
-1232
-288
-16
0
0
16
128
976
144
1824
1120
400
208
-80
-320
-576
-800
-992
-1152
-1456
-1264
-320
-16
0
0
0
128
928
128
1872
1168
416
224
-80
-320
-560
-784
-976
-1152
-1440
-1280
-352
-16
0
0
0
112
880
96
1872
1200
448
240
-64
-304
-544
-768
-992
-1168
-1456
-1344
-384
-16
0
0
0
96
816
80
1904
1232
464
240
-48
-288
-528
-768
-992
-1152
-1456
-1360
-416
-16
0
0
0
96
768
64
1920
1264
480
256
-32
-288
-528
-768
-992
-1168
-1456
-1376
-448
-16
0
0
0
80
720
32
1936
1264
496
256
-32
-288
-512
-752
-992
-1168
-1456
-1408
-480
-16
0
0
0
80
672
2032
1952
1280
512
256
-16
-272
-512
-736
-960
-1120
-1424
-1408
-512
-32
0
0
0
80
640
2000
1984
1328
528
256
0
-272
-496
-720
-960
-1120
-1408
-1440
-560
-32
0
0
0
64
592
1984
2016
1360
544
256
0
-256
-480
-720
-944
-1104
-1392
-1440
-592
-32
0
0
0
64
560
1920
2032
1376
576
272
16
-256
-480
-704
-944
-1088
-1392
-1472
-624
-32
0
0
0
48
512
1904
16
1408
592
272
32
-240
-480
-704
-928
-1072
-1360
-1472
-688
-48
0
0
0
48
480
1856
48
1440
624
272
48
-240
-464
-688
-928
-1072
-1344
-1472
-704
-48
0
0
0
48
448
1792
48
1456
656
272
48
-224
-448
-672
-912
-1056
-1344
-1504
-768
-64
0
0
0
48
416
1760
96
1504
688
272
64
-224
-448
-688
-912
-1072
-1344
-1504
-784
-64
0
0
0
32
384
1696
96
1504
720
288
80
-208
-432
-672
-912
-1072
-1328
-1504
-832
-80
0
0
0
32
352
1648
112
1536
736
272
80
-208
-432
-672
-896
-1056
-1328
-1536
-896
-96
0
0
0
32
320
1600
144
1584
784
288
80
-208
-416
-672
-880
-1040
-1296
-1520
-928
-112
0
0
0
32
304
1552
176
1616
816
288
96
-192
-432
-672
-880
-1040
-1280
-1520
-960
-128
0
0
0
32
272
1488
176
1632
848
304
112
-192
-416
-656
-880
-1040
-1280
-1520
-992
-144
0
0
0
16
256
1440
192
1664
880
304
112
-176
-400
-656
-864
-1040
-1264
-1520
-1024
-144
-16
0
0
16
240
1376
192
1696
928
320
128
-176
-384
-640
-864
-1024
-1248
-1520
-1088
-176
-16
0
0
16
224
1312
176
1696
944
320
144
-160
-384
-624
-848
-1008
-1232
-1504
-1104
-192
-16
0
0
16
192
1264
208
1744
992
336
144
-144
-384
-624
-832
-1024
-1216
-1504
-1152
-208
-16
0
0
16
176
1200
192
1760
1024
352
160
-128
-368
-624
-832
-1008
-1216
-1504
-1168
-240
-16
0
0
16
176
1136
192
1792
1072
368
176
-128
-368
-608
-832
-1040
-1232
-1520
-1216
-256
-16
0
0
16
160
1072
160
1776
1072
384
192
-112
-336
-592
-816
-1024
-1216
-1504
-1264
-288
-16
0
0
16
144
1024
176
1840
1120
400
-16
0
0
0
112
864
96
1872
1200
448
240
-48
-304
-560
-784
-1008
-1168
-1472
-1344
-400
-16
0
0
0
96
800
64
1904
1216
464
240
-48
-288
-544
-768
-992
-1152
-1456
-1360
-432
-16
0
0
0
96
752
48
1920
1248
480
256
-32
-272
-512
-752
-976
-1136
-1440
-1392
-464
-16
0
0
0
80
704
16
1968
1296
512
256
-16
-272
-512
-752
-960
-1120
-1424
-1424
-512
-32
0
0
0
80
672
2032
1984
1312
528
272
-16
-272
-496
-736
-960
-1104
-1392
-1392
-528
-32
0
0
0
64
624
2000
2000
1344
544
272
16
-256
-480
-720
-944
-1088
-1392
-1424
-576
-32
0
0
0
64
576
1952
2016
1376
576
272
16
-256
-480
-720
-944
-1104
-1392
-1488
-640
-32
0
0
0
64
544
1920
0
1392
592
272
16
-240
-480
-720
-928
-1072
-1360
-1456
-640
-48
0
0
0
48
496
1872
16
1424
608
272
48
-224
-448
-688
-928
-1088
-1376
-1504
-704
-48
0
0
0
48
464
1840
64
1456
640
272
32
-224
-448
-688
-912
-1056
-1344
-1488
-736
-64
0
0
0
48
432
1776
64
1488
672
288
64
-224
-448
-672
-912
-1056
-1344
-1520
-784
-64
0
0
0
48
400
1744
96
1504
688
272
64
-208
-432
-672
-896
-1056
-1344
-1536
-832
-80
0
0
0
32
368
1696
128
1552
736
272
80
-208
-432
-672
-896
-1056
-1328
-1520
-848
-96
0
0
0
32
336
1632
128
1552
768
288
80
-208
-416
-672
-880
-1040
-1312
-1536
-912
-96
0
0
0
32
320
1584
160
1584
784
288
96
-192
-416
-656
-880
-1024
-1280
-1520
-928
-112
0
0
0
32
288
1520
176
1616
832
288
112
-192
-416
-656
-880
-1040
-1280
-1520
-976
-128
0
0
0
32
272
1456
176
1632
848
304
112
-176
-400
-640
-864
-1040
-1264
-1520
-1024
-144
0
0
0
16
240
1408
176
1664
896
320
128
-160
-384
-624
-848
-1008
-1248
-1520
-1056
-160
0
0
0
16
224
1360
208
1712
944
336
144
-160
-384
-624
-848
-1024
-1232
-1520
-1088
-176
-16
0
0
16
208
1296
192
1728
976
336
160
-144
-368
-624
-848
-1024
-1232
-1504
-1120
-192
-16
0
0
16
192
1232
208
1776
1024
352
176
-128
-368
-608
-832
-1008
-1216
-1504
-1152
-224
-16
0
0
16
176
1168
208
1792
1056
368
176
-112
-352
-608
-816
-1008
-1200
-1488
-1200
-256
-16
0
0
16
160
1120
192
1824
1088
384
192
-112
-352
-592
-816
-1008
-1200
-1488
-1216
-272
-16
0
0
16
144
1056
176
1840
1120
400
208
-96
-336
-592
-800
-1008
-1184
-1488
-1248
-288
-16
0
0
16
144
992
160
1856
1152
416
208
-80
-336
-592
-800
-1008
-1184
-1488
-1280
-320
-16
0
0
0
128
944
128
1872
1184
432
224
-64
-320
-560
-800
-1008
-1184
-1472
-1312
-352
-16
0
0
0
112
896
128
1904
1200
448
240
-48
-304
-560
-784
-992
-1168
-1472
-1344
-384
-16
0
0
0
112
832
112
1920
1248
464
240
-48
-304
-544
-768
-992
-1152
-1456
-1360
-416
-16
0
0
0
96
784
64
1936
1264
480
256
-32
-288
-544
-768
-992
-1152
-1456
-1392
-448
-16
0
0
0
96
736
48
1968
1296
496
256
-32
-288
-528
-752
-976
-1136
-1424
-1392
-480
-16
0
0
0
80
688
16
1984
1328
528
272
-16
-272
-512
-752
-976
-1136
-1424
-1424
-528
-32
0
0
0
80
640
2032
2000
1344
544
272
0
-256
-496
-736
-960
-1120
-1424
-1456
-576
-32
0
0
0
64
608
2000
2032
1392
576
272
16
-256
-496
-736
-960
-1120
-1408
-1456
-592
-32
0
0
0
64
560
1952
16
1408
592
288
32
-256
-480
-720
-944
-1104
-1392
-1488
-640
-48
0
0
0
64
528
1920
32
1424
608
288
32
-240
-464
-704
-928
-1088
-1376
-1488
-672
-48
0
0
0
48
480
1872
64
1472
656
288
48
-240
-464
-704
-928
-1088
-1360
-1504
-720
-48
0
0
0
48
448
1824
96
1488
672
288
64
-224
-448
-688
-928
-1088
-1360
-1520
-784
-64
0
0
0
48
416
1760
96
1504
704
288
64
-224
-448
-688
-912
-1056
-1344
-1520
-800
-80
0
0
0
32
384
1712
112
1536
720
288
80
-208
-432
-672
-912
-1072
-1344
-1536
-864
-80
0
0
0
32
352
1664
128
1568
752
304
80
-208
-432
-672
-896
-1056
-1312
-1536
-880
-96
0
0
0
32
336
1600
144
1600
800
304
112
-192
-416
-672
-896
-1056
-1312
-1552
-928
-112
0
0
0
32
304
1552
160
1616
816
304
112
-176
-416
-656
-880
-1040
-1296
-1536
-976
-128
0
0
0
32
288
1488
176
1632
848
320
128
-176
-400
-640
-880
-1040
-1280
-1552
-1008
-144
0
0
0
16
256
1440
192
1680
896
320
144
-160
-384
-640
-864
-1040
-1280
-1552
-1056
-160
-16
0
0
16
240
1376
192
1680
912
320
144
-144
-368
-624
-848
-1008
-1232
-1520
-1072
-176
-16
0
0
16
224
1328
224
1744
960
336
160
-144
-368
-608
-832
-1024
-1232
-1520
-1104
-192
-16
0
0
16
208
1264
208
1744
976
336
160
-128
-352
-608
-832
-1024
-1232
-1536
-1168
-224
-16
0
0
16
192
1200
208
1776
1024
352
176
-112
-352
-608
-816
-1008
-1216
-1520
-1184
-240
-16
0
0
16
176
1136
208
1792
1056
368
192
-112
-336
-592
-816
-1024
-1216
-1520
-1232
-272
-16
0
0
16
160
1088
192
1808
1088
384
192
-96
-336
-592
-800
-1008
-1200
-1504
-1248
-288
-16
0
0
16
144
1024
192
1856
1120
384
208
-80
-320
-560
-800
-1008
-1184
-1488
-1280
-320
-16
0
0
16
128
976
176
1888
1168
416
208
-80
-320
-560
-784
-1008
-1168
-1472
-1312
-352
-16
0
0
0
128
912
160
1904
1184
432
224
-64
-304
-560
-784
-992
-1152
-1472
-1328
-368
-16
0
0
0
112
864
144
1936
1232
448
240
-64
-304
-544
-768
-992
-1152
-1456
-1360
-416
-16
0
0
0
96
800
96
1936
1248
464
240
-48
-304
-544
-768
-992
-1152
-1456
-1376
-432
-16
0
0
0
96
752
80
1984
1296
480
240
-32
-288
-528
-752
-976
-1136
-1440
-1408
-480
-16
0
0
0
80
704
48
2016
1328
496
240
-32
-288
-528
-752
-976
-1136
-1424
-1440
-528
-32
0
0
0
80
656
0
2016
1344
528
272
-16
-272
-512
-736
-976
-1152
-1440
-1456
-544
-32
0
0
0
80
624
2000
0
1376
560
272
0
-272
-496
-736
-976
-1136
-1424
-1488
-608
-32
0
0
0
64
576
1984
32
1424
592
272
0
-272
-512
-736
-960
-1104
-1392
-1488
-624
-32
0
0
0
64
544
1936
48
1440
608
288
16
-256
-496
-736
-960
-1104
-1376
-1504
-672
-48
0
0
0
48
496
1904
96
1488
640
288
32
-256
-480
-720
-944
-1088
-1360
-1520
-736
-48
0
0
0
48
464
1856
112
1520
688
304
48
-240
-480
-720
-928
-1072
-1344
-1504
-752
-64
0
0
0
48
432
1792
128
1536
704
304
64
-224
-448
-704
-928
-1088
-1360
-1536
-800
-64
-16
0
0
48
400
1744
128
1552
736
304
80
-224
-448
-704
-912
-1056
-1328
-1520
-832
-80
0
0
0
32
368
1680
160
1600
784
320
112
-208
-432
-688
-912
-1056
-1312
-1536
-880
-96
0
0
0
32
336
1632
160
1600
800
320
128
-176
-416
-672
-896
-1056
-1312
-1536
-928
-112
0
0
0
32
320
1584
192
1648
832
320
128
-176
-416
-656
-880
-1056
-1296
-1536
-960
-112
0
0
0
32
288
1520
192
1664
880
336
144
-176
-400
-656
-896
-1056
-1296
-1552
-1008
-144
0
0
0
32
272
1456
192
1680
896
336
160
-160
-384
-656
-880
-1040
-1280
-1552
-1040
-144
-16
0
0
16
240
1392
208
1712
944
336
160
-144
-384
-640
-864
-1040
-1264
-1536
-1072
-176
-16
0
0
16
224
1328
208
1728
960
352
176
-144
-368
-624
-864
-1024
-1248
-1536
-1120
-192
-16
0
0
16
208
1280
208
1760
992
352
192
-128
-352
-608
-848
-1024
-1232
-1520
-1152
-208
-16
0
0
16
192
1216
208
1776
1024
368
192
-112
-352
-608
-848
-1024
-1232
-1536
-1200
-240
-16
0
0
16
176
1152
208
1792
1056
368
208
-112
-336
-592
-832
-1024
-1216
-1520
-1216
-256
-16
0
0
16
160
1088
192
1808
1088
384
208
-96
-320
-576
-800
-1008
-1184
-1504
-1248
-288
-16
0
0
16
144
1040
176
1840
1120
400
224
-80
-320
-560
-800
-992
-1184
-1488
-1280
-320
-16
0
0
16
144
992
192
1872
1152
416
240
-64
-304
-560
-784
-992
-1168
-1472
-1296
-336
-16
0
0
16
128
928
160
1904
1184
432
240
-48
-288
-544
-768
-976
-1152
-1456
-1312
-368
-16
0
0
0
112
864
112
1904
1216
464
256
-32
-288
-528
-768
-976
-1152
-1456
-1360
-400
-16
0
0
0
112
816
112
1952
1248
464
272
-16
-272
-512
-752
-976
-1136
-1440
-1376
-432
-16
0
0
0
96
768
96
1984
1280
480
272
-16
-272
-512
-736
-960
-1104
-1424
-1392
-480
-16
0
0
0
96
720
64
2016
1328
512
272
-16
-272
-496
-736
-960
-1120
-1424
-1424
-512
-32
0
0
0
80
672
16
2032
1344
528
272
0
-256
-496
-736
-960
-1120
-1408
-1440
-544
-32
0
0
0
80
624
0
16
1376
544
272
0
-256
-496
-720
-960
-1104
-1408
-1456
-576
-32
0
0
0
64
592
2000
48
1424
592
288
16
-256
-480
-720
-960
-1120
-1392
-1488
-624
-32
0
0
0
64
544
1968
80
1456
608
272
32
-256
-480
-720
-944
-1104
-1376
-1488
-672
-48
0
0
0
64
512
1904
112
1488
640
288
48
-240
-480
-704
-944
-1088
-1360
-1504
-704
-48
0
0
0
48
464
1856
128
1520
672
304
64
-240
-464
-704
-928
-1088
-1376
-1520
-768
-64
0
0
0
48
432
1808
128
1536
704
288
64
-224
-448
-704
-928
-1088
-1344
-1536
-800
-64
0
0
0
48
400
1760
176
1584
736
304
80
-208
-448
-688
-928
-1088
-1360
-1536
-832
-80
0
0
0
32
368
1696
176
1600
768
304
96
-208
-432
-688
-912
-1056
-1328
-1552
-896
-96
0
0
0
32
352
1648
208
1632
816
320
112
-192
-432
-672
-912
-1072
-1312
-1536
-912
-112
0
0
0
32
320
1584
208
1664
848
320
112
-192
-416
-672
-896
-1072
-1328
-1568
-976
-128
0
0
0
32
288
1520
208
1680
864
320
128
-176
-416
-672
-880
-1056
-1296
-1536
-992
-128
0
0
0
32
272
1456
208
1696
912
336
144
-160
-400
-640
-880
-1056
-1280
-1552
-1040
-144
0
0
0
16
256
1392
208
1712
928
336
160
-144
-384
-640
-880
-1056
-1280
-1552
-1072
-176
-16
0
0
16
224
1344
208
1728
960
336
176
-144
-384
-640
-848
-1024
-1248
-1552
-1120
-192
-16
0
0
16
208
1280
224
1776
1008
352
176
-144
-368
-624
-864
-1040
-1248
-1552
-1168
-208
-16
0
0
16
192
1216
224
1792
1024
336
176
-128
-368
-624
-848
-1040
-1248
-1536
-1184
-240
-16
0
0
16
176
1152
208
1808
1072
352
176
-128
-368
-608
-848
-1040
-1248
-1536
-1232
-256
-16
0
0
16
160
1104
208
1824
1088
368
192
-112
-352
-608
-848
-1040
-1232
-1536
-1280
-304
-16
0
0
16
144
1040
208
1856
1120
368
192
-112
-352
-608
-832
-1024
-1216
-1520
-1296
-320
-16
0
0
16
144
976
192
1888
1152
384
192
-112
-352
-592
-832
-1024
-1200
-1520
-1344
-352
-16
0
0
16
128
928
176
1920
1200
400
192
-96
-352
-592
-832
-1040
-1216
-1520
-1360
-384
-16
0
0
0
112
880
144
1936
1232
416
208
-80
-336
-576
-816
-1024
-1184
-1504
-1392
-432
-16
0
0
0
112
816
128
1968
1264
448
224
-64
-320
-576
-800
-1024
-1184
-1504
-1424
-464
-16
0
0
0
96
768
96
2000
1296
464
224
-48
-304
-544
-784
-1008
-1184
-1472
-1440
-480
-16
0
0
0
96
720
80
2032
1328
496
224
-48
-304
-544
-784
-1008
-1168
-1456
-1456
-528
-32
0
0
0
80
672
32
16
1360
512
240
-32
-304
-544
-768
-992
-1136
-1440
-1456
-560
-32
0
0
0
80
624
2032
32
1392
544
240
-16
-288
-512
-752
-992
-1152
-1456
-1488
-592
-32
0
0
0
64
592
2000
48
1408
560
240
0
-288
-512
-752
-976
-1152
-1440
-1520
-640
-32
0
0
0
64
544
1936
48
1424
592
256
16
-256
-496
-736
-960
-1120
-1408
-1504
-672
-48
0
0
0
64
512
1904
80
1456
624
272
32
-256
-480
-720
-960
-1120
-1392
-1520
-704
-48
0
0
0
48
464
1856
96
1488
656
288
48
-240
-480
-720
-944
1680
144
1568
752
304
96
-208
-448
-688
-912
-1088
-1328
-1536
-864
-96
0
0
0
32
336
1632
160
1600
784
320
112
-192
-432
-672
-896
-1056
-1312
-1536
-912
-96
0
0
0
32
320
1568
176
1616
816
320
112
-176
-416
-672
-896
-1056
-1296
-1520
-944
-112
-16
0
0
32
288
1504
176
1648
864
320
128
-176
-416
-656
-880
-1072
-1296
-1536
-992
-128
0
0
0
32
272
1456
208
1680
896
320
128
-160
-400
-640
-880
-1040
-1280
-1536
-1040
-160
0
0
0
16
256
1392
224
1712
928
336
144
-160
-384
-640
-864
-1024
-1248
-1520
-1072
-176
-16
0
0
16
224
1328
224
1744
976
352
176
-144
-368
-624
-864
-1040
-1248
-1536
-1120
-192
-16
0
0
16
208
1280
224
1760
1008
352
176
-128
-368
-624
-848
-1008
-1232
-1536
-1152
-208
-16
0
0
16
192
1216
240
1808
1040
368
176
-128
-368
-608
-832
-1024
-1232
-1536
-1200
-240
-16
0
0
16
176
1152
224
1824
1072
384
192
-112
-352
-608
-832
-1024
-1216
-1536
-1248
-272
-16
0
0
16
160
1104
224
1856
1120
384
208
-112
-352
-592
-832
-1024
-1216
-1536
-1264
-288
-16
0
0
16
144
1040
224
1888
1152
416
224
-96
-336
-592
-816
-1024
-1200
-1520
-1312
-320
-16
0
0
16
144
992
224
1920
1184
416
224
-80
-320
-576
-816
-1024
-1200
-1504
-1328
-352
-16
0
0
16
128
928
192
1936
1232
448
240
-64
-304
-560
-800
-1008
-1168
-1488
-1360
-384
-16
0
0
0
112
880
176
1968
1264
464
240
-48
-304
-544
-784
-1008
-1168
-1488
-1392
-432
-16
0
0
0
112
816
160
2016
1296
480
256
-32
-288
-544
-768
-992
-1152
-1456
-1392
-448
-16
0
0
0
96
768
128
2032
1328
512
272
-16
-288
-528
-752
-976
-1136
-1440
-1424
-496
-16
0
0
0
96
720
96
16
1360
528
272
0
-272
-512
-752
-976
-1136
-1440
-1440
-528
-32
0
0
0
80
672
64
48
1392
560
288
16
-256
-496
-736
-976
-1136
-1440
-1472
-560
-32
0
0
0
80
624
32
80
1424
592
288
16
-256
-496
-736
-960
-1136
-1424
-1488
-608
-32
0
0
0
64
592
2032
96
1456
608
288
32
-256
-496
-736
-960
-1120
-1408
-1488
-640
-32
0
0
0
64
544
1984
128
1488
640
288
48
-240
-480
-720
-960
-1120
-1392
-1520
-688
-48
0
0
0
64
496
1936
160
1536
672
288
48
-240
-480
-720
-960
-1120
-1392
-1552
-736
-48
0
0
0
48
464
1872
176
1568
704
288
64
-240
-464
-720
-960
-1120
-1392
-1568
-784
-64
0
0
0
48
432
1808
176
1584
720
288
64
-224
-464
-720
-944
-1104
-1376
-1568
-832
-80
0
0
0
48
400
1760
208
1616
768
304
80
-224
-464
-720
-944
-1104
-1376
-1568
-864
-80
0
0
0
32
368
1696
208
1632
800
304
96
-208
-448
-704
-944
-1104
-1360
-1584
-912
-96
0
0
0
32
336
1632
224
1664
832
304
96
-208
-448
-704
-928
-1088
-1344
-1584
-944
-112
0
0
0
32
320
1568
224
1680
848
304
112
-192
-432
-688
-928
-1088
-1328
-1568
-992
-128
0
0
0
32
288
1504
224
1696
880
304
112
-192
-432
-688
-912
-1072
-1312
-1568
-1040
-144
0
0
0
32
272
1440
224
1712
912
304
112
-192
-416
-688
-912
-1072
-1312
-1568
-1056
-160
-16
0
0
16
240
1376
208
1728
944
320
128
-176
-400
-672
-896
-1088
-1312
-1584
-1120
-176
-16
0
0
16
224
1312
224
1744
976
320
144
-160
-400
-656
-896
-1072
-1296
-1568
-1136
-192
-16
0
0
16
208
1248
208
1744
992
336
160
-144
-384
-640
-864
-1072
-1280
-1568
-1184
-224
-16
0
0
16
192
1200
208
1776
1024
352
160
-128
-368
-624
-864
-1040
-1248
-1552
-1216
-256
-16
0
0
16
176
1136
192
1792
1072
368
192
-112
-352
-608
-848
-1040
-1232
-1536
-1232
-272
-16
0
0
16
160
1072
176
1808
1088
368
192
-96
-336
-592
-832
-1040
-1216
-1520
-1264
-304
-16
0
0
16
144
1008
176
1840
1120
384
192
-96
-336
-592
-816
-1024
-1200
-1504
-1296
-320
-16
0
0
16
144
960
160
1856
1152
400
208
-80
-320
-576
-800
-1008
-1184
-1488
-1312
-352
-16
0
0
16
128
896
128
1872
1168
400
208
-64
-320
-544
-784
-1008
-1168
-1488
-1360
-384
-16
0
0
0
112
848
112
1920
1216
432
208
-80
-320
-544
-784
-992
-1152
-1472
-1360
-400
-16
0
0
0
112
800
64
1920
1232
448
224
-64
-304
-544
-784
-992
-1152
-1456
-1392
-448
-16
0
0
0
96
752
48
1952
1264
464
208
-48
-304
-544
-768
-992
-1152
-1456
-1408
-480
-16
0
0
0
96
704
32
1984
1296
480
208
-48
-304
-528
-752
-976
-1136
-1440
-1440
-528
-32
0
0
0
80
656
2032
2016
1328
512
208
-48
-304
-528
-752
-960
-1120
-1408
-1456
-560
-32
0
0
0
80
608
2000
2032
1360
544
240
-32
-288
-512
-736
-976
-1120
-1408
-1472
-592
-32
0
0
0
64
576
1968
16
1392
560
240
-16
-288
-512
-736
-960
-1120
-1392
-1488
-656
-48
0
0
0
64
528
1920
48
1424
592
240
0
-272
-496
-736
-960
-1104
-1376
-1504
-672
-48
0
0
0
64
496
1856
64
1456
624
240
16
-272
-496
-720
-960
-1104
-1376
-1504
-720
-48
0
0
0
48
448
1824
96
1504
656
240
16
-256
-496
-720
-944
-1104
-1376
-1520
-784
-64
0
0
0
48
416
1776
112
1520
688
256
32
-256
-480
-720
-928
-1088
-1344
-1520
-800
-80
0
0
0
48
384
1712
128
1552
736
272
48
-240
-480
-704
-928
-1072
-1328
-1520
-832
-80
0
0
0
32
368
1648
112
1568
768
288
64
-224
-464
-688
-912
-1072
-1328
-1536
-896
-96
0
0
0
32
336
1600
128
1584
784
288
80
-208
-448
-688
-896
-1072
-1328
-1552
-928
-112
0
0
0
32
304
1536
144
1600
816
288
96
-208
-432
-688
-912
-1088
-1312
-1536
-960
-128
0
0
0
32
288
1488
144
1616
848
304
112
-192
-416
-672
-896
-1072
-1296
-1536
-976
-128
0
0
0
32
256
1424
160
1632
880
304
128
-176
-416
-672
-880
-1056
-1280
-1536
-1040
-160
0
0
0
16
240
1360
144
1664
912
320
144
-160
-400
-656
-880
-1040
-1264
-1536
-1072
-176
-16
0
0
16
224
1312
160
1680
944
336
144
-160
-384
-640
-864
-1040
-1248
-1536
-1104
-192
-16
0
0
16
208
1248
160
1712
976
336
160
-144
-368
-624
-848
-1040
-1248
-1536
-1168
-224
-16
0
0
16
192
1184
176
1744
1008
352
160
-128
-368
-624
-848
-1040
-1232
-1504
-1168
-240
-16
0
0
16
176
1136
144
1728
1024
352
176
-112
-352
-608
-848
-1040
-1216
-1504
-1200
-256
-16
0
0
16
160
1072
144
1776
1072
368
176
-112
-352
-592
-832
-1024
-1200
-1488
-1232
-288
-16
0
0
16
144
1024
144
1808
1104
368
192
-96
-336
-592
-816
-1008
-1184
-1488
-1280
-320
-16
0
0
16
128
960
144
1840
1136
384
192
-96
-336
-576
-816
-1008
-1184
-1488
-1328
-352
-16
0
0
16
128
912
128
1872
1168
400
208
-80
-320
-560
-800
-992
-1168
-1488
-1344
-368
-16
0
0
0
112
864
96
1888
1184
416
208
-80
-320
-544
-784
-1008
-1184
-1504
-1392
-416
-16
0
0
0
96
800
80
1904
1216
432
208
-64
-320
-544
-784
-1008
-1184
-1488
-1408
-448
-16
0
0
0
96
752
48
1936
1264
464
224
-48
-304
-544
-768
-992
-1152
-1456
-1424
-480
-16
0
0
0
80
704
32
1968
1296
480
224
-48
-304
-528
-768
-976
-1136
-1440
-1440
-528
-32
0
0
0
80
656
2032
1984
1328
512
240
-32
-288
-512
-752
-976
-1120
-1424
-1456
-560
-32
0
0
0
80
624
2016
2032
1376
544
240
-16
-288
-512
-752
-976
-1120
-1424
-1488
-608
-32
0
0
0
64
576
1968
16
1408
560
240
-16
-272
-496
-736
-976
-1136
-1424
-1504
-640
-32
0
0
0
64
544
1936
48
1440
592
240
0
-272
-496
-736
-960
-1104
-1408
-1520
-672
-48
0
0
0
48
496
1888
64
1456
624
240
16
-272
-496
-736
-960
-1104
-1392
-1520
-736
-48
0
0
0
48
464
1840
96
1488
656
256
16
-256
-496
-736
-960
-1120
-1392
-1536
-752
-64
0
0
0
48
432
1792
96
1504
688
272
48
-256
-480
-720
-944
-1104
-1376
-1568
-816
-80
0
0
0
48
400
1744
128
1552
720
272
48
-240
-464
-720
-928
-1088
-1360
-1568
-848
-80
0
0
0
32
368
1696
160
1584
768
288
64
-224
-464
-704
-928
-1072
-1344
-1568
-896
-96
0
0
0
32
336
1648
176
1616
800
288
80
-208
-448
-688
-912
-1072
-1312
-1552
-944
-112
0
0
0
32
320
1584
192
1648
848
304
96
-192
-432
-672
-896
-1072
-1312
-1568
-976
-128
0
0
0
32
288
1520
192
1664
880
320
128
-192
-416
-672
-896
-1056
-1296
-1568
-1024
-144
0
0
0
32
272
1472
224
1696
912
336
144
-176
-416
-672
-896
-1072
-1296
-1552
-1056
-160
0
0
0
16
240
1408
224
1728
944
336
144
-160
-400
-640
-880
-1056
-1280
-1568
-1104
-176
-16
0
0
16
224
1344
224
1744
992
352
160
-144
-384
-640
-880
-1056
-1264
-1552
-1152
-208
-16
0
0
16
208
1296
224
1760
1024
368
176
-128
-384
-640
-864
-1056
-1248
-1536
-1168
-224
-16
0
0
16
192
1232
240
1792
1056
368
192
-128
-368
-624
-848
-1040
-1248
-1536
-1216
-240
-16
0
0
16
176
1168
240
1824
1088
400
192
-112
-352
-608
-848
-1024
-1232
-1536
-1232
-272
-16
0
0
16
160
1120
224
1840
1120
400
208
-96
-336
-608
-832
-1024
-1216
-1536
-1264
-304
-16
0
0
16
144
1056
208
1856
1136
416
224
-80
-320
-576
-816
-1008
-1200
-1504
-1312
-336
-16
0
0
16
144
992
192
1888
1184
432
224
-64
-304
-576
-816
-1024
-1200
-1504
-1328
-352
-16
0
0
16
128
944
176
1920
1216
448
240
-48
-304
-560
-800
-1008
-1184
-1504
-1360
-400
-16
0
0
0
112
880
176
1952
1248
464
240
-48
-288
-544
-800
-1008
-1184
-1488
-1376
-416
-16
0
0
0
112
832
144
1968
1264
480
240
-32
-288
-528
-768
-992
-1168
-1472
-1408
-448
-16
0
0
0
96
784
112
2000
1296
496
256
-32
-272
-512
-768
-992
-1168
-1472
-1440
-496
-16
0
0
0
96
736
96
2032
1344
528
272
-16
-272
-512
-752
-992
-1152
-1472
-1456
-528
-32
0
0
0
80
688
64
32
1376
544
272
0
-272
-496
-752
-976
-1136
-1440
-1472
-576
-32
0
0
0
80
640
32
64
1408
576
272
0
-272
-496
-736
-992
-1152
-1440
-1488
-608
-32
0
0
0
64
592
2032
80
1440
608
272
16
-272
-496
-736
-976
-1136
-1424
-1504
-656
-48
0
0
0
64
560
1984
96
1456
624
272
16
-256
-480
-720
-960
-1120
-1408
-1520
-704
-48
0
0
0
64
512
1936
128
1504
656
272
32
-256
-480
-720
-944
-1104
-1392
-1536
-736
-48
0
0
0
48
480
1888
160
1552
688
288
48
-240
-480
-720
-944
-1104
-1376
-1552
-784
-64
0
0
0
48
448
1808
144
1552
720
288
64
-224
-464
-704
-928
-1088
-1376
-1552
-816
-80
0
0
0
48
416
1760
192
1600
768
304
80
-224
-464
-704
-928
-1104
-1360
-1568
-864
-80
0
0
0
32
384
1712
208
1632
800
304
96
-208
-448
-704
-928
-1088
-1360
-1568
-928
-96
0
0
0
32
352
1648
224
1648
832
304
96
-192
-448
-688
-912
-1072
-1328
-1568
-944
-112
0
0
0
32
320
1584
224
1696
880
320
112
-192
-432
-688
-912
-1088
-1312
-1584
-1008
-128
0
0
0
32
304
1536
256
1728
912
336
128
-176
-416
-672
-912
-1072
-1312
-1568
-1024
-144
-16
0
0
32
272
1472
256
1744
944
336
144
-176
-416
-672
-896
-1072
-1312
-1584
-1072
-160
-16
0
0
16
256
1408
256
1760
992
352
160
-160
-400
-656
-896
-1088
-1312
-1584
-1136
-192
-16
0
0
16
240
1344
240
1760
1008
368
176
-144
-384
-640
-880
-1072
-1296
-1568
-1168
-208
-16
0
0
16
208
1296
272
1808
1040
368
176
-128
-384
-640
-880
-1072
-1296
-1584
-1216
-240
-16
0
0
16
192
1216
240
1808
1072
384
192
-128
-368
-624
-864
-1072
-1280
-1568
-1232
-256
-16
0
0
16
176
1168
240
1840
1104
400
192
-112
-352
-608
-848
-1056
-1248
-1568
-1264
-288
-16
0
0
16
160
1104
208
1840
1104
400
208
-80
-320
-592
-832
-1056
-1264
-1584
-1328
-320
-16
-64
-320
-576
-816
-1024
-1200
-1536
-1408
-416
-16
0
0
0
112
880
160
1968
1264
464
240
-48
-320
-560
-800
-1024
-1200
-1536
-1440
-464
-16
0
0
0
112
816
144
2000
1296
496
240
-48
-304
-544
-800
-1024
-1184
-1504
-1456
-496
-16
0
0
0
96
768
144
0
1344
512
256
-32
-288
-544
-784
-1008
-1168
-1488
-1472
-528
-32
0
0
0
96
720
112
48
1376
544
256
-16
-288
-528
-768
-992
-1152
-1472
-1488
-576
-32
0
0
0
80
672
48
48
1392
560
256
0
-272
-512
-752
-992
-1136
-1440
-1504
-608
-32
0
0
0
80
624
16
80
1440
592
272
0
-272
-512
-752
-976
-1136
-1440
-1520
-640
-32
0
0
0
64
576
2000
96
1456
608
272
16
-256
-496
-736
-960
-1120
-1424
-1536
-688
-48
0
0
0
64
544
1968
128
1504
656
288
32
-256
-480
-736
-960
-1120
-1424
-1552
-736
-48
0
0
0
64
496
1920
144
1520
672
288
48
-240
-480
-720
-960
-1120
-1408
-1568
-784
-64
0
0
0
48
464
1872
176
1568
704
288
64
-224
-480
-720
-944
-1104
-1376
-1552
-816
-80
0
0
0
48
432
1808
208
1600
752
304
80
-224
-464
-720
-944
-1104
-1376
-1568
-864
-80
0
0
0
48
400
1760
240
1632
784
304
80
-208
-448
-704
-944
-1104
-1360
-1584
-912
-96
0
0
0
48
368
1712
272
1680
832
304
96
-208
-448
-704
-928
-1088
-1344
-1584
-928
-112
0
0
0
32
336
1632
256
1696
864
320
112
-192
-432
-688
-912
-1104
-1344
-1584
-992
-128
0
0
0
32
320
1584
272
1712
896
320
128
-176
-416
-672
-912
-1088
-1312
-1568
-1024
-144
0
0
0
32
288
1520
272
1744
944
336
144
-176
-416
-672
-912
-1088
-1328
-1584
-1072
-160
-16
0
0
32
272
1456
288
1776
976
336
144
-160
-400
-672
-912
-1088
-1312
-1568
-1120
-176
-16
0
0
32
240
1392
304
1808
1024
352
160
-160
-400
-656
-896
-1088
-1312
-1584
-1152
-208
-16
0
0
16
224
1328
304
1824
1040
368
176
-144
-384
-640
-880
-1056
-1264
-1568
-1200
-224
-16
0
0
16
208
1264
288
1840
1088
384
192
-128
-368
-624
-864
-1040
-1248
-1552
-1216
-256
-16
0
0
16
192
1200
304
1888
1136
400
208
-112
-368
-624
-864
-1072
-1264
-1568
-1280
-288
-16
0
0
16
176
1136
304
1936
1168
400
192
-112
-352
-624
-864
-1072
-1264
-1568
-1312
-320
-16
0
0
16
160
1072
272
1936
1200
416
208
-96
-336
-592
-848
-1056
-1248
-1552
-1344
-352
-16
0
0
16
144
1008
272
1968
1232
448
224
-80
-336
-592
-848
-1056
-1232
-1552
-1376
-384
-16
0
0
16
144
960
256
2016
1280
464
224
-80
-336
-592
-832
-1056
-1232
-1536
-1392
-400
-16
0
0
16
128
896
224
2032
1296
480
240
-64
-320
-576
-816
-1040
-1216
-1520
-1424
-432
-16
0
0
0
112
848
192
0
1328
496
240
-48
-304
-560
-816
-1040
-1200
-1520
-1456
-496
-16
0
0
0
112
784
160
16
1360
528
256
-32
-304
-560
-800
-1040
-1216
-1520
-1488
-528
-32
0
0
0
96
736
128
48
1392
544
256
-16
-304
-544
-800
-1040
-1200
-1520
-1536
-576
-32
0
0
0
96
688
80
80
1424
576
272
0
-288
-528
-784
-1024
-1184
-1488
-1536
-608
-32
0
0
0
80
640
48
112
1456
592
272
0
-288
-528
-768
-1008
-1168
-1472
-1552
-656
-32
0
0
0
80
592
0
144
1488
624
272
16
-272
-512
-752
-992
-1168
-1472
-1584
-720
-48
0
0
0
64
560
1984
144
1520
656
272
32
-256
-512
-752
-976
-1152
-1456
-1584
-736
-48
0
0
0
64
512
1936
176
1552
688
288
32
-256
-496
-752
-992
-1152
-1456
-1600
-800
-64
0
0
0
64
480
1888
192
1568
720
288
48
-240
-480
-736
-976
-1136
-1424
-1584
-816
-80
0
0
0
48
448
1840
224
1616
752
272
64
-240
-480
-736
-960
-1136
-1408
-1600
-880
-80
0
0
0
48
416
1776
240
1632
784
288
64
-240
-464
-720
-960
-1120
-1392
-1616
-928
-96
0
0
0
48
384
1712
240
1632
816
304
96
-208
-448
-704
-944
-1136
-1392
-1616
-960
-112
0
0
0
32
352
1648
256
1680
848
304
96
-208
-448
-704
-944
-1120
-1392
-1632
-1024
-128
0
0
0
32
320
1584
288
1712
896
320
112
-192
-448
-704
-928
-1120
-1360
-1616
-1056
-144
0
0
0
32
304
1520
304
1760
944
320
128
-192
-432
-688
-928
-1104
-1344
-1616
-1088
-160
-16
0
0
32
272
1456
320
1776
960
320
128
-176
-416
-672
-912
-1104
-1328
-1616
-1152
-192
-16
0
0
32
256
1392
304
1808
1008
336
144
-176
-416
-672
-896
-1088
-1312
-1616
-1184
-208
-16
0
0
16
224
1328
304
1840
1056
352
160
-160
-400
-656
-896
-1088
-1312
-1600
-1216
-240
-16
0
0
16
208
1264
304
1856
1088
368
160
-144
-400
-656
-896
-1088
-1296
-1600
-1248
-256
-16
0
0
16
192
1200
304
1888
1120
384
176
-128
-384
-640
-880
-1072
-1280
-1584
-1296
-288
-16
0
0
16
176
1136
288
1904
1152
384
176
-128
-368
-624
-864
-1072
-1248
-1568
-1328
-320
-16
0
0
16
160
1072
256
1920
1184
416
192
-112
-368
-624
-864
-1072
-1248
-1568
-1360
-352
-16
0
0
16
160
1008
256
1952
1216
432
208
-96
-352
-624
-848
-1072
-1248
-1568
-1392
-384
-16
0
0
16
144
960
224
1984
1248
448
208
-96
-352
-608
-848
-1056
-1216
-1520
-1392
-416
-16
0
0
16
128
896
192
2000
1280
464
224
-64
-336
-576
-832
-1056
-1232
-1536
-1440
-464
-16
0
0
16
112
848
176
2032
1312
480
224
-64
-320
-576
-816
-1056
-1248
-1552
-1488
-496
-16
0
0
0
112
784
144
0
1328
512
224
-48
-320
-576
-816
-1056
-1232
-1536
-1488
-528
-32
0
0
0
96
736
96
0
1360
528
240
-32
-304
-544
-800
-1040
-1216
-1520
-1520
-576
-32
0
0
0
96
688
64
48
1408
560
240
-32
-304
-544
-784
-1024
-1200
-1520
-1552
-608
-32
0
0
0
80
640
32
96
1440
576
256
-16
-288
-544
-784
-1024
-1200
-1488
-1552
-656
-48
0
0
0
80
592
2032
112
1456
608
256
0
-272
-512
-768
-1008
-1168
-1472
-1568
-704
-48
0
0
0
64
560
1984
128
1504
640
272
16
-256
-496
-752
-1008
-1168
-1456
-1584
-736
-48
0
0
0
64
512
1936
160
1520
672
288
32
-256
-496
-752
-992
-1168
-1456
-1600
-800
-64
0
0
0
64
480
1872
176
1552
704
288
48
-240
-480
-736
-976
-1136
-1408
-1584
-832
-80
0
0
0
48
448
1824
208
1600
752
288
64
-240
-480
-736
-960
-1120
-1392
-1600
-880
-80
0
0
0
48
416
1760
240
1632
784
288
64
-224
-464
-720
-960
-1104
-1376
-1600
-928
-96
0
0
0
48
384
1712
256
1664
816
304
80
-224
-464
-720
-944
-1120
-1376
-1600
-960
-112
0
0
0
48
352
1648
240
1680
864
320
112
-208
-448
-704
-944
-1120
-1376
-1616
-1008
-128
0
0
0
32
320
1584
272
1712
896
320
112
-192
-432
-688
-928
-1104
-1344
-1584
-1040
-144
0
0
0
32
304
1520
288
1744
944
336
144
-176
-432
-688
-912
-1088
-1312
-1584
-1072
-160
-16
0
0
32
272
1456
288
1776
976
352
144
-160
-416
-672
-896
-1088
-1312
-1584
-1120
-192
-16
0
0
32
256
1392
288
1808
1024
368
176
-144
-400
-656
-880
-1072
-1296
-1584
-1152
-208
-16
0
0
32
224
1328
304
1824
1056
384
176
-144
-384
-656
-880
-1072
-1296
-1584
-1216
-240
-16
0
0
16
208
1264
288
1856
1088
384
192
-128
-384
-640
-864
-1056
-1264
-1568
-1232
-256
-16
0
0
16
192
1200
288
1872
1136
400
208
-112
-368
-624
-848
-1056
-1264
-1568
-1280
-288
-16
0
0
16
176
1136
272
1888
1152
416
208
-96
-352
-608
-848
-1056
-1248
-1552
-1312
-320
-16
0
0
16
160
1088
272
1904
1168
432
224
-96
-336
-608
-848
-1072
-1280
-1568
-1360
-352
-16
0
0
16
160
1024
240
1936
1200
448
224
-80
-336
-592
-848
-1088
-1264
-1568
-1392
-384
-16
0
0
16
144
960
224
1952
1248
464
240
-64
-320
-592
-832
-1056
-1232
-1536
-1408
-416
-16
0
0
16
128
896
208
2000
1296
480
240
-64
-320
-576
-816
-1040
-1216
-1520
-1424
-464
-16
0
0
16
112
848
192
2032
1328
496
240
-48
-304
-560
-816
-1056
-1216
-1536
-1472
-496
-16
0
0
0
112
800
144
2032
1328
512
240
-48
-304
-560
-800
-1040
-1232
-1552
-1520
-528
-32
0
0
0
96
736
80
2032
1328
528
256
-16
-304
-544
-784
-1040
-1216
-1536
-1536
-576
-32
0
0
0
96
688
48
32
1360
544
256
-16
-288
-512
-768
-1008
-1200
-1520
-1552
-608
-32
0
0
0
80
640
0
48
1408
576
272
0
-272
-512
-768
-1008
-1184
-1504
-1568
-672
-48
0
0
0
80
608
2032
96
1440
608
272
16
-272
-512
-768
-1008
-1168
-1472
-1568
-704
-48
0
0
0
64
560
2000
144
1488
624
272
32
-256
-496
-752
-976
-1136
-1424
-1552
-736
-48
0
0
0
64
528
1968
192
1536
672
272
32
-240
-480
-736
-976
-1120
-1408
-1568
-800
-64
0
0
0
64
480
1904
192
1568
704
288
64
-240
-480
-736
-960
-1120
-1408
-1584
-832
-80
0
0
0
48
448
1840
224
1600
752
304
64
-224
-464
-720
-944
-1120
-1392
-1584
-864
-80
0
0
0
48
416
1792
256
1632
768
288
80
-208
-448
-704
-944
-1104
-1376
-1584
-928
-96
0
0
0
48
384
1728
272
1680
816
304
96
-208
-448
-704
-928
-1088
-1360
-1584
-944
-112
0
0
0
48
352
1664
272
1696
848
320
112
-192
-432
-688
-912
-1088
-1344
-1600
-1008
-128
0
0
0
32
320
1600
288
1728
896
320
112
-192
-432
-688
-912
-1088
-1328
-1584
-1040
-144
0
0
0
32
304
1536
304
1760
944
336
128
-176
-416
-688
-912
-1088
-1328
-1600
-1088
-160
-16
0
0
32
272
1472
304
1792
976
336
144
-176
-400
-672
-896
-1072
-1312
-1584
-1136
-192
-16
0
0
32
256
1408
320
1824
1008
352
160
-160
-400
-656
-880
-1088
-1296
-1584
-1168
-208
-16
0
0
32
240
1344
336
1856
1056
368
160
-160
-400
-656
-896
-1088
-1296
-1600
-1216
-240
-16
0
0
16
208
1280
304
1872
1088
368
176
-144
-384
-640
-880
-1072
-1280
-1584
-1232
-256
-16
0
0
16
192
1216
304
1904
1136
384
192
-128
-384
-640
-864
-1072
-1280
-1584
-1280
-288
-16
0
0
16
176
1152
288
1936
1168
400
192
-112
-368
-624
-864
-1072
-1264
-1568
-1312
-320
-16
0
0
16
160
1088
288
1968
1216
432
208
-96
-352
-624
-848
-1056
-1232
-1552
-1344
-352
-16
0
0
16
160
1024
272
2000
1248
448
224
-80
-352
-608
-848
-1072
-1248
-1552
-1392
-384
-16
0
0
16
144
976
256
2000
1280
464
240
-64
-336
-608
-832
-1056
-1248
-1552
-1424
-416
-16
0
0
16
128
912
224
2032
1312
496
256
-64
-336
-592
-832
-1056
-1248
-1552
-1456
-464
-16
0
0
16
112
864
208
0
1344
512
256
-32
-320
-576
-816
-1040
-1216
-1536
-1488
-496
-16
0
0
0
112
800
160
48
1392
528
256
-32
-304
-560
-800
-1024
-1200
-1536
-1520
-544
-32
0
0
0
96
752
128
80
1424
576
272
-16
-288
-544
-800
-1024
-1200
-1520
-1536
-592
-32
0
0
0
96
704
96
96
1456
592
272
0
-272
-544
-784
-1024
-1184
-1504
-1552
-624
-32
0
0
0
80
656
48
128
1488
624
288
16
-272
-528
-784
-1008
-1168
-1488
-1568
-688
-48
0
0
0
80
608
0
144
1504
640
288
32
-256
-512
-768
-1008
-1168
-1472
-1584
-720
-48
0
0
0
64
560
2016
176
1536
672
288
48
-256
-496
-752
-992
-1168
-1456
-1600
-768
-64
0
0
0
64
528
1968
208
1568
704
288
48
-240
-480
-752
-992
-1168
-1456
-1616
-816
-64
0
0
0
64
480
1920
240
1600
736
304
64
-240
-464
-736
-992
-1168
-1456
-1632
-848
-80
0
0
0
48
448
1856
240
1600
768
304
80
-224
-464
-720
-992
-1184
-1456
-1648
-896
-96
0
0
0
48
416
1792
256
1632
800
320
80
-208
-448
-720
-960
-1152
-1424
-1648
-960
-112
0
0
0
48
384
1728
288
1680
832
320
96
-208
-432
-704
-944
-1120
-1392
-1632
-992
-128
0
0
0
48
352
1680
304
1712
880
336
112
-192
-432
-704
-944
-1136
-1376
-1632
-1040
-144
0
0
0
32
320
1616
-1344
-1632
-1168
-208
-16
0
0
32
256
1408
352
1824
1024
352
160
-160
-400
-672
-896
-1104
-1312
-1616
-1200
-224
-16
0
0
32
240
1344
352
1872
1072
368
160
-144
-384
-656
-896
-1088
-1296
-1600
-1248
-240
-16
0
0
16
224
1280
352
1904
1120
384
176
-128
-384
-640
-880
-1072
-1280
-1584
-1264
-272
-16
0
0
16
192
1216
336
1936
1152
400
192
-112
-368
-640
-864
-1072
-1280
-1600
-1312
-304
-16
0
0
16
176
1152
336
1968
1200
416
208
-96
-352
-624
-864
-1072
-1264
-1584
-1360
-336
-16
0
0
16
176
1088
320
1984
1232
432
224
-96
-352
-608
-848
-1056
-1248
-1584
-1376
-368
-16
0
0
16
160
1024
288
2016
1264
448
224
-80
-336
-608
-832
-1056
-1248
-1568
-1408
-400
-16
0
0
16
144
960
272
16
1312
480
240
-64
-336
-592
-832
-1056
-1232
-1552
-1440
-448
-16
0
0
16
128
912
256
32
1344
496
256
-48
-320
-576
-816
-1056
-1216
-1536
-1472
-480
-16
0
0
16
128
848
224
80
1392
528
256
-48
-304
-560
-816
-1040
-1216
-1536
-1504
-528
-32
0
0
0
112
800
192
96
1424
560
272
-16
-304
-560
-800
-1040
-1216
-1536
-1520
-560
-32
0
0
0
96
736
144
144
1472
592
288
0
-288
-544
-800
-1040
-1200
-1520
-1552
-608
-32
0
0
0
96
688
112
160
1488
608
288
0
-288
-544
-784
-1024
-1184
-1488
-1552
-656
-32
0
0
0
80
640
80
192
1536
640
288
16
-288
-528
-784
-1024
-1184
-1488
-1568
-688
-48
0
0
0
80
592
16
224
1568
672
288
32
-272
-512
-768
-1008
-1168
-1472
-1584
-736
-48
0
0
0
64
560
2016
240
1600
720
304
48
-256
-512
-768
-1008
-1184
-1456
-1600
-784
-64
0
0
0
64
512
1952
256
1616
752
304
64
-256
-496
-752
-992
-1168
-1456
-1616
-848
-80
0
0
0
64
480
1904
288
1648
784
304
64
-256
-496
-752
-1008
-1168
-1440
-1632
-880
-80
0
0
0
48
448
1840
288
1680
816
304
80
-240
-480
-752
-992
-1168
-1424
-1632
-928
-96
0
0
0
48
400
1776
304
1696
848
304
96
-224
-464
-736
-992
-1152
-1424
-1648
-992
-112
0
0
0
48
384
1712
320
1728
880
320
96
-224
-464
-736
-976
-1152
-1408
-1648
-1024
-128
0
0
0
48
352
1648
336
1760
928
336
112
-208
-448
-720
-976
-1168
-1408
-1664
-1088
-160
0
0
0
32
320
1584
352
1792
960
336
128
-192
-448
-704
-960
-1152
-1392
-1664
-1120
-176
-16
0
0
32
288
1520
368
1824
1008
336
144
-176
-432
-704
-944
-1136
-1376
-1664
-1168
-192
-16
0
0
32
272
1456
368
1856
1040
352
144
-160
-416
-688
-928
-1120
-1360
-1648
-1216
-224
-16
0
0
32
256
1376
368
1872
1072
368
160
-144
-400
-672
-912
-1120
-1344
-1648
-1248
-240
-16
0
0
32
224
1312
352
1888
1120
384
176
-144
-400
-656
-912
-1120
-1328
-1648
-1296
-272
-16
0
0
16
208
1248
368
1936
1152
384
176
-128
-384
-640
-896
-1088
-1312
-1616
-1312
-304
-16
0
0
16
192
1184
368
1968
1200
400
192
-128
-384
-640
-880
-1104
-1312
-1616
-1360
-336
-16
0
0
16
176
1120
352
1984
1216
416
192
-112
-368
-624
-880
-1088
-1280
-1616
-1392
-368
-16
0
0
16
160
1056
336
2016
1264
448
208
-96
-352
-624
-864
-1088
-1280
-1600
-1408
-400
-16
0
0
16
144
992
304
0
1296
464
208
-80
-352
-608
-848
-1088
-1280
-1584
-1456
-432
-16
0
0
16
144
928
288
32
1328
480
224
-80
-336
-592
-848
-1072
-1264
-1568
-1472
-464
-16
0
0
16
128
880
256
64
1360
512
240
-64
-336
-576
-832
-1072
-1232
-1552
-1488
-512
-16
0
0
16
112
816
208
96
1392
528
240
-48
-320
-560
-816
-1072
-1232
-1536
-1520
-560
-32
0
0
0
112
768
160
96
1424
560
240
-32
-320
-560
-800
-1056
-1216
-1536
-1536
-592
-32
0
0
0
96
704
128
128
1472
608
256
-16
-304
-560
-800
-1040
-1216
-1520
-1568
-640
-32
0
0
0
96
656
80
160
1504
624
256
0
-304
-544
-800
-1024
-1184
-1488
-1568
-688
-48
0
0
0
80
608
32
192
1536
656
272
16
-288
-544
-784
-1040
-1200
-1488
-1600
-736
-48
0
0
0
80
576
2032
224
1568
688
272
16
-272
-528
-784
-1024
-1200
-1488
-1632
-800
-64
0
0
0
64
528
1968
224
1584
720
272
32
-272
-528
-784
-1024
-1216
-1488
-1632
-816
-64
0
0
0
64
496
1904
240
1600
736
272
48
-272
-512
-768
-1024
-1216
-1488
-1664
-880
-80
0
0
0
64
448
1840
272
1648
784
272
48
-256
-512
-768
-1008
-1184
-1456
-1664
-928
-96
0
0
0
48
416
1776
272
1664
816
304
80
-240
-496
-752
-992
-1152
-1424
-1648
-960
-112
0
0
0
48
384
1728
320
1712
864
304
80
-224
-480
-736
-976
-1152
-1408
-1648
-1024
-128
0
0
0
48
352
1664
336
1744
912
304
96
-224
-464
-736
-960
-1136
-1392
-1648
-1056
-144
0
0
0
32
336
1600
336
1776
960
336
112
-208
-448
-720
-960
-1136
-1392
-1648
-1104
-160
-16
0
0
32
304
1520
352
1792
976
336
128
-192
-448
-704
-944
-1152
-1376
-1648
-1136
-192
-16
0
0
32
272
1472
368
1824
1024
336
144
-176
-416
-688
-944
-1136
-1360
-1648
-1200
-208
-16
0
0
32
256
1392
352
1856
1056
368
160
-160
-416
-672
-928
-1120
-1328
-1632
-1232
-240
-16
0
0
32
240
1328
368
1888
1104
368
160
-144
-400
-672
-912
-1120
-1344
-1632
-1264
-272
-16
0
0
32
224
1264
352
1904
1136
400
176
-144
-384
-656
-912
-1136
-1360
-1664
-1328
-304
-16
0
0
16
208
1200
336
1920
1168
416
192
-128
-384
-640
-896
-1120
-1328
-1632
-1360
-336
-16
0
0
16
192
1136
320
1952
1200
432
208
-112
-384
-640
-896
-1136
-1328
-1632
-1392
-352
-16
0
0
16
176
1072
304
1984
1232
432
208
-96
-368
-624
-880
-1104
-1296
-1616
-1424
-400
-16
0
0
16
160
1008
304
2032
1280
464
208
-96
-352
-608
-864
-1104
-1280
-1600
-1456
-432
-16
0
0
16
144
944
272
0
1312
496
224
-80
-352
-608
-864
-1104
-1280
-1584
-1472
-464
-16
0
0
16
128
880
240
16
1344
512
240
-64
-336
-592
-848
-1088
-1264
-1584
-1504
-496
-16
0
0
16
128
832
208
64
1376
528
240
-48
-336
-576
-832
-1072
-1232
-1568
-1520
-544
-32
0
0
16
112
768
176
96
1424
560
240
-48
-320
-576
-832
-1056
-1216
-1536
-1552
-608
-32
0
0
0
96
720
128
128
1456
592
256
-16
-304
-560
-816
-1040
-1216
-1520
-1552
-624
-32
0
0
0
96
672
96
160
1488
624
272
-16
-304
-544
-800
-1040
-1216
-1520
-1584
-688
-48
0
0
0
80
624
48
176
1520
656
272
16
-288
-544
-800
-1040
-1216
-1520
-1600
-720
-48
0
0
0
80
576
0
208
1552
688
272
16
-288
-528
-784
-1040
-1200
-1504
-1616
-768
-64
0
0
0
64
544
2000
240
1584
720
272
32
-256
-512
-768
-1008
-1184
-1472
-1632
-832
-64
0
0
0
64
496
1952
288
1632
768
288
48
-256
-496
-768
-1008
-1184
-1472
-1648
-880
-80
0
0
0
64
464
1888
288
1664
800
288
64
-240
-496
-752
-1008
-1184
-1472
-1664
-944
-96
0
0
0
48
432
1824
304
1680
832
304
64
-240
-480
-752
-992
-1168
-1456
-1680
-976
-112
0
0
0
48
400
1760
336
1712
880
304
96
-224
-480
-736
-976
-1152
-1440
-1680
-1024
-128
0
0
0
48
368
1696
352
1760
912
320
96
-208
-464
-720
-960
-1152
-1408
-1680
-1088
-160
0
0
0
48
336
1632
368
1792
960
336
112
-208
-464
-720
-960
-1136
-1392
-1664
-1104
-160
0
0
0
32
304
1568
384
1824
992
336
128
-192
-448
-720
-960
-1152
-1392
-1664
-1168
-192
0
0
0
32
288
1488
384
1840
1024
352
144
-176
-432
-688
-944
-1136
-1376
-1664
-1200
-208
-16
0
0
32
256
1424
384
1872
1072
368
160
-160
-416
-688
-928
-1136
-1360
-1664
-1248
-240
-16
0
0
32
240
1360
400
1904
1104
368
176
-144
-400
-672
-912
-1120
-1344
-1648
-1296
-272
-16
0
0
32
224
1296
400
1936
1152
400
192
-128
-384
-656
-912
-1120
-1328
-1648
-1328
-304
-16
0
0
16
208
1232
400
1984
1200
416
208
-112
-384
-656
-896
-1120
-1312
-1632
-1360
-336
-16
0
0
16
192
1152
384
2000
1232
432
224
-96
-352
-624
-880
-1104
-1296
-1616
-1392
-368
-16
0
0
16
176
1088
368
2032
1280
464
240
-80
-352
-608
-864
-1088
-1280
-1616
-1424
-400
-16
0
0
16
160
1024
352
16
1312
496
256
-64
-320
-592
-848
-1072
-1264
-1584
-1456
-432
-16
0
0
16
144
960
336
64
1360
512
256
-48
-320
-576
-832
-1072
-1248
-1568
-1472
-464
-16
0
0
16
128
912
288
96
1392
544
272
-32
-304
-576
-816
-1056
-1248
-1552
-1504
-512
-16
0
0
16
128
848
272
128
1424
576
288
-16
-288
-544
-800
-1056
-1232
-1552
-1520
-544
-32
0
0
16
112
800
224
144
1456
608
304
0
-288
-544
-800
-1040
-1216
-1536
-1536
-592
-32
0
0
16
112
736
176
176
1488
624
304
16
-272
-544
-800
-1040
-1200
-1520
-1568
-640
-32
0
0
0
96
688
128
208
1536
656
304
16
-272
-528
-784
-1040
-1200
-1520
-1584
-688
-48
0
0
0
80
640
96
256
1568
688
304
32
-272
-528
-784
-1024
-1200
-1504
-1600
-736
-48
0
0
0
80
592
32
272
1600
720
304
48
-272
-528
-784
-1040
-1200
-1504
-1616
-784
-64
0
0
0
80
560
2016
288
1632
768
304
64
-256
-512
-784
-1024
-1216
-1504
-1648
-832
-80
0
0
0
64
512
1968
304
1664
784
304
64
-256
-496
-768
-1040
-1216
-1504
-1664
-896
-80
0
0
0
64
480
1904
336
1696
816
304
80
-240
-496
-752
-1008
-1200
-1488
-1680
-944
-96
0
0
0
64
432
1840
368
1728
864
320
96
-240
-496
-768
-1024
-1200
-1472
-1696
-1008
-112
0
0
0
48
400
1776
384
1760
896
320
96
-224
-480
-752
-1008
-1200
-1472
-1696
-1056
-128
0
0
0
48
368
1712
400
1792
944
336
112
-224
-464
-736
-1008
-1200
-1472
-1712
-1104
-160
0
0
0
48
352
1648
400
1808
976
336
112
-208
-448
-720
-976
-1168
-1440
-1712
-1152
-176
-16
0
0
32
320
1568
400
1840
1024
352
144
-192
-448
-720
-976
-1168
-1424
-1696
-1184
-192
-16
0
0
32
288
1504
432
1888
1056
352
144
-176
-432
-704
-960
-1152
-1408
-1696
-1232
-224
-16
0
0
32
272
1424
416
1904
1088
368
160
-160
-416
-688
-928
-1136
-1392
-1680
-1280
-240
-16
0
0
32
240
1360
400
1920
1120
384
176
-144
-416
-672
-928
-1136
-1376
-1680
-1312
-272
-16
0
0
32
224
1296
400
1952
1168
416
192
-128
-400
-656
-912
-1120
-1360
-1664
-1360
-320
-16
0
0
16
208
1216
416
2000
1216
432
208
-112
-384
-656
-896
-1120
-1328
-1648
-1376
-336
-16
0
0
16
192
1152
400
2032
1264
448
224
-96
-368
-640
-896
-1120
-1312
-1632
-1424
-384
-16
0
0
16
176
1088
384
16
1296
464
224
-96
-368
-640
-880
-1104
-1296
-1616
-1440
-416
-16
0
0
16
160
1024
368
48
1328
496
240
-80
-352
-624
-880
-1120
-1312
-1632
-1488
-448
-16
0
0
16
144
960
336
80
1360
512
240
-64
-352
-608
-864
-1104
-1296
-1616
-1536
-496
-16
0
0
16
144
912
304
112
1408
528
240
-64
-352
-608
-864
-1088
-1280
-1600
-1536
-528
-32
0
0
16
128
848
272
160
1456
560
256
-32
-336
-592
-848
-1088
-1248
-1568
-1568
-576
-32
0
0
16
112
784
256
208
1488
592
256
-32
-320
-592
-848
-1088
-1248
-1568
-1584
-624
-32
0
0
16
112
736
192
224
1520
624
272
-16
-320
-576
-832
-1088
-1264
-1584
-1616
-672
-48
0
0
0
96
688
144
240
1536
656
272
-16
-304
-560
-832
-1088
-1264
-1568
-1632
-720
-48
0
0
0
96
640
80
256
1568
672
272
0
-288
-560
-816
-1072
-1248
-1552
-1648
-752
-48
0
0
0
80
592
16
272
1600
704
288
16
-288
-544
-816
-1072
-1232
-1536
-1664
-816
-64
0
0
0
80
544
2016
304
1632
736
272
32
-288
-528
-800
-1056
-1232
-1520
-1664
-864
-80
0
0
0
64
512
1952
320
1648
784
288
48
-272
-512
-800
-1056
-1232
-1520
-1696
-912
-96
0
0
0
64
464
1872
320
1664
800
288
48
0
0
48
368
1696
400
1792
944
304
96
-224
-480
-752
-992
-1184
-1440
-1696
-1120
-160
0
0
0
48
336
1616
416
1824
992
320
112
-208
-464
-736
-992
-1168
-1424
-1696
-1168
-192
0
0
0
32
320
1552
416
1856
1024
336
128
-192
-448
-720
-976
-1168
-1424
-1696
-1216
-208
-16
0
0
32
288
1488
432
1888
1072
352
144
-176
-432
-704
-960
-1168
-1408
-1696
-1248
-240
-16
0
0
32
272
1408
432
1920
1120
368
160
-176
-432
-704
-944
-1152
-1376
-1680
-1296
-256
-16
0
0
32
240
1344
432
1968
1152
384
160
-160
-416
-672
-928
-1136
-1360
-1664
-1328
-288
-16
0
0
32
224
1280
432
2000
1200
416
192
-144
-416
-672
-912
-1136
-1360
-1664
-1376
-320
-16
0
0
16
208
1200
432
2032
1248
432
192
-128
-400
-656
-912
-1120
-1328
-1664
-1424
-368
-16
0
0
16
192
1136
400
16
1280
464
208
-112
-384
-640
-896
-1136
-1344
-1664
-1456
-400
-16
0
0
16
176
1072
384
48
1328
480
224
-96
-384
-640
-896
-1120
-1312
-1648
-1488
-448
-16
0
0
16
160
1008
384
96
1376
512
240
-80
-368
-640
-880
-1104
-1296
-1632
-1520
-496
-16
0
0
16
144
944
352
128
1408
528
240
-64
-368
-624
-880
-1104
-1280
-1616
-1552
-528
-16
0
0
16
144
880
304
160
1440
560
240
-48
-336
-608
-864
-1104
-1280
-1616
-1584
-576
-32
0
0
16
128
832
272
192
1488
592
256
-48
-336
-608
-864
-1104
-1280
-1616
-1600
-624
-32
0
0
16
112
768
240
224
1520
624
272
-16
-320
-592
-848
-1104
-1264
-1600
-1632
-672
-32
0
0
16
112
720
192
256
1552
656
272
-16
-320
-576
-848
-1088
-1264
-1584
-1648
-720
-48
0
0
0
96
672
144
272
1584
688
272
0
-304
-560
-832
-1088
-1264
-1584
-1664
-768
-48
0
0
0
96
624
80
304
1616
720
272
16
-288
-560
-832
-1088
-1248
-1568
-1696
-832
-64
0
0
0
80
576
16
320
1648
752
272
32
-288
-544
-816
-1088
-1264
-1568
-1712
-864
-80
0
0
0
80
528
2016
352
1680
800
288
48
-272
-528
-816
-1072
-1248
-1552
-1728
-928
-96
0
0
0
64
496
1952
384
1712
832
288
48
-256
-512
-800
-1056
-1216
-1520
-1712
-976
-112
0
0
0
64
464
1888
400
1744
864
304
64
-256
-512
-784
-1040
-1232
-1504
-1728
-1024
-112
0
0
0
64
416
1808
400
1760
896
304
80
-240
-480
-768
-1024
-1216
-1488
-1728
-1072
-144
0
0
0
48
384
1744
416
1808
944
320
96
-224
-480
-752
-1008
-1200
-1472
-1728
-1120
-160
0
0
0
48
352
1664
432
1824
992
336
112
-208
-464
-736
-1008
-1200
-1456
-1712
-1168
-176
0
0
0
48
336
1600
432
1856
1024
336
128
-192
-464
-720
-992
-1184
-1440
-1712
-1200
-208
-16
0
0
32
304
1536
448
1904
1072
352
144
-192
-448
-720
-976
-1184
-1424
-1712
-1264
-240
-16
0
0
32
288
1456
464
1936
1104
368
160
-176
-432
-688
-960
-1184
-1408
-1712
-1296
-272
-16
0
0
32
256
1392
464
1968
1152
400
176
-160
-416
-688
-944
-1168
-1392
-1712
-1344
-288
-16
0
0
32
240
1312
448
2000
1216
416
192
-144
-416
-688
-944
-1152
-1376
-1696
-1392
-336
-16
0
0
32
224
1248
448
0
1248
432
192
-128
-400
-672
-928
-1152
-1360
-1680
-1424
-368
-16
0
0
16
208
1168
448
32
1296
464
208
-112
-400
-656
-912
-1152
-1360
-1680
-1472
-400
-16
0
0
16
192
1104
416
64
1328
480
224
-96
-384
-656
-912
-1136
-1344
-1664
-1504
-448
-16
0
0
16
176
1040
400
112
1376
512
224
-80
-368
-640
-896
-1136
-1328
-1664
-1536
-480
-16
0
0
16
160
976
368
144
1424
544
240
-64
-368
-624
-896
-1136
-1328
-1664
-1568
-528
-16
0
0
16
144
912
352
176
1456
560
240
-48
-352
-624
-880
-1120
-1296
-1648
-1600
-576
-32
0
0
16
128
864
320
224
1504
592
256
-32
-336
-608
-864
-1120
-1296
-1632
-1632
-624
-32
0
0
16
128
800
272
256
1552
640
256
-32
-336
-608
-864
-1136
-1312
-1632
-1664
-688
-48
0
0
16
112
752
224
288
1568
672
272
-16
-320
-592
-848
-1120
-1296
-1632
-1696
-736
-48
0
0
16
96
688
176
320
1616
720
288
0
-320
-576
-848
-1104
-1264
-1600
-1696
-800
-64
0
0
0
96
640
128
352
1664
752
288
16
-304
-576
-848
-1104
-1280
-1584
-1712
-848
-64
0
0
0
80
592
96
400
1712
800
288
32
-288
-560
-848
-1088
-1264
-1568
-1728
-896
-80
0
0
0
80
560
16
432
1744
832
304
48
-272
-544
-832
-1088
-1248
-1552
-1728
-960
-96
0
0
0
80
512
2000
448
1760
880
320
64
-256
-528
-800
-1072
-1264
-1552
-1744
-1008
-112
0
0
0
64
480
1936
480
1808
928
320
96
-256
-528
-800
-1072
-1248
-1536
-1760
-1056
-128
0
0
0
64
432
1856
496
1840
960
336
96
-240
-512
-784
-1056
-1232
-1504
-1744
-1088
-144
0
0
0
48
400
1792
512
1872
1008
352
112
-224
-496
-784
-1040
-1232
-1504
-1744
-1152
-176
0
0
0
48
368
1712
512
1904
1040
368
128
-208
-480
-768
-1024
-1232
-1488
-1760
-1216
-192
0
0
0
48
336
1632
528
1936
1088
368
144
-192
-464
-752
-1024
-1232
-1488
-1760
-1248
-224
-16
0
0
48
320
1552
528
1968
1136
384
160
-176
-464
-736
-1008
-1232
-1472
-1760
-1312
-256
-16
0
0
32
288
1488
528
2000
1168
400
176
-160
-448
-720
-1008
-1216
-1456
-1760
-1360
-272
-16
0
0
32
272
1408
512
2016
1200
416
176
-160
-432
-720
-992
-1232
-1472
-1776
-1408
-320
-16
0
0
32
240
1328
496
0
1232
432
192
-144
-416
-688
-960
-1200
-1424
-1744
-1440
-352
-16
0
0
32
224
1248
480
32
1280
464
208
-128
-400
-672
-944
-1184
-1408
-1728
-1472
-384
-16
0
0
32
208
1184
464
64
1312
480
240
-96
-384
-672
-944
-1200
-1408
-1744
-1520
-432
-16
0
0
16
192
1120
448
112
1360
512
240
-80
-384
-656
-928
-1184
-1392
-1728
-1552
-480
-16
0
0
16
176
1056
432
128
1392
528
256
-64
-368
-640
-896
-1168
-1360
-1696
-1584
-512
-16
0
0
16
160
976
400
176
1440
560
272
-48
-352
-624
-896
-1152
-1360
-1696
-1616
-576
-32
0
0
16
144
912
368
224
1488
592
272
-32
-336
-608
-864
-1136
-1328
-1648
-1616
-592
-32
0
0
16
144
864
336
256
1536
624
288
-16
-320
-592
-864
-1120
-1296
-1632
-1632
-640
-32
0
0
16
128
800
288
272
1552
656
288
0
-304
-576
-848
-1088
-1264
-1600
-1648
-688
-48
0
0
16
112
752
240
320
1616
704
304
16
-304
-560
-832
-1088
-1264
-1584
-1664
-736
-48
0
0
16
112
688
192
368
1648
720
304
32
-288
-544
-832
-1088
-1264
-1584
-1696
-800
-64
0
0
16
96
640
128
384
1680
768
304
32
-288
-544
-816
-1072
-1264
-1568
-1712
-848
-64
0
0
0
96
592
64
416
1712
800
304
48
-272
-544
-816
-1072
-1248
-1552
-1712
-912
-80
0
0
0
80
544
0
432
1744
848
320
64
-272
-528
-800
-1072
-1264
-1552
-1744
-960
-96
0
0
0
80
512
1984
448
1792
896
320
80
-256
-528
-800
-1056
-1232
-1536
-1728
-1008
-112
0
0
0
64
464
1904
464
1808
928
336
96
-240
-512
-800
-1056
-1232
-1520
-1744
-1072
-128
0
0
0
64
432
1840
496
1856
960
336
112
-240
-496
-784
-1040
-1232
-1504
-1760
-1120
-160
0
0
0
64
400
1760
496
1872
1008
352
128
-224
-496
-784
-1040
-1248
-1504
-1760
-1184
-176
0
0
0
48
368
1680
512
1904
1056
368
144
-208
-480
-768
-1024
-1232
-1472
-1744
-1216
-208
-16
0
0
48
336
1616
512
1936
1104
384
160
-192
-464
-752
-1024
-1216
-1472
-1744
-1264
-224
-16
0
0
48
320
1536
512
1968
1136
384
160
-176
-448
-736
-992
-1200
-1440
-1744
-1328
-272
-16
0
0
32
288
1456
528
2016
1184
416
176
-160
-448
-736
-992
-1200
-1440
-1744
-1360
-288
-16
0
0
32
272
1376
512
2032
1232
432
208
-144
-416
-704
-976
-1200
-1424
-1744
-1408
-320
-16
0
0
32
240
1312
512
16
1264
464
208
-128
-400
-688
-960
-1168
-1408
-1728
-1440
-368
-16
0
0
32
224
1232
496
64
1312
480
240
-96
-400
-672
-944
-1184
-1392
-1712
-1488
-400
-16
0
0
32
208
1168
496
96
1344
496
240
-96
-368
-656
-928
-1152
-1360
-1696
-1520
-448
-16
0
0
16
192
1104
480
144
1392
512
240
-80
-368
-640
-912
-1152
-1360
-1696
-1552
-480
-16
0
0
16
176
1024
432
160
1424
544
256
-64
-352
-624
-896
-1168
-1360
-1680
-1584
-528
-16
0
0
16
160
960
400
192
1456
576
272
-32
-336
-608
-880
-1152
-1344
-1664
-1600
-576
-32
0
0
16
144
896
352
224
1488
592
288
-32
-336
-608
-880
-1136
-1328
-1664
-1632
-624
-32
0
0
16
144
848
336
272
1536
624
272
-16
-320
-592
-864
-1120
-1312
-1648
-1664
-672
-32
0
0
16
128
784
288
304
1568
656
288
-16
-320
-592
-848
-1120
-1312
-1616
-1664
-720
-48
0
0
16
112
736
224
336
1616
704
288
16
-304
-576
-848
-1120
-1296
-1616
-1696
-784
-64
0
0
16
112
672
176
368
1632
720
288
16
-304
-560
-832
-1104
-1280
-1600
-1712
-832
-64
0
0
16
96
624
112
400
1680
768
288
32
-288
-544
-816
-1088
-1280
-1584
-1728
-880
-80
0
0
0
96
576
48
416
1712
800
304
48
-272
-544
-816
-1072
-1264
-1568
-1744
-944
-96
0
0
0
80
544
2032
448
1760
848
320
64
-272
-544
-816
-1072
-1264
-1568
-1760
-992
-112
0
0
0
80
496
1968
480
1792
896
320
80
-256
-528
-800
-1072
-1264
-1552
-1760
-1056
-128
0
0
0
64
464
1888
496
1840
928
320
96
-240
-512
-800
-1056
-1248
-1536
-1760
-1104
-144
0
0
0
64
432
1824
528
1888
992
336
96
-240
-512
-784
-1040
-1248
-1520
-1776
-1152
-176
0
0
0
64
384
1744
528
1904
1024
352
128
-224
-496
-768
-1040
-1232
-1488
-1760
-1200
-192
0
0
0
48
368
1664
544
1952
1072
352
128
-208
-480
-752
-1024
-1216
-1472
-1760
-1248
-224
-16
0
0
48
336
1600
560
1984
1120
368
144
-192
-464
-752
-1008
-1216
-1456
-1744
-1296
-240
-16
0
0
48
304
1520
560
2016
1168
400
160
-176
-448
-736
-992
-1216
-1456
-1760
-1344
-272
-16
0
0
32
288
1440
544
0
1216
416
192
-160
-448
-720
-992
-1216
-1440
-1760
-1392
-304
-16
0
0
32
256
1360
528
16
1248
448
208
-128
-416
-704
-976
-1200
-1424
-1744
-1440
-352
-16
0
0
32
240
1296
528
80
1312
464
224
-128
-416
-704
-960
-1200
-1408
-1728
-1456
-384
-16
0
0
32
224
1216
512
112
1344
496
240
-96
-400
-688
-944
-1184
-1392
-1728
-1504
-416
-16
0
0
32
208
1136
496
144
1392
512
240
-80
-384
-672
-944
-1168
-1376
-1696
-1536
-464
-16
0
0
16
192
1072
464
176
1424
544
272
-64
-368
-656
-928
-1168
-1360
-1696
-1568
-512
-16
0
0
16
176
1008
448
208
1472
576
272
-48
-352
-640
-912
-1152
-1344
-1680
-1600
-544
-32
0
0
16
160
944
400
240
1504
592
272
-32
-352
-624
-896
-1152
-1344
-1680
-1632
-592
-32
0
0
16
144
880
352
272
1552
640
288
-16
-336
-608
-880
-1136
-1328
-1648
-1648
-640
-32
0
0
16
128
816
320
304
1584
656
304
0
-320
-592
-864
-1120
-1312
-1648
-1680
-704
-48
0
0
16
128
768
256
336
1616
688
304
16
-304
-576
-848
-1120
-1312
-1632
-1696
-752
-48
0
0
16
112
704
208
352
1648
720
304
32
-288
-560
-848
-1104
-1296
-1616
-1728
-816
-64
0
0
16
96
656
144
384
1680
768
320
48
-288
-544
-832
-1104
-1296
-1616
-1728
-848
-80
0
0
16
96
608
80
400
1696
800
336
64
-272
-544
-816
-1104
-1296
-1616
-1760
-928
-96
0
0
0
80
560
32
448
1744
832
336
80
-272
-528
-816
-1072
-1264
-1584
-1776
-992
-112
0
0
0
80
528
2000
480
1776
880
336
96
-256
-512
-800
-1072
-1264
-1568
-1776
-1040
-128
0
0
0
80
480
1936
496
1808
912
336
96
-240
-512
-800
-1056
-1264
-1552
-1792
-1104
-144
0
0
0
64
448
1872
528
1840
960
336
112
-240
-496
-784
-1040
-1264
-1552
-1792
-1152
-160
0
0
0
64
416
1792
544
1888
1008
352
128
-224
-496
-768
-1040
-1248
560
2000
1136
384
160
-192
-448
-736
-992
-1184
-1440
-1744
-1328
-272
-16
0
0
48
288
1472
576
0
1200
400
176
-176
-448
-720
-976
-1200
-1440
-1760
-1376
-304
-16
0
0
32
272
1408
576
32
1248
432
192
-160
-432
-720
-976
-1200
-1424
-1744
-1424
-336
-16
0
0
32
256
1328
560
80
1280
448
208
-144
-432
-704
-960
-1184
-1392
-1728
-1456
-368
-16
0
0
32
224
1248
544
112
1344
480
224
-112
-400
-688
-960
-1184
-1392
-1712
-1488
-416
-16
0
0
32
208
1184
528
144
1376
496
240
-96
-400
-672
-944
-1168
-1376
-1696
-1520
-464
-16
0
0
32
192
1104
496
192
1424
528
256
-80
-384
-672
-928
-1184
-1376
-1696
-1552
-480
-16
0
0
16
176
1040
448
192
1456
560
272
-48
-368
-656
-912
-1168
-1360
-1680
-1584
-544
-16
0
0
16
160
976
432
256
1488
576
288
-32
-352
-624
-896
-1136
-1328
-1664
-1600
-576
-32
0
0
16
144
912
384
288
1536
624
304
-16
-336
-624
-880
-1136
-1328
-1648
-1616
-624
-32
0
0
16
144
848
336
320
1584
656
304
16
-320
-592
-880
-1136
-1312
-1632
-1648
-672
-48
0
0
16
128
784
288
352
1616
688
320
16
-304
-576
-864
-1136
-1312
-1632
-1664
-720
-48
0
0
16
112
736
224
368
1648
736
336
48
-288
-560
-848
-1120
-1312
-1616
-1696
-784
-64
0
0
16
112
672
192
416
1696
768
336
64
-272
-560
-832
-1104
-1312
-1616
-1728
-832
-64
0
0
16
96
624
112
416
1712
800
336
80
-272
-528
-816
-1088
-1296
-1584
-1728
-880
-80
0
0
16
96
576
48
448
1744
848
352
96
-256
-512
-800
-1072
-1264
-1568
-1744
-944
-96
0
0
0
80
544
2032
480
1792
896
352
112
-240
-512
-800
-1056
-1264
-1552
-1744
-992
-112
0
0
0
80
496
1968
512
1840
944
368
144
-224
-496
-768
-1056
-1248
-1536
-1744
-1056
-128
0
0
0
64
464
1888
512
1856
976
368
144
-208
-480
-768
-1024
-1232
-1504
-1744
-1104
-144
0
0
0
64
416
1824
560
1920
1024
384
176
-192
-480
-752
-1024
-1232
-1504
-1760
-1168
-176
0
0
0
64
384
1744
560
1952
1072
400
192
-176
-448
-736
-1008
-1216
-1472
-1744
-1216
-192
0
0
0
48
368
1664
576
1984
1120
416
192
-160
-448
-736
-992
-1216
-1472
-1760
-1248
-224
-16
0
0
48
336
1584
576
2000
1152
432
208
-160
-432
-720
-992
-1216
-1472
-1776
-1328
-256
-16
0
0
48
304
1504
592
0
1200
432
208
-144
-432
-736
-992
-1200
-1440
-1760
-1360
-288
-16
0
0
48
288
1424
592
32
1232
432
208
-144
-432
-720
-992
-1216
-1440
-1760
-1424
-336
-16
0
0
32
256
1360
576
80
1280
448
208
-144
-432
-704
-976
-1200
-1440
-1760
-1456
-368
-16
0
0
32
240
1280
544
96
1312
448
224
-128
-416
-704
-960
-1200
-1424
-1744
-1504
-416
-16
0
0
32
224
1200
528
144
1360
480
224
-112
-416
-688
-960
-1216
-1424
-1776
-1568
-464
-16
0
0
32
208
1136
528
176
1408
496
224
-112
-416
-688
-960
-1184
-1392
-1744
-1600
-496
-16
0
0
32
192
1056
480
208
1456
528
240
-80
-384
-672
-944
-1200
-1392
-1744
-1632
-544
-16
0
0
16
176
992
464
256
1488
544
256
-64
-368
-656
-928
-1184
-1376
-1728
-1664
-608
-32
0
0
16
160
928
432
320
1552
592
272
-32
-352
-624
-912
-1168
-1376
-1712
-1680
-640
-32
0
0
16
144
864
368
336
1584
640
288
0
-336
-608
-896
-1152
-1328
-1680
-1696
-688
-48
0
0
16
128
800
336
368
1616
672
304
0
-320
-592
-864
-1136
-1328
-1664
-1712
-752
-48
0
0
16
128
752
288
416
1664
704
304
16
-304
-592
-864
-1136
-1328
-1648
-1728
-800
-64
0
0
16
112
688
224
448
1712
752
320
48
-304
-576
-848
-1120
-1312
-1616
-1744
-848
-64
0
0
16
96
640
160
464
1728
784
320
64
-272
-544
-832
-1104
-1296
-1616
-1744
-896
-80
0
0
16
96
592
80
496
1776
848
336
80
-272
-544
-832
-1088
-1280
-1584
-1744
-960
-96
0
0
0
80
544
16
512
1808
880
336
96
-256
-528
-816
-1072
-1280
-1568
-1760
-1008
-112
0
0
0
80
512
1984
544
1856
928
352
112
-240
-512
-800
-1072
-1264
-1552
-1760
-1056
-128
0
0
0
80
464
1920
560
1888
976
352
128
-224
-512
-800
-1056
-1264
-1536
-1776
-1104
-144
0
0
0
64
432
1840
576
1920
1008
368
144
-224
-496
-784
-1056
-1264
-1536
-1776
-1152
-176
0
0
0
64
400
1760
576
1952
1056
384
160
-208
-480
-768
-1040
-1264
-1536
-1792
-1216
-192
0
0
0
48
368
1680
592
1984
1104
384
176
-192
-480
-768
-1024
-1248
-1504
-1776
-1264
-224
-16
0
0
48
336
1600
592
2032
1152
400
192
-176
-464
-752
-1024
-1248
-1488
-1776
-1312
-256
-16
0
0
48
320
1520
592
16
1200
416
192
-176
-448
-736
-1008
-1232
-1472
-1776
-1376
-288
-16
0
0
48
288
1440
592
48
1248
416
208
-160
-448
-736
-1008
-1232
-1472
-1776
-1408
-320
-16
0
0
32
272
1360
576
80
1280
448
224
-144
-432
-720
-992
-1232
-1456
-1776
-1456
-368
-16
0
0
32
240
1280
560
112
1312
448
224
-128
-432
-720
-976
-1216
-1424
-1760
-1504
-400
-16
0
0
32
224
1216
544
144
1376
480
224
-112
-416
-704
-976
-1216
-1424
-1760
-1536
-448
-16
0
0
32
208
1136
512
192
1408
496
224
-96
-416
-688
-960
-1216
-1424
-1760
-1600
-496
-16
0
0
32
192
1072
496
224
1456
528
240
-96
-400
-688
-960
-1216
-1424
-1760
-1632
-544
-16
0
0
16
176
992
448
240
1488
560
256
-64
-384
-672
-944
-1216
-1424
-1760
-1664
-592
-32
0
0
16
160
928
400
288
1520
592
256
-64
-384
-656
-928
-1200
-1392
-1728
-1696
-656
-32
0
0
16
144
864
368
320
1568
624
272
-32
-368
-640
-912
-1184
-1376
-1712
-1712
-688
-48
0
0
16
128
816
320
368
1616
656
272
-16
-352
-624
-896
-1168
-1360
-1680
-1744
-752
-48
0
0
16
128
752
272
416
1664
704
288
0
-336
-624
-896
-1168
-1360
-1664
-1744
-800
-64
0
0
16
112
704
208
432
1696
752
304
32
-320
-592
-880
-1152
-1360
-1664
-1776
-864
-64
0
0
16
112
640
144
448
1728
784
304
48
-304
-576
-864
-1120
-1312
-1632
-1776
-912
-80
0
0
16
96
592
80
496
1776
848
320
64
-288
-560
-848
-1120
-1296
-1616
-1792
-976
-96
0
0
16
96
560
16
528
1824
880
336
96
-272
-544
-832
-1088
-1280
-1568
-1776
-1040
-112
0
0
0
80
512
2000
560
1856
928
352
112
-240
-528
-816
-1088
-1280
-1568
-1792
-1072
-128
0
0
0
80
480
1920
576
1888
976
352
128
-224
-512
-800
-1072
-1280
-1568
-1808
-1152
-160
0
0
0
64
432
1840
592
1920
1024
368
160
-208
-496
-800
-1072
-1280
-1552
-1808
-1200
-176
0
0
0
64
400
1776
608
1968
1072
384
160
-208
-480
-784
-1056
-1264
-1536
-1808
-1248
-208
-16
0
0
64
368
1696
624
2000
1120
384
176
-192
-464
-752
-1040
-1248
-1520
-1808
-1312
-240
-16
0
0
48
336
1616
640
0
1168
400
192
-176
-464
-752
-1024
-1248
-1488
-1792
-1344
-256
-16
0
0
48
320
1536
640
48
1216
416
208
-160
-448
-752
-1008
-1248
-1488
-1792
-1408
-304
-16
0
0
48
288
1440
624
80
1264
432
208
-144
-448
-720
-992
-1232
-1472
-1792
-1440
-336
-16
0
0
32
272
1360
608
96
1296
448
224
-128
-432
-720
-992
-1232
-1456
-1792
-1488
-384
-16
0
0
32
240
1296
608
144
1344
464
240
-112
-416
-704
-976
-1216
-1440
-1760
-1520
-416
-16
0
0
32
224
1216
576
192
1392
496
240
-96
-416
-704
-960
-1200
-1424
-1760
-1552
-464
-16
0
0
32
208
1136
544
224
1440
528
256
-80
-400
-688
-960
-1216
-1424
-1744
-1600
-512
-16
0
0
32
192
1072
528
256
1472
544
256
-64
-384
-672
-944
-1200
-1408
-1744
-1648
-560
-32
0
0
16
176
992
480
304
1520
576
272
-64
-384
-672
-944
-1200
-1392
-1728
-1664
-608
-32
0
0
16
160
928
432
336
1568
624
288
-32
-368
-656
-928
-1184
-1376
-1712
-1696
-672
-32
0
0
16
144
864
384
368
1600
640
288
-16
-352
-624
-912
-1168
-1360
-1680
-1696
-704
-48
0
0
16
144
800
336
400
1648
688
288
0
-336
-624
-896
-1168
-1360
-1680
-1728
-768
-48
0
0
16
128
752
272
432
1680
736
304
32
-320
-608
-880
-1152
-1328
-1648
-1728
-800
-64
0
0
16
112
704
224
464
1728
768
320
48
-304
-576
-864
-1136
-1328
-1648
-1760
-880
-80
0
0
16
112
640
144
496
1760
816
320
64
-288
-560
-864
-1120
-1312
-1632
-1776
-928
-96
0
0
16
96
592
80
528
1792
848
320
80
-272
-560
-848
-1120
-1312
-1616
-1776
-976
-96
0
0
16
96
544
16
560
1856
912
336
96
-272
-544
-832
-1120
-1328
-1616
-1808
-1040
-112
0
0
0
80
512
1984
576
1872
944
336
112
-256
-528
-832
-1104
-1296
-1600
-1808
-1104
-144
0
0
0
80
464
1920
592
1904
992
352
128
-240
-512
-816
-1088
-1312
-1584
-1824
-1152
-160
0
0
0
64
432
1840
608
1936
1024
352
144
-224
-512
-800
-1088
-1296
-1568
-1808
-1216
-192
0
0
0
64
400
1760
624
2000
1088
368
144
-224
-496
-784
-1056
-1280
-1552
-1824
-1264
-224
-16
0
0
64
368
1680
640
0
1136
368
160
-208
-496
-784
-1056
-1264
-1520
-1808
-1328
-256
-16
0
0
48
336
1600
624
16
1184
384
176
-192
-480
-768
-1040
-1280
-1504
-1808
-1344
-272
-16
0
0
48
320
1504
624
48
1232
416
192
-176
-464
-752
-1024
-1248
-1488
-1808
-1408
-320
-16
0
0
48
288
1424
624
80
1280
432
192
-160
-464
-736
-1008
-1248
-1472
-1808
-1472
-352
-16
0
0
32
272
1344
624
128
1328
464
208
-144
-448
-720
-992
-1232
-1456
-1792
-1520
-400
-16
0
0
32
240
1280
608
176
1392
480
224
-128
-448
-720
-992
-1232
-1456
-1776
-1552
-432
-16
0
0
32
224
1200
576
208
1424
512
224
-112
-416
-704
-976
-1232
-1440
-1776
-1584
-480
-16
0
0
32
208
1120
544
240
1472
528
240
-96
-416
-688
-960
-1232
-1424
-1760
-1632
-528
-16
0
0
32
192
1056
496
256
1488
560
256
-64
-400
-672
-944
-1200
-1408
-1744
-1664
-576
-32
0
0
16
176
976
480
320
1552
608
256
-64
-384
-672
-944
-1200
-1392
-1728
-1664
-624
-32
0
0
16
160
912
432
352
1600
640
272
-32
-368
-656
-928
-1200
-1376
-1712
-1696
-688
-32
0
0
16
144
848
384
400
1632
672
272
-16
-352
-640
-928
-1200
-1376
-1712
-1728
-736
-48
0
0
16
128
800
336
432
1680
720
288
0
-336
-640
-912
-1184
-1376
-1712
-1760
-800
-64
0
0
16
128
736
272
464
1728
768
304
32
-320
-608
-912
-1184
-1360
-1696
-1792
-864
-64
0
0
16
112
688
208
496
1760
800
304
48
-304
-592
-896
-1168
-1360
-1696
-1808
-912
-80
0
0
16
112
640
144
544
1808
864
336
64
-288
-576
-880
-1168
-1360
-1680
-1840
-992
-96
0
0
16
96
592
96
608
1872
912
336
80
-272
-560
-864
-1152
-1344
-1648
-1840
-1040
-112
0
0
16
96
544
16
608
1904
960
352
112
-256
-544
-848
-1152
-1360
-1664
-1856
-1104
-144
0
0
0
80
496
1984
640
1936
992
352
128
-240
-528
-832
-1136
-1360
-1648
-1888
-1184
-160
0
0
0
80
464
1904
672
1984
1056
368
128
-224
-528
-832
-1104
-1328
-1616
-1872
-1232
-192
0
0
0
64
432
1824
704
2032
1120
384
160
-208
-512
-816
-1088
-1312
-1600
-1872
-1296
-224
0
0
0
64
384
1760
736
48
1184
400
160
-192
-496
-800
-1088
-1328
-1584
-1872
-1344
-240
-16
0
0
64
368
1664
736
80
1216
432
208
-160
-464
-768
-1072
-1328
-1600
-1904
-1424
-288
-16
0
0
48
336
1584
720
112
1264
464
224
-144
-448
-752
-1056
-1312
-1568
-1904
-1488
-336
-16
0
0
48
304
1488
704
128
1296
464
224
-128
-432
-752
-1040
-1296
-1552
-1888
-1520
-368
-16
0
0
48
288
1408
688
176
1344
496
240
-112
-432
-736
-1024
-1296
-1536
-1872
-1584
-416
-16
0
0
32
256
1328
688
224
1392
512
240
-112
-416
-720
-1008
-1280
-1520
-1872
-1632
-464
-16
0
0
32
240
1248
656
272
1456
544
256
-96
-416
-720
-1008
-1296
-1520
-1856
-1664
-512
-16
-48
-384
-672
-960
-1248
-1456
-1808
-1760
-672
-32
0
0
16
176
960
528
464
1664
672
288
-32
-368
-656
-960
-1232
-1424
-1776
-1776
-720
-48
0
0
16
160
896
480
528
1712
704
288
-16
-368
-656
-960
-1232
-1424
-1760
-1792
-784
-48
0
0
16
144
832
432
560
1760
752
304
0
-352
-640
-944
-1216
-1408
-1744
-1824
-848
-64
0
0
16
128
768
352
576
1792
800
304
16
-336
-624
-912
-1184
-1376
-1712
-1824
-896
-80
0
0
16
128
704
272
608
1840
864
320
48
-320
-608
-912
-1184
-1392
-1712
-1856
-976
-96
0
0
16
112
656
224
656
1888
896
336
64
-304
-592
-896
-1168
-1376
-1696
-1856
-1024
-112
0
0
16
96
608
144
688
1936
960
352
80
-288
-592
-880
-1168
-1376
-1680
-1872
-1088
-128
0
0
16
96
560
64
704
1968
1008
368
112
-272
-576
-864
-1136
-1344
-1648
-1888
-1168
-160
0
0
16
80
512
2032
736
2032
1072
384
112
-256
-560
-864
-1136
-1376
-1664
-1888
-1200
-176
0
0
0
80
480
1936
752
16
1120
400
144
-240
-544
-848
-1120
-1344
-1616
-1888
-1264
-208
0
0
0
80
432
1856
768
64
1168
416
160
-224
-528
-832
-1120
-1344
-1616
-1888
-1328
-240
-16
0
0
64
400
1760
784
112
1232
432
176
-208
-512
-832
-1104
-1344
-1600
-1888
-1376
-272
-16
0
0
64
368
1680
768
144
1280
464
208
-176
-496
-816
-1104
-1344
-1600
-1904
-1456
-304
-16
0
0
48
336
1584
784
192
1328
464
208
-176
-480
-800
-1088
-1328
-1584
-1888
-1488
-336
-16
0
0
48
320
1504
752
224
1392
496
224
-144
-480
-784
-1072
-1328
-1568
-1888
-1536
-384
-16
0
0
48
288
1408
752
256
1424
528
240
-128
-448
-768
-1056
-1312
-1552
-1872
-1584
-432
-16
0
0
48
272
1328
736
304
1472
544
256
-112
-448
-752
-1056
-1328
-1552
-1872
-1648
-480
-16
0
0
32
240
1248
704
352
1520
576
272
-80
-432
-736
-1040
-1312
-1520
-1856
-1680
-544
-16
0
0
32
224
1168
656
368
1552
608
272
-80
-400
-720
-1024
-1296
-1520
-1872
-1728
-592
-32
0
0
32
208
1088
624
432
1616
640
288
-64
-400
-720
-1008
-1296
-1504
-1856
-1776
-656
-32
0
0
32
192
1024
592
464
1648
672
288
-48
-384
-688
-992
-1280
-1488
-1840
-1792
-720
-48
0
0
32
176
944
544
528
1712
704
304
-16
-368
-672
-976
-1264
-1488
-1824
-1824
-768
-48
0
0
16
160
880
480
560
1744
752
304
0
-352
-640
-960
-1248
-1456
-1808
-1856
-848
-64
0
0
16
144
816
416
592
1776
784
320
16
-336
-640
-944
-1232
-1440
-1792
-1872
-896
-80
0
0
16
144
752
352
624
1840
832
320
32
-320
-608
-928
-1216
-1440
-1776
-1904
-976
-96
0
0
16
128
704
272
656
1872
880
320
48
-304
-592
-912
-1200
-1424
-1760
-1920
-1040
-112
0
0
16
112
640
192
704
1920
928
336
64
-304
-592
-896
-1184
-1408
-1728
-1920
-1088
-128
0
0
16
112
592
112
736
1968
976
336
80
-288
-576
-880
-1168
-1392
-1712
-1920
-1152
-144
0
0
16
96
544
32
752
2016
1024
352
96
-272
-560
-864
-1152
-1376
-1696
-1936
-1216
-176
0
0
16
96
512
1984
784
16
1088
368
128
-256
-544
-864
-1136
-1376
-1664
-1920
-1280
-208
0
0
16
80
464
1904
800
64
1152
384
144
-240
-528
-832
-1120
-1360
-1648
-1920
-1328
-224
-16
0
0
80
432
1824
832
128
1216
400
160
-224
-528
-832
-1120
-1344
-1616
-1904
-1376
-256
-16
0
0
64
400
1728
832
176
1264
432
176
-208
-512
-816
-1104
-1344
-1616
-1920
-1456
-304
-16
0
0
64
368
1632
832
208
1328
464
192
-176
-496
-800
-1088
-1344
-1600
-1920
-1504
-336
-16
0
0
64
336
1536
800
240
1376
480
208
-160
-480
-800
-1072
-1344
-1584
-1920
-1568
-384
-16
0
0
48
304
1456
800
304
1440
512
224
-144
-464
-784
-1072
-1328
-1568
-1904
-1616
-448
-16
0
0
48
288
1376
784
352
1488
544
240
-128
-464
-768
-1056
-1312
-1536
-1888
-1648
-480
-16
0
0
48
272
1280
752
400
1552
576
256
-96
-448
-752
-1056
-1328
-1536
-1888
-1696
-544
-16
0
0
32
240
1200
720
432
1600
608
272
-96
-432
-752
-1040
-1328
-1536
-1872
-1728
-592
-32
0
0
32
224
1120
672
464
1632
656
288
-64
-416
-736
-1024
-1312
-1520
-1872
-1776
-656
-32
0
0
32
208
1056
624
512
1696
688
304
-32
-400
-704
-1008
-1296
-1504
-1856
-1808
-720
-48
0
0
32
192
976
576
560
1744
736
304
-16
-384
-688
-1008
-1280
-1488
-1840
-1840
-768
-48
0
0
32
176
912
512
592
1776
768
320
0
-368
-672
-976
-1280
-1488
-1824
-1872
-848
-64
0
0
16
160
848
448
624
1824
816
320
16
-352
-656
-960
-1264
-1472
-1808
-1888
-896
-80
0
0
16
144
784
368
656
1856
864
336
48
-336
-640
-944
-1248
-1456
-1792
-1904
-976
-96
0
0
16
128
720
288
688
1904
912
336
48
-320
-624
-944
-1232
-1456
-1776
-1920
-1040
-112
0
0
16
128
672
208
720
1936
960
352
80
-304
-608
-928
-1216
-1424
-1744
-1920
-1088
-128
0
0
16
112
608
128
736
1984
992
368
96
-288
-592
-896
-1200
-1424
-1744
-1936
-1168
-144
0
0
16
112
560
48
784
2032
1056
368
112
-272
-576
-896
-1184
-1408
-1712
-1936
-1232
-176
0
0
16
96
528
2016
784
16
1104
400
128
-256
-560
-880
-1184
-1440
-1728
-1968
-1296
-208
0
0
16
96
480
1920
800
64
1152
416
144
-240
-544
-864
-1168
-1408
-1696
-1952
-1360
-240
-16
0
16
80
448
1824
800
96
1200
416
160
-224
-528
-848
-1152
-1392
-1680
-1968
-1408
-272
-16
0
0
80
416
1744
816
160
1264
432
176
-208
-528
-832
-1136
-1392
-1648
-1952
-1488
-320
-16
0
0
64
384
1648
816
192
1312
448
192
-192
-496
-816
-1120
-1376
-1632
-1952
-1520
-352
-16
0
0
64
352
1552
800
224
1360
480
208
-176
-496
-800
-1088
-1360
-1616
-1936
-1584
-400
-16
0
0
64
320
1472
784
272
1408
512
224
-144
-480
-784
-1088
-1344
-1600
-1952
-1648
-464
-16
0
0
48
288
1376
768
320
1472
528
240
-144
-464
-784
-1072
-1360
-1584
-1920
-1664
-496
-16
0
0
48
272
1296
752
352
1504
560
256
-112
-448
-752
-1056
-1328
-1552
-1904
-1712
-544
-16
0
0
48
256
1216
720
416
1568
592
256
-96
-432
-736
-1040
-1312
-1520
-1872
-1744
-592
-32
0
0
32
224
1136
688
480
1632
640
272
-80
-416
-736
-1024
-1312
-1520
-1872
-1776
-656
-32
0
0
32
208
1056
624
496
1664
672
272
-64
-400
-704
-1008
-1280
-1504
-1856
-1808
-720
-48
0
0
32
192
992
592
544
1728
720
304
-32
-384
-688
-992
-1280
-1472
-1840
-1840
-768
-48
0
0
32
176
912
512
576
1760
752
304
0
-368
-672
-976
-1264
-1472
-1824
-1872
-848
-64
0
0
32
160
848
464
640
1824
800
320
0
-352
-656
-960
-1248
-1456
-1808
-1888
-896
-80
0
0
16
144
784
384
672
1872
864
336
48
-336
-640
-944
-1248
-1456
-1792
-1904
-976
-96
0
0
16
144
736
320
704
1920
912
336
48
-320
-624
-928
-1232
-1456
-1776
-1936
-1056
-112
0
0
16
128
672
240
752
1984
976
352
80
-304
-608
-928
-1232
-1440
-1760
-1952
-1104
-128
0
0
16
112
624
144
784
2016
1024
368
96
-288
-592
-912
-1216
-1440
-1744
-1952
-1184
-160
0
0
16
112
576
64
800
0
1072
368
112
-272
-576
-896
-1184
-1424
-1728
-1968
-1248
-176
0
0
16
96
528
2032
832
80
1152
400
128
-256
-576
-896
-1184
-1424
-1712
-1968
-1312
-208
0
0
16
96
496
1936
832
96
1184
416
160
-224
-544
-864
-1168
-1408
-1696
-1984
-1376
-256
-16
0
16
80
448
1840
848
160
1248
432
176
-224
-544
-864
-1152
-1408
-1680
-1968
-1424
-272
-16
0
16
80
416
1744
832
176
1296
448
192
-192
-512
-832
-1136
-1376
-1648
-1968
-1520
-336
-16
0
0
64
384
1664
864
256
1360
480
208
-176
-512
-832
-1120
-1376
-1632
-1968
-1552
-368
-16
0
0
64
352
1568
848
288
1408
496
224
-160
-480
-800
-1104
-1376
-1616
-1952
-1600
-416
-16
0
0
64
320
1472
832
336
1456
528
224
-144
-464
-784
-1088
-1360
-1600
-1936
-1648
-464
-16
0
0
48
304
1392
816
384
1520
560
240
-128
-464
-784
-1072
-1344
-1584
-1936
-1696
-512
-16
0
0
48
272
1296
784
432
1568
592
256
-112
-448
-752
-1056
-1344
-1568
-1920
-1744
-560
-16
0
0
48
256
1216
736
464
1600
624
272
-80
-432
-736
-1040
-1328
-1536
-1888
-1760
-624
-32
0
0
48
240
1136
704
512
1664
656
272
-80
-416
-736
-1024
-1312
-1520
-1872
-1792
-672
-32
0
0
32
208
1056
656
560
1712
704
288
-48
-416
-704
-1024
-1296
-1504
-1856
-1824
-752
-48
0
0
32
192
992
592
592
1760
752
304
-32
-400
-704
-1008
-1296
-1504
-1840
-1856
-800
-48
0
0
32
176
912
528
624
1808
784
320
0
-368
-672
-976
-1264
-1472
-1824
-1888
-880
-64
0
0
32
160
848
464
672
1856
832
336
16
-352
-672
-976
-1264
-1472
-1808
-1888
-928
-80
0
0
32
160
784
400
720
1920
896
336
48
-336
-640
-960
-1264
-1472
-1792
-1936
-1008
-96
0
0
16
144
736
336
768
1984
944
352
48
-336
-640
-944
-1248
-1440
-1776
-1936
-1072
-128
0
0
16
128
672
224
768
2000
992
368
96
-304
-624
-944
-1232
-1440
-1760
-1952
-1136
-144
0
0
16
112
624
160
816
0
1056
368
96
-288
-592
-912
-1216
-1440
-1760
-1984
-1216
-160
0
0
16
112
576
64
816
48
1104
400
128
-272
-576
-896
-1200
-1424
-1728
-1984
-1264
-192
0
0
16
96
528
2016
848
96
1168
416
144
-256
-560
-880
-1184
-1408
-1712
-1968
-1328
-224
0
0
16
96
480
1936
864
128
1216
416
160
-224
-544
-864
-1184
-1408
-1696
-1984
-1392
-272
-16
0
16
80
448
1840
864
176
1264
448
176
-208
-528
-848
-1168
-1408
-1680
-1968
-1440
-288
-16
0
16
80
416
1744
864
192
1312
464
208
-176
-512
-832
-1152
-1424
-1680
-1984
-1520
-336
-16
0
0
64
384
1648
848
240
1360
480
208
-176
-496
-816
-1136
-1392
-1648
-1968
-1568
-384
-16
0
0
64
352
1552
848
288
1408
496
224
-160
-480
-800
-1104
-1376
-1616
-1968
-1616
-432
-16
0
0
64
320
1456
832
336
1472
528
224
-144
-464
-768
-1088
-1376
-1600
-1952
-1680
-496
-16
0
0
48
304
1376
816
400
1536
560
256
-112
-464
-768
-1088
-1360
-1584
-1936
-1712
-528
-16
0
0
48
272
1280
784
432
1568
592
256
-96
-432
-752
-1072
-1360
-1584
-1936
-1760
-592
-32
0
0
48
256
1200
736
480
1616
624
256
-96
-432
-736
-1056
-1344
-1568
-1936
-1808
-656
-32
0
0
48
240
1120
704
528
1680
672
272
-80
-416
-736
-1040
-1328
-1536
-1888
-1824
-704
-48
0
0
32
208
1040
640
576
1728
704
272
-48
-400
-704
-1024
-1328
-1536
-1888
-1872
-784
-48
0
0
32
192
976
592
624
1792
752
288
-32
-400
-688
-1008
-1312
-1520
-1872
-1888
-832
-64
0
0
32
176
896
528
656
1840
800
304
0
-384
-688
-992
-1296
-1488
-1856
-1936
-912
-80
0
0
32
160
832
448
688
1888
848
320
0
-368
-672
-976
-1296
-1504
-1856
-1968
-976
-96
0
0
32
160
768
368
736
1936
912
320
32
-352
-672
-976
-1280
-1504
-1840
-1984
-1056
-112
0
0
16
144
720
304
768
1968
960
336
48
-336
-640
-960
-1264
-1488
-1808
-1984
-1136
-128
0
0
16
128
656
224
800
2032
1008
352
64
-320
-624
-944
-1232
-1440
-1760
-1984
-1168
-144
0
0
16
112
608
128
816
32
1072
368
96
-304
-624
-928
-1232
-1456
-1776
-2000
-1264
-176
0
0
16
112
560
32
832
48
1120
384
112
-288
-592
-912
-1216
-1472
-1776
-2016
-1312
-208
0
0
16
96
512
1984
832
96
1168
416
128
-256
-576
-896
-1200
-1456
-1744
-2016
-1392
-240
0
0
16
96
480
1904
864
144
1232
416
144
-240
-576
-896
-1184
-1424
-1712
-2016
-1456
-288
-16
0
16
80
448
1808
864
192
1296
448
176
-224
-560
-880
-1168
-1424
-1696
-2000
-1504
-320
-16
0
16
80
400
1712
864
240
1344
464
192
-192
-528
-864
-1168
-1408
-1680
-2000
-1568
-368
-16
0
0
64
368
1616
864
272
1392
496
208
-176
-512
-832
-1136
-1408
-1664
-1984
-1616
-416
-16
0
0
64
352
1520
864
320
1440
528
224
-144
-496
-816
-1120
-1392
-1632
-1984
-1664
-464
-16
0
0
64
320
1440
832
368
1488
560
240
-128
-464
-784
-1104
-1376
-1616
-1952
-1712
-528
-16
0
0
48
288
1344
816
432
1568
592
272
-96
-448
-768
-1072
-1344
-1568
-1936
-1744
-576
-32
0
0
48
272
1264
768
464
1616
624
288
-80
-432
-752
-1056
-1328
-1552
-1920
-1792
-640
-32
0
0
48
256
1184
736
512
1664
656
288
-64
-416
-736
-1056
-1344
-1552
-1904
-1808
-672
-32
0
0
48
224
1104
688
544
1712
704
304
-48
-400
-704
-1024
-1328
-1536
-1904
-1856
-752
-48
0
0
32
208
1024
624
592
1760
736
304
-32
-384
-704
-1024
-1296
-1504
-1856
-1888
-832
-64
0
0
32
192
944
576
656
1824
784
320
0
-368
-672
-992
-1296
-1488
-1840
-1888
-880
-64
0
0
32
176
880
512
704
1872
832
336
16
-352
-656
-992
-1280
-1488
-1840
-1936
-944
-80
0
0
32
160
816
432
736
1920
880
336
32
-336
-640
-960
-1264
-1472
-1808
-1936
-1008
-96
0
0
32
144
752
352
752
1952
944
352
64
-320
-640
-960
-1264
-1472
-1792
-1952
-1072
-112
0
0
16
144
704
272
800
2000
976
352
80
-304
-608
-928
-1232
-1456
-1776
-1968
-1152
-144
0
0
16
128
640
192
832
16
1040
368
96
-288
-608
-928
-1232
-1440
-1744
-1952
-1200
-160
0
0
16
112
592
96
848
48
1104
400
128
-272
-576
-912
-1200
-1424
-1728
-1968
-1264
-192
0
0
16
112
544
0
864
96
1152
400
128
-256
-576
-896
-1200
-1456
-1744
-2000
-1344
-224
0
0
16
96
512
1952
864
128
1216
432
160
-240
-560
-880
-1184
-1440
-1712
-2000
-1408
-256
-16
0
16
96
464
1872
896
192
1264
448
176
-224
-544
-864
-1168
-1424
-1680
-1984
-1472
-304
-16
0
16
80
432
1776
896
240
1328
464
192
-208
-528
-848
-1152
-1392
-1648
-1968
-1504
-336
-16
0
16
80
400
1680
896
288
1392
480
208
-176
-512
-832
-1136
-1392
-1632
-1968
-1584
-384
-16
0
0
64
368
1584
880
336
1440
512
224
-160
-496
-816
-1120
-1376
-1616
-1968
-1616
-432
-16
0
0
64
336
1488
848
368
1504
560
256
-128
-480
-800
-1104
-1376
-1616
-1952
-1680
-480
-16
0
0
64
304
1392
832
416
1552
576
256
-128
-464
-768
-1088
-1344
-1584
-1936
-1728
-544
-16
0
0
48
288
1312
816
464
1600
608
272
-96
-448
-768
-1072
-1360
-1584
-1936
-1760
-592
-32
0
0
48
256
1232
768
496
1648
640
288
-80
-432
-752
-1056
-1328
-1552
-1904
-1808
-640
-32
0
0
48
240
1136
720
528
1696
672
288
-64
-416
-720
-1040
-1328
-1552
-1904
-1824
-704
-32
0
0
32
224
1072
672
576
1760
736
304
-32
-400
-704
-1024
-1312
-1520
-1888
-1872
-768
-48
0
0
32
208
992
608
624
1808
768
320
-16
-384
-688
-1008
-1296
-1504
-1872
-1904
-848
-64
0
0
32
192
912
544
688
1856
816
336
16
-368
-672
-992
-1280
-1488
-1840
-1920
-912
-80
0
0
32
176
848
480
720
1904
864
352
32
-352
-656
-976
-1280
-1488
-1840
-1952
-992
-96
0
0
32
160
784
416
752
1952
928
352
48
-336
-640
-960
-1264
-1488
-1808
-1968
-1056
-112
0
0
16
144
736
320
800
2000
976
352
80
-320
-624
-944
-1248
-1456
-1792
-1984
-1136
-128
0
0
16
128
672
240
816
2032
1024
368
96
-304
-608
-928
-1232
-1456
-1776
-2000
-1216
-160
0
0
16
128
624
144
848
32
1088
384
112
-288
-608
-928
-1232
-1456
-1760
-2000
-1248
-176
0
0
16
112
576
64
864
80
1120
400
128
-256
-576
-896
-1216
-1440
-1744
-2016
-1344
-224
0
0
16
96
528
2016
896
128
1200
416
144
-256
-560
-896
-1200
-1424
-1712
-2000
-1376
-240
0
0
16
96
480
1920
880
160
1232
432
160
-224
-544
-864
-1168
-1408
-1696
-2000
-1456
-288
-16
0
16
80
448
1824
896
224
1312
448
176
-208
-528
-848
-1168
-1408
-1680
-1984
-1504
-320
-16
0
16
80
416
1728
912
256
1360
480
208
-176
-512
-848
-1152
-1392
-1648
-1968
-1552
-368
-16
0
16
80
384
1632
896
304
1408
496
224
-160
-496
-816
-1120
-1392
-1632
-1968
-1616
-416
-16
0
0
64
352
1536
880
352
1456
528
224
-144
-480
-800
-1104
-1376
-1616
-1952
-1632
-448
-16
0
0
64
320
1440
864
400
1520
560
240
-128
-464
-784
-1088
-1360
-1584
-1936
-1680
-496
-16
0
0
48
304
1360
832
432
1568
592
256
-96
-432
-752
-1072
-1360
-1584
-1920
-1744
-560
-16
0
0
48
272
1264
800
496
1632
624
272
-96
-432
-752
-1056
-1344
-1552
-1904
-1760
-608
-32
0
0
48
256
1184
752
528
1664
672
288
-64
-416
-720
-1040
-1328
-1536
-1888
-1808
-672
-32
0
0
48
240
1104
688
560
1728
704
304
-48
-400
-704
-1024
-1328
-1536
-1888
-1840
-736
-48
0
0
32
208
1024
624
608
1776
752
304
-32
-384
-704
-1008
-1312
-1536
-1872
-1872
-800
-48
0
0
32
192
944
560
640
1824
800
320
-16
-368
-672
-992
-1296
-1504
-1840
-1888
-864
-64
0
0
32
176
880
496
688
1872
832
336
16
-368
-672
-976
-1280
-1488
-1824
-1904
-928
-80
0
0
32
160
816
416
704
1920
896
352
48
-352
-656
-960
-1264
-1472
-1808
-1936
-1008
-96
0
0
32
160
752
352
752
1952
944
352
64
-336
-640
-960
-1248
-1472
-1792
-1952
-1056
-112
0
0
16
144
704
256
768
2016
1008
384
80
-304
-624
-944
-1248
-1472
-1776
-1968
-1136
-144
0
0
16
128
640
176
800
0
1040
384
96
-288
-608
-928
-1232
-1456
-1760
-1968
-1216
-160
0
0
16
112
592
80
832
48
1104
400
112
-272
-592
-928
-1216
-1440
-1744
-1984
-1264
-192
0
0
16
112
544
2032
832
80
1136
400
144
-256
-576
-896
-1200
-1456
-1744
-2000
-1360
-224
0
0
16
96
512
1952
848
128
1200
432
160
-240
-560
-880
-1184
-1440
-1728
-2000
-1408
-256
0
0
16
96
464
1856
848
160
1248
448
176
-208
-544
-864
-1168
-1424
-1696
-2000
-1472
-288
-16
0
16
80
432
1760
848
208
1312
464
192
-192
-512
-832
-1152
-1408
-1664
-1984
-1536
-352
-16
0
16
80
400
1664
864
240
1360
480
208
-176
-512
-832
-1136
-1392
-1648
-1984
-1584
-384
-16
0
16
64
368
1568
848
288
1408
512
224
-160
-480
-800
-1120
-1392
-1632
-1968
-1632
-448
-16
0
0
64
336
1488
848
352
1472
528
240
-144
-464
-800
-1104
-1376
-1616
-1968
-1680
-480
-16
0
0
64
304
1392
832
384
1520
560
256
-128
-464
-768
-1088
-1376
-1600
-1952
-1728
-544
-16
0
0
48
288
1312
800
432
1584
592
256
-96
-448
-752
-1072
-1344
-1568
-1936
-1776
-608
-32
0
0
48
256
1232
784
496
1648
640
272
-80
-432
-752
-1056
-1344
-1552
-1920
-1808
-656
-32
0
0
48
240
1136
736
544
1696
672
288
-64
-416
-720
-1040
-1328
-1536
-1904
-1856
-720
-48
0
0
48
224
1072
672
576
1728
720
288
-48
-400
-704
-1024
-1312
-1504
-1872
-1872
-768
-48
0
0
32
208
992
608
624
1792
752
304
-16
-384
-688
-1008
-1312
-1520
-1872
-1904
-848
-64
0
0
32
192
912
560
672
1840
800
320
0
-368
-672
-992
-1296
-1520
-1856
-1936
-928
-80
0
0
32
176
848
480
720
1904
848
320
16
-352
-656
-976
-1280
-1488
-1840
-1952
-976
-96
0
0
32
160
784
400
752
1936
912
336
32
-336
-656
-976
-1264
-1488
-1824
-1968
-1056
-112
0
0
32
144
736
320
784
1984
960
336
48
-320
-640
-960
-1248
-1456
-1792
-1968
-1120
-128
0
0
16
128
672
240
816
2032
1024
368
80
-304
-624
-944
-1232
-1456
-1776
-1984
-1184
-160
0
0
16
128
624
144
832
32
1072
368
96
-288
-592
-928
-1232
-1456
-1760
-1984
-1248
-176
0
0
16
112
576
64
864
80
1136
400
112
-272
-592
-912
-1200
-1424
-1728
-1968
-1296
-208
0
0
16
112
528
2016
880
112
1184
416
144
-256
-576
-896
-1200
-1440
-1712
-1984
-1360
-240
0
0
16
96
480
1920
912
176
1248
432
160
-240
-560
-880
-1168
-1424
-1680
-1968
-1424
-272
-16
0
16
80
448
1824
912
224
1312
448
176
-224
-544
-864
-1168
-1424
-1664
-1968
-1472
-304
-16
0
16
80
416
1728
880
240
1344
480
192
-192
-528
-848
-1152
-1424
-1680
-1984
-1552
-368
-16
0
16
80
384
1632
896
320
1424
496
208
-176
-512
-832
-1136
-1408
-1648
-1968
-1584
-400
-16
0
0
64
352
1536
880
336
1456
528
240
-160
-496
-816
-1120
-1376
-1616
-1952
-1632
-448
-16
0
0
64
320
1440
848
400
1520
560
256
-128
-480
-800
-1104
-1360
-1600
-1936
-1680
-496
-16
0
0
64
304
1360
832
448
1584
608
272
-112
-448
-768
-1088
-1360
-1584
-1920
-1728
-560
-16
0
0
48
272
1264
784
480
1632
624
288
-80
-432
-752
-1072
-1360
-1568
-1936
-1776
-624
-32
0
0
48
256
1184
752
544
1696
672
304
-64
-432
-736
-1056
-1344
-1552
-1904
-1808
-672
-32
0
0
48
240
1104
704
576
1728
704
304
-48
-400
-720
-1040
-1328
-1536
-1904
-1856
-752
-48
0
0
32
208
1024
656
624
1792
752
320
-32
-384
-720
-1024
-1312
-1520
-1888
-1872
-800
-48
0
0
32
192
960
576
656
1824
800
320
0
-368
-688
-1008
-1312
-1520
-1872
-1904
-880
-64
0
0
32
176
880
528
704
1872
848
336
16
-352
-672
-992
-1296
-1520
-1872
-1952
-960
-80
0
0
32
160
816
448
736
1904
880
336
32
-336
-656
-976
-1296
-1520
-1856
-1968
-1008
-96
0
0
32
160
752
352
752
1952
928
352
64
-320
-624
-960
-1264
-1472
-1808
-1968
-1072
-112
0
0
16
144
704
272
800
2000
992
368
80
-304
-624
-944
-1248
-1456
-1792
-1968
-1136
-144
0
0
16
128
656
192
832
0
1040
368
96
-288
-592
-928
-1232
-1456
-1760
-2000
-1216
-160
0
0
16
112
592
96
848
64
1104
384
112
-272
-576
-912
-1216
-1440
-1744
-2016
-1296
-192
0
0
16
112
544
16
880
112
1168
416
144
-256
-560
-880
-1200
-1440
-1728
-2000
-1344
-224
0
0
16
96
512
1968
896
144
1216
416
160
-240
-544
-864
-1184
-1440
-1728
-2016
-1424
-256
0
0
16
96
464
1872
912
208
1280
448
176
-224
-528
-848
-1168
-1408
-1696
-2000
-1472
-304
-16
0
16
80
432
1776
912
256
1344
464
192
-208
-528
-848
-1152
-1424
-1664
-2000
-1536
-352
-16
0
16
80
400
1680
912
288
1392
496
208
-176
-512
-832
-1136
-1408
-1664
-2000
-1616
-400
-16
0
16
64
368
1584
896
352
1456
528
224
-160
-496
-816
-1120
-1408
-1648
-1984
-1664
-448
-16
0
0
64
336
1488
880
384
1504
560
240
-144
-496
-800
-1104
-1392
-1632
-1968
-1696
-496
-16
0
0
64
304
1392
848
432
1552
576
256
-128
-464
-800
-1088
-1360
-1584
-1936
-1728
-544
-16
0
0
48
288
1312
816
496
1632
624
272
-112
-464
-768
-1072
-1344
-1568
-1920
-1776
-592
-32
0
0
48
272
1232
784
544
1680
656
288
-80
-432
-768
-1072
-1344
-1552
-1920
-1808
-672
-32
0
0
48
240
1136
736
576
1728
704
304
-48
-416
-736
-1040
-1344
-1552
-1904
-1840
-720
-48
0
0
48
224
1056
688
608
1760
736
320
-32
-400
-720
-1024
-1312
-1536
-1888
-1872
-784
-48
0
0
32
208
992
608
640
1808
784
336
0
-368
-688
-1008
-1312
-1520
-1872
-1904
-848
-64
0
0
32
192
912
544
688
1856
848
352
32
-352
-672
-992
-1296
-1504
-1856
-1920
-912
-80
0
0
32
176
848
480
736
1920
880
368
48
-336
-656
-976
-1280
-1504
-1840
-1968
-1008
-96
0
0
32
160
784
400
768
1968
928
368
64
-320
-640
-960
-1264
-1488
-1808
-1968
-1056
-112
0
0
32
144
720
320
784
2000
992
384
96
-304
-624
-944
-1248
