-384
-416
-896
176
-16
-112
1648
416
-320
-960
-768
-112
-1008
-752
-80
912
320
816
-96
-400
416
320
720
464
-32
528
-256
-1120
-880
80
-736
-1696
288
336
-496
-608
496
1088
304
-304
240
-640
0
672
384
288
-1088
-1216
-272
848
1216
48
-480
512
-384
-192
1056
48
384
-688
-352
304
208
480
544
736
640
32
48
112
-544
-208
-1328
-1232
-768
224
1424
736
-512
-288
48
752
-128
496
-368
480
368
448
208
-192
-816
-224
-512
-1824
-352
784
736
176
-352
-688
176
-864
-1056
-640
416
640
1136
144
-176
-304
1312
1248
-672
-32
1344
272
16
592
176
464
-64
384
768
1424
496
-704
-512
-336
-528
-320
-352
-672
-464
-368
-160
-144
736
0
-720
208
1232
-32
-240
464
864
-240
-640
-912
-16
96
-864
-528
928
800
-64
-224
-176
-192
-1056
-336
-256
-880
-1488
-400
-240
128
560
304
-96
-848
128
144
-992
-736
592
-864
-1488
-1232
144
-480
-1056
48
-320
416
-240
16
432
-1056
-576
368
-912
-176
-720
-128
192
-176
-144
-544
1344
272
192
752
1632
320
288
-496
-592
-864
528
432
448
656
-416
-176
-768
-864
-1104
-768
-64
64
-688
-880
656
1792
320
1360
368
-144
-208
-384
32
-960
-240
496
-160
-64
-16
336
-320
-848
912
944
1328
656
48
496
224
224
-304
-752
64
-464
448
1360
1104
-464
-1104
-640
-304
-656
-240
144
880
-992
-784
-400
1344
112
-1232
-1296
-960
448
128
-992
-944
-384
-720
1152
1136
720
1104
1648
320
-816
-96
176
176
1040
848
0
-608
384
-736
-992
-592
224
960
-816
-720
-464
464
-912
-1104
-400
624
-848
48
96
-1744
-848
-672
528
1792
112
-944
64
176
-96
-384
64
672
1776
208
752
976
128
-1040
-624
-848
-512
64
1264
448
448
784
-880
-1376
192
1072
448
528
1120
656
416
-288
-224
1312
1952
1408
192
-1088
-592
608
-464
-992
-624
-224
-528
624
624
-256
-1760
-672
832
128
272
-400
-1584
176
304
224
-320
480
880
640
-368
32
592
480
320
288
0
-720
-384
-768
-1152
0
304
736
-928
-800
1104
-144
-496
-240
-240
-448
-640
320
720
-320
-32
336
576
592
464
-384
176
-1264
-192
272
-592
-64
-784
-48
320
-1008
-32
320
-32
-1040
-272
-368
192
448
32
416
-528
-832
-480
176
992
992
368
848
624
-32
240
1024
656
64
1024
1680
960
192
1760
1088
320
176
496
384
368
-688
688
-208
-1376
400
704
-704
352
624
-576
816
608
544
960
-256
-688
352
528
-160
352
-240
-608
-256
-1376
240
1216
272
304
-1072
-448
-704
-384
240
928
352
416
1536
656
-16
416
1264
736
-192
-112
64
-368
-1328
-624
336
16
-352
-1984
-400
256
1152
208
-512
0
352
-784
-1232
-224
1008
576
528
-80
-1616
-496
-448
-1200
-544
-416
496
288
992
480
880
624
1952
-128
496
688
1200
400
224
608
432
608
-144
576
752
288
-592
-320
-416
112
496
256
368
464
-544
-720
240
-512
64
144
448
-224
592
256
464
608
-448
272
144
-896
-720
-96
336
144
1008
1216
-112
-592
-48
528
-128
-928
-208
-80
-80
-624
-304
-384
-432
-496
160
-560
320
688
976
-992
-368
1680
288
64
752
1008
832
960
1264
-768
-464
144
288
-768
688
-624
-1232
-240
384
752
-416
64
-592
160
-160
-208
1184
1472
64
-272
32
-1264
-560
-80
592
-288
576
64
-224
576
32
-320
-160
480
-544
-1104
-768
0
288
208
-48
-800
-208
-256
-480
224
80
-1072
-1280
-432
240
-320
512
-608
-352
-176
80
32
-960
-272
-400
176
640
624
160
816
304
-160
-128
320
-672
-368
-1552
-592
-848
272
112
-688
-912
-560
-848
-1088
-896
1232
240
-1120
-1296
224
0
640
16
640
1360
720
240
-1168
-64
160
-1152
-656
-64
416
1120
352
-608
-464
448
-176
208
-272
896
-816
-1440
-256
-720
96
-384
1424
432
352
480
-32
-384
1216
1280
64
-1024
-368
928
96
-592
768
1040
-880
-224
-272
96
-320
832
-240
-800
-992
-576
144
496
1136
1568
352
-1104
192
880
1392
1120
304
736
1104
1152
768
528
1136
352
320
32
-864
-112
1072
1088
864
-448
-336
-272
-80
-368
-352
16
976
656
416
-528
-64
-992
-1600
-464
944
-256
304
480
-416
192
1008
144
-32
1456
1392
592
944
-80
-32
1088
176
-400
528
928
-192
352
400
-400
-528
-192
304
-368
816
1200
32
-448
352
944
-448
-288
352
112
-144
1952
176
80
336
-624
-800
-432
256
576
112
928
1136
-1056
176
-112
-80
272
608
1280
64
-1584
-480
224
96
1040
-272
-48
-384
-1136
144
-928
-16
-656
-1120
-512
-160
-800
-384
-416
-816
-1120
-176
128
688
528
-32
-560
-1120
-816
384
640
320
-272
-640
-688
1008
720
-608
784
864
1152
1520
-112
-336
-720
-656
-608
256
1488
-112
-144
-608
-48
-368
-784
-304
512
-464
128
1104
592
1120
-640
-176
1200
384
-624
32
-128
176
-224
-416
-288
-80
-544
-544
-112
-688
304
-64
-192
64
-80
-688
-672
608
400
256
-304
-96
112
-224
560
480
848
112
80
160
-656
400
-352
-1696
-464
-912
-1088
-464
-160
-576
-624
-1664
512
304
-192
-944
-352
-976
-688
224
208
-272
1040
208
-128
768
1056
96
1024
960
-704
64
-288
352
720
-384
-1664
-928
112
16
-992
-288
160
48
-256
624
-144
-640
-16
-224
624
336
928
992
224
-160
16
-160
-688
160
864
976
288
320
1120
-128
720
-112
-704
-896
-1056
-624
64
-464
-880
80
336
160
-272
576
656
-448
-1488
-1328
-1008
720
128
-1264
-1584
-1072
-336
592
1520
1584
-336
-800
320
-192
-784
624
544
480
112
368
496
-896
-656
-384
1008
1408
672
496
-384
-1184
-256
-240
-672
-1168
-272
-1008
-64
128
-1056
-96
-256
592
-416
112
432
592
896
848
-256
-432
-160
-240
-608
-1120
-160
-336
-608
-416
320
-176
-1024
624
816
512
288
320
912
560
-32
432
432
704
752
112
240
592
480
-240
-688
-192
-400
-320
-320
-16
-400
-272
-912
-1152
720
752
-512
-960
256
-976
368
464
352
208
144
-512
-1648
-1312
-496
-688
-1344
-1200
-864
-352
496
16
80
320
1168
1408
1040
1392
48
-64
-672
-688
-144
-400
-784
272
336
1280
1472
144
-432
-1040
128
688
-1280
64
-144
-320
-560
80
-736
-288
1216
1568
1296
176
-784
-1104
-64
240
272
-656
144
-768
-32
1088
576
48
-32
-448
-672
-128
512
-384
-544
672
32
864
800
64
576
464
-704
-864
-512
400
-592
-272
-240
832
1024
64
-32
656
-1056
-1424
32
-176
1728
-896
-624
-352
704
80
-464
-1232
-1152
-992
-848
-368
-576
-944
-1120
-288
336
336
1392
848
-496
-656
-1488
-1104
-672
-1360
-960
272
-816
-1056
144
512
1136
1136
256
-1040
-672
96
960
-784
-160
112
-1360
-2000
-128
1600
992
960
1920
304
-1824
368
848
-240
352
400
624
464
976
-192
-80
-848
-368
-352
-480
800
752
208
-128
-1456
-640
-96
576
944
464
-224
1760
880
768
944
256
-160
-176
-144
416
1040
-272
576
-192
-144
-240
-720
-656
240
-128
-256
-304
-96
-192
-224
304
0
96
704
-64
-1440
-1104
192
1264
816
368
16
1184
448
-320
-128
-800
464
-640
-304
-16
1392
784
-512
544
384
-336
-544
-352
-160
608
-16
-512
48
-1200
-304
480
240
-64
-368
-768
672
336
304
576
-1104
-256
480
-176
-1488
192
128
48
1440
1072
464
416
-48
1056
1312
1552
-864
-16
384
1200
0
624
160
1136
896
-384
736
608
1168
1024
304
-400
416
192
-48
672
752
704
496
-1280
-1152
-1888
-2032
-848
-1008
-1312
-1920
-1536
-848
256
-1200
-1536
-1040
-1760
416
176
-256
-288
-592
112
224
-944
-752
-304
656
-400
272
272
-576
-592
-224
1280
288
-288
-800
-864
-1872
-400
-384
-1568
-1136
224
-400
-608
-288
-816
1152
1296
32
-224
-496
480
-544
560
384
-752
-464
-336
192
-96
-960
-608
-32
-1024
-544
-736
240
-128
-704
-1024
-1776
-1088
528
-240
-64
720
-384
624
16
-64
1632
1216
-208
-688
-32
-496
576
304
624
64
-192
-368
-784
304
-464
-80
48
-432
-272
1040
-48
-576
1664
1504
224
208
-16
448
-608
-720
688
864
-48
240
-32
-96
-48
960
1248
592
-512
-608
1248
368
544
960
176
-880
-592
1152
1392
112
-576
-528
-64
240
1424
288
-160
912
288
384
-400
32
640
1536
320
-592
448
624
-304
640
464
-64
816
368
480
-688
-464
192
128
528
-496
-1088
-1840
-928
-32
-960
-288
432
752
800
-352
176
-496
-624
-304
-1296
-1584
-1296
400
160
112
-336
-1024
-336
96
-368
480
624
-672
128
-672
-448
-992
-608
864
-224
-1056
-688
-480
-1648
-848
608
368
-192
-384
-800
48
-592
-1408
-384
-16
-1040
-400
480
-144
-880
720
-656
-160
256
-160
240
-48
-640
-944
-848
-1104
-1504
-176
1600
1184
-96
224
-208
-1072
-800
192
-144
-464
-384
-192
-688
-1584
-944
1344
16
-144
112
688
-112
-576
-1120
-400
528
-656
-144
-1424
-752
-144
-608
-1040
-368
-192
464
-720
-512
320
-688
-1008
80
1072
1344
1248
704
1632
-560
-512
896
592
944
336
-512
-496
560
320
160
400
-784
-848
336
-608
-192
64
-176
560
-464
-80
64
-256
-1520
-944
-448
320
-288
192
448
-320
736
-368
-16
752
800
32
-624
544
224
-320
768
1184
1696
16
-512
1552
416
-64
576
0
-32
-288
-640
-1232
-192
960
640
-32
-112
-352
-288
224
608
1392
640
-512
96
-880
-1232
-1088
0
1008
896
32
720
816
-736
-464
256
320
1088
0
-160
1296
352
992
384
-160
1552
128
1376
960
-144
-336
608
-384
624
576
304
1136
304
544
240
-192
-800
32
1088
528
608
-192
128
1312
-368
-688
-480
800
-288
-1536
-1360
-960
-784
-384
272
-592
-784
576
288
384
-528
-720
-384
-432
-128
-688
-48
224
528
-80
-656
0
1184
784
736
-656
-48
1360
32
-480
-592
16
-144
-480
-448
656
96
-144
1200
336
320
-384
16
-320
-1056
-784
-1200
240
-960
-1520
-960
-560
640
-736
-560
-272
-1792
-1344
-256
-864
-816
-736
-1312
-560
32
16
1184
112
80
704
208
704
160
-64
592
1264
-448
-448
-1008
-720
816
1152
160
-144
672
864
-224
-1376
576
432
-1552
-512
-64
-960
-1120
-304
224
896
816
1008
-720
-176
-912
-496
176
912
688
448
-848
-448
1184
-656
-1952
-816
736
368
-640
-304
-224
784
1616
1056
656
-176
128
-48
832
80
-16
-160
160
1280
480
-960
-720
-464
288
1408
1360
800
1152
0
544
160
-240
0
176
-512
-16
1248
-144
-720
352
1168
592
336
-80
112
-336
464
-112
128
336
544
80
96
624
-160
-512
-1328
-208
704
304
416
-784
-448
-32
-208
592
-240
-1040
-1472
-304
-608
-144
576
256
640
768
640
80
160
-480
848
976
128
-16
-576
192
-368
384
208
-624
32
-528
160
496
464
-1248
-48
416
192
448
80
-112
-32
1216
-112
-112
864
784
1008
1168
288
176
-320
-432
-224
-304
-112
32
-848
-1328
16
-400
-272
-880
-496
96
-656
-352
128
-304
224
-384
-416
-656
576
1056
1296
1408
96
496
240
-1136
-912
1024
752
640
368
752
736
160
-656
-64
-304
-592
64
-208
992
176
-736
48
32
80
-224
64
-1008
48
464
96
-320
-464
-512
-624
-80
-1104
384
544
16
752
32
-1232
240
-608
224
32
-304
-80
528
1088
-80
-368
752
336
-48
-1280
720
-320
-1312
176
320
208
224
-752
-672
-192
-176
48
-256
-1200
-784
-368
-96
-144
304
-272
-240
240
1024
1696
480
48
288
-304
-528
-1296
48
-1392
-1728
-688
-752
-1520
-832
-1008
-480
288
-544
336
1664
928
288
-128
-832
-992
-1392
-736
-1680
-1376
-1120
-1008
-1040
64
1408
192
-1024
-720
-1392
1040
-1120
-1376
-304
-128
608
576
192
384
-224
-640
-336
-848
-128
144
-688
-1792
-448
976
496
736
0
-16
-1072
-1872
-912
416
-576
-976
-624
720
1648
1456
592
800
-64
-288
576
-304
-1424
-1344
-448
-768
32
1248
-624
-912
-400
-256
16
-896
-768
-576
1616
1296
-64
-784
-1632
-976
-448
736
-784
-1024
-976
160
576
-336
416
384
-480
80
-48
416
-400
48
656
880
1712
-224
-256
-656
-352
-1264
-768
-960
-944
-80
-80
160
-240
-752
688
-928
-336
304
-1408
-720
1008
816
752
208
-272
-800
400
1648
1312
544
480
64
-48
192
832
720
944
1264
-80
1232
448
576
-528
-464
-592
208
800
-768
-272
832
-48
192
-784
-1264
-144
-1200
-272
1104
560
1744
416
464
1120
816
0
1616
1120
1552
944
-288
496
864
-352
-208
-496
-272
512
208
656
16
-496
-1040
-256
-1072
-160
-384
-592
-176
592
544
-592
720
240
-256
-384
-64
48
592
1184
224
-192
1072
1024
160
-192
-1296
-464
960
-80
-1072
-176
912
1120
1472
832
1200
1632
848
1056
-720
-912
-512
640
-352
-48
496
-1088
-800
-448
-480
-272
-1056
-368
-416
0
192
464
-112
-352
288
-144
-448
-608
160
112
1392
608
-208
464
528
352
-416
-176
-80
-880
-400
-272
-128
-464
-192
672
896
-48
880
1008
496
512
32
352
1232
880
112
-400
80
1056
624
624
-880
-1952
-1616
-576
416
1056
-656
-864
-272
512
992
496
-560
128
-32
-400
112
1072
576
-272
-1264
-1072
144
1168
192
464
64
-304
-272
-128
-416
-672
160
304
688
240
160
16
-208
-1184
176
-16
-768
-96
256
1952
1248
608
224
-960
-848
-720
80
304
1456
912
960
-512
464
-80
544
400
736
800
-640
336
1280
-176
-1552
-720
-560
784
-672
48
-64
544
352
768
432
-80
-1568
-1408
-1568
-464
48
-448
-1232
-416
880
1296
-304
-640
-992
-400
944
1584
1056
-928
-1152
-48
-1392
-448
688
800
144
176
-144
-768
-1280
1520
1216
-192
240
-192
-1872
-672
-384
-208
272
208
-544
-1616
-1344
-960
112
976
960
0
-16
-320
-144
96
-144
576
240
-96
-736
240
-704
-16
240
1040
272
352
-976
-704
-1744
-1536
-960
-1280
48
480
560
-608
-432
624
-864
336
-112
-1072
-848
-1088
912
80
48
-480
688
1520
-16
-624
-1056
-656
288
192
-160
512
1152
832
1648
752
672
800
-640
-624
144
-672
416
160
-304
816
-320
-448
-320
-640
224
192
-48
-144
112
-560
-896
-288
-544
-1072
-448
-240
272
864
-800
-1264
-640
-320
-80
512
608
-624
-320
-704
-224
-16
-1264
624
1440
656
384
-480
-1200
1008
-768
608
464
1024
1328
0
-48
224
160
-192
496
-384
-608
848
1072
592
1040
-672
-960
208
464
-1104
-224
-352
-688
560
768
480
528
-128
-320
-112
-544
-992
-1168
-1328
-1472
-240
608
272
128
16
-32
0
0
1024
816
-480
-1312
-608
-560
-96
-656
0
1120
160
-1888
-880
256
-528
-368
464
352
192
432
432
-144
1072
576
-528
-640
240
-80
-368
-480
-720
-1168
-512
-288
-816
-736
-64
144
-400
-528
-1216
-1232
-512
-640
-1040
-128
256
1104
1136
736
-240
-576
64
384
64
-672
48
336
1120
160
-672
-16
400
-640
272
432
352
288
-816
-976
208
256
-592
-1648
-16
-48
-688
-1056
176
176
-544
496
688
336
-608
288
-928
-304
-1248
432
-112
720
-32
-896
-1920
-400
848
688
496
160
512
-1392
-448
-880
464
-80
16
704
1424
512
-368
-176
80
-80
704
1120
-800
-976
688
304
-128
-144
832
672
-128
-512
-304
-432
480
288
-336
416
-880
-576
-496
-176
-80
-1360
-1568
-944
-496
896
528
-528
-368
896
304
320
-512
-1744
192
-64
-464
-832
-848
-432
-464
16
-144
0
0
-32
48
-416
496
688
-240
32
160
-432
64
736
-896
-976
864
1456
-416
-1056
-384
-128
560
560
512
-672
-1024
-512
256
240
-1392
-592
176
-560
384
416
416
288
-864
144
-608
-768
-1584
-384
-1168
-272
288
-304
-144
-816
-528
480
400
16
-208
-176
608
-656
-272
448
-48
-1008
-704
-720
272
816
464
1040
912
1296
1136
832
-288
-64
320
224
-128
-1440
-1584
672
1104
304
592
576
192
-256
544
416
640
-416
-768
320
-976
-304
1312
384
-960
-240
-544
-32
-512
400
400
-416
-1056
464
304
-480
304
128
176
128
-32
320
80
64
-640
-256
320
-1664
-1616
-880
336
432
-608
192
528
-288
-864
320
384
-224
608
-240
-1504
592
-160
-128
-128
32
368
1184
80
-48
-1328
-496
-96
384
256
80
-752
336
752
-512
-1120
-592
-848
80
1584
704
448
144
896
224
96
-336
144
144
-160
752
1248
1632
864
-48
-16
-752
-336
848
224
704
-80
416
368
-160
-416
512
-816
-432
-256
-272
-784
-352
1008
-624
-368
-464
-816
-176
64
-352
-112
-288
416
224
-112
-48
1808
304
80
-176
320
-240
1760
1552
1152
528
528
-320
1296
1680
208
-640
-176
-416
800
768
1232
400
704
-720
16
160
-144
688
560
176
1136
1216
592
752
-656
-608
368
1392
1104
320
192
160
-400
32
-32
-1168
-176
768
-336
64
640
48
64
768
1088
400
128
848
-96
-192
736
144
-192
-352
1104
-768
-800
-384
336
1168
832
736
640
-640
112
-512
-256
-1024
96
720
704
-656
-800
160
-48
-1312
-64
-752
-800
-240
256
496
-48
-192
-48
-464
-288
-32
-368
-1488
-912
496
-80
80
480
-400
48
-64
96
752
48
-1456
-288
-464
-800
416
336
448
-48
-64
112
64
-672
-1232
-480
1488
528
96
224
-448
16
1424
96
-128
-64
496
-640
-832
-192
224
-1008
-2032
-592
1424
1392
1232
1552
720
0
-240
-704
992
-1584
-912
-16
-144
-96
-1088
-224
672
256
512
-208
-1088
-864
64
-48
-64
368
-336
368
352
-1296
-1088
-336
-320
496
-80
368
208
-624
-608
-240
-464
64
1456
-272
-224
464
-512
80
336
-416
240
16
96
512
336
-496
-128
240
336
96
-32
112
208
-368
448
224
768
768
112
480
896
64
160
-544
-480
1296
1152
96
-1360
-896
-912
-112
1408
144
304
-960
-1344
-1088
448
-800
1488
1520
848
-192
256
512
736
448
992
-192
464
800
448
-496
240
-160
544
976
528
160
-1376
-80
1168
1168
-224
-576
560
-160
320
144
448
176
-608
-832
-320
416
880
-64
-208
-1040
-96
0
464
-128
-400
-1184
-1616
-80
1152
400
-320
-656
-336
528
816
512
-816
176
-240
1072
224
-1744
-1168
240
512
-176
160
256
1392
0
-1856
-864
-672
240
-32
496
1584
1072
1632
960
-304
384
-80
-800
-256
800
624
448
-496
-272
-208
-304
-608
-1104
-1168
-1120
-1840
-1728
-752
832
128
-816
-688
816
960
368
-1264
-384
400
976
-464
96
-384
-752
-896
-1072
-1200
336
480
304
880
1392
1168
624
1072
832
208
-384
128
32
48
528
112
-192
960
1344
1008
-208
-1232
192
352
-336
-560
-1088
144
-624
-96
-880
-1920
-224
288
144
80
448
272
288
624
480
464
32
336
-800
-1840
-176
320
-448
1168
-64
-80
-736
-80
-816
-1440
-816
96
-240
720
400
-432
-464
-768
160
64
16
640
-1088
-752
-736
656
-272
-576
272
-144
-848
-1616
-1072
464
1120
784
-384
576
1120
1072
1760
160
-832
-16
-1040
-944
576
1872
528
-48
-16
192
752
224
0
-496
-1104
-912
-304
-640
592
128
432
1312
800
-496
-544
1600
1472
384
880
224
-1088
-1504
-1568
-688
656
672
336
80
-336
-480
-448
-576
960
624
-112
560
-192
-1232
-128
176
-784
-1728
-1312
-48
528
0
-128
-240
544
1248
1104
-624
176
-96
64
496
672
1184
1168
-336
-672
224
128
656
2032
1296
192
1328
400
1392
1312
160
-272
-16
240
528
272
1056
784
992
128
288
160
352
-112
960
1120
384
528
320
-288
16
-448
608
-80
1296
256
224
1104
704
1344
288
-848
-432
1328
1088
-96
272
-272
-256
848
288
80
672
416
-624
1136
736
16
192
560
448
1008
976
976
368
624
1120
416
768
-96
-656
912
1328
1424
-128
-1120
-208
624
-416
1216
368
176
336
352
192
384
-1232
-992
-368
-176
-176
-720
-400
-1376
-1312
-64
80
-1440
-1952
-272
352
224
880
-512
-512
272
336
-288
-560
-624
-1152
-1056
-784
416
-1264
-416
160
-480
432
1744
352
560
432
32
384
80
-496
768
848
1360
912
736
1120
-304
320
-272
-768
-528
-640
-16
-112
-256
-784
-432
-496
-1424
-832
-720
-144
-160
768
1136
-1248
-16
48
144
16
-560
1008
80
-560
-1552
-1152
-96
-640
-480
-16
416
-864
-416
-1088
-1216
-768
-848
-720
-640
-512
288
480
-144
400
112
-400
368
704
-512
352
-976
-688
688
0
-704
-752
-608
240
720
352
128
240
288
-80
144
-624
-176
-1776
-1088
-656
-352
0
-480
-784
-256
-1456
112
384
-1088
704
448
-208
-592
-1424
-352
-208
1568
624
-704
-528
-272
-320
320
592
432
64
-1008
832
752
-352
-144
-160
-752
-880
-128
-432
-256
352
416
-160
-272
-256
-384
-1520
-656
-336
528
0
592
240
-112
-528
384
112
-496
-480
112
592
-640
-160
-1360
-1152
288
416
1040
-432
-352
-816
-720
-80
112
-1072
-112
-336
-400
-544
-512
400
624
272
-16
-464
-192
848
48
1024
832
720
-224
736
-240
1328
1488
672
304
-304
-1520
-1088
-992
80
-416
-368
-304
336
-48
352
-256
96
-336
-1232
-112
-96
-912
272
64
-1088
-1616
-416
-224
-448
160
-288
-656
-688
-1280
-240
1440
-32
-416
800
816
336
496
336
992
736
-944
-1792
-1136
-688
-704
-1936
-1184
16
-320
-528
-1088
-656
960
240
-944
-1888
-624
592
624
272
480
-400
832
96
-416
368
96
208
-1264
-512
192
416
1216
16
-368
-336
-816
-832
176
32
-304
656
576
544
752
1968
608
368
-976
-1472
-448
-352
-784
816
672
800
1024
-672
-848
-672
-496
-1040
-1136
-400
-1120
-1232
-592
-672
160
-16
-192
-976
-400
-864
112
1120
368
432
528
304
-576
112
-96
-816
-528
-176
-544
-1744
-368
656
-96
-1568
-1232
-880
-528
-1120
656
400
880
1072
656
880
1120
-80
288
336
-32
112
1824
1440
608
928
1552
928
1232
1408
352
-80
512
-112
512
-16
528
688
32
-192
848
-96
0
480
1024
1536
1040
944
192
-1216
-816
-1136
-560
64
112
1088
80
-864
-368
304
544
-800
-672
-144
-416
752
144
64
-976
368
960
-608
-96
336
208
-1312
-256
864
48
1440
-688
-128
-16
592
192
-240
-256
-608
-256
-864
-656
-576
-800
272
-960
-768
-656
768
-336
-592
-1328
-432
-864
896
1024
32
864
880
496
240
528
272
336
624
-32
544
288
-512
-336
304
32
496
592
-64
-480
176
-96
-1248
-1648
-1024
-560
-416
-1536
-1184
-144
-400
-144
400
-32
-112
288
0
592
128
176
-224
-912
-672
-224
-128
-16
432
224
-176
0
336
-192
-128
-176
1296
240
464
-640
-1536
-576
304
-1008
32
-400
-896
-1008
16
-672
-960
-128
-400
-400
112
-944
-1392
272
816
544
608
704
640
-192
1280
-160
-720
-400
-336
-1408
-1248
-784
96
496
848
1040
0
48
208
208
784
-16
128
-192
-48
-32
1024
208
240
-1200
64
384
-512
-96
112
-384
-368
0
-416
-256
-48
176
1040
192
384
800
992
352
1632
848
192
1056
704
-1056
416
-64
-416
-240
880
560
-96
-1184
-1056
-48
-1264
448
1072
928
352
560
-48
816
80
704
240
752
1456
592
928
160
-816
-464
352
144
320
-448
416
176
128
48
-128
32
-656
-208
-272
-528
1040
800
400
512
1296
48
-1168
-1056
16
464
112
-80
192
368
432
736
1744
1344
384
544
192
-16
-624
-720
-1856
-640
1392
1376
-64
464
784
576
800
-256
704
-432
336
-336
-32
-464
-240
32
-464
176
864
1200
-96
-240
224
448
-1936
-1776
-496
896
704
272
128
160
-64
-544
-1280
-752
-928
-112
16
272
-544
-128
-112
240
656
-336
272
144
848
32
800
-48
-544
-544
368
656
864
1232
1232
880
-16
-832
-1520
304
576
-448
880
240
-1104
-944
64
704
192
-192
80
1184
448
-256
192
560
-128
-896
-1040
-464
-48
-816
336
1616
1264
-64
368
-304
160
944
272
-1152
16
-128
-1296
-128
816
848
-624
-720
-48
160
224
672
-80
224
688
736
576
0
304
-352
192
-576
240
1232
-80
-1248
-368
-864
224
592
-656
0
-816
-272
-160
-336
-1248
-736
448
-640
-592
256
656
464
-784
16
592
544
-432
-416
912
560
800
432
432
-160
464
1072
-416
-752
112
1616
-64
-1168
-48
1104
-352
-1088
160
544
448
352
-896
-416
-1072
64
240
-272
752
1248
768
112
-656
-16
688
-528
-576
544
96
912
64
-48
768
288
-608
-960
-32
656
-176
336
256
688
816
1280
640
64
16
432
112
352
16
448
784
1488
1104
896
-304
1088
64
-416
336
-304
-1328
-480
832
528
192
-1040
-512
16
384
128
672
-272
544
1216
-160
-320
64
-128
-384
-752
688
1440
64
-112
160
-528
-832
-800
-688
192
-384
-416
-864
336
1040
512
592
-192
-544
-224
-816
-752
-96
1440
592
48
224
-416
80
560
272
288
320
-176
-1024
112
-144
-1728
-320
-368
-1168
-496
0
800
1808
1104
-592
-208
352
-1024
-928
-96
48
752
736
640
320
288
-1456
-272
-368
-1392
-304
320
-128
-672
-368
480
304
-1376
-1360
-672
-224
576
464
-768
-560
832
-720
-432
736
-32
-1024
272
64
160
64
-272
-16
576
128
-32
-368
-64
-96
-736
-192
384
64
688
-544
-272
224
-960
-1600
-928
-320
-1024
-352
240
1024
1632
160
-512
192
-112
944
656
-512
-576
-128
336
-832
48
672
32
-336
-736
-16
-752
-928
-784
-496
-96
592
1344
-432
0
448
-272
352
-816
976
976
768
480
848
192
-1456
-1392
-832
-768
-576
-512
96
-624
-528
544
112
-624
-512
-656
96
-192
-96
-144
96
96
-256
-688
1136
288
-240
848
16
-1248
464
-224
976
1136
432
-352
304
624
-576
768
784
-576
-1728
-1056
-1456
-1152
896
768
1920
1216
544
1232
912
224
-432
112
608
1200
-128
-800
-144
176
-1472
-1200
-224
-512
416
-192
-64
-112
-912
-160
-464
-688
-432
-128
-640
-288
176
-608
-864
-640
32
816
160
64
944
480
1312
96
336
-1312
-720
-1104
832
960
-208
-96
-496
-128
384
576
528
704
832
-256
240
-480
-720
-1024
-864
256
-352
384
480
144
640
1136
1088
1248
0
272
-16
784
-256
-16
816
704
656
240
384
1056
160
-192
96
448
784
272
-208
448
320
-560
-64
-928
800
144
-256
336
272
512
-352
-112
-592
224
1920
1216
272
-64
-288
-1072
-1312
240
80
352
816
368
768
0
48
-656
288
48
-272
896
16
-640
-512
-368
-304
-48
-272
672
0
-1376
-752
-1520
-992
-1552
-736
-512
-224
272
-48
144
-16
112
-560
-1488
480
1168
720
432
400
1216
-480
544
416
-1552
-208
432
752
688
1392
-240
-1008
-1504
-816
-880
80
112
1040
96
-784
-208
16
1056
320
144
-2032
-160
-64
-192
576
1152
1776
912
512
512
352
416
624
608
960
368
80
64
-1008
208
1008
1120
-272
-1200
272
592
864
-128
-1248
176
432
-528
128
656
768
592
624
816
-224
672
-816
-960
-224
-304
-848
-752
784
176
-368
-432
272
-848
-928
32
-32
-112
1136
1488
-400
-688
-288
-112
-1744
-352
528
-560
-992
-32
32
-448
-496
160
-1120
-944
16
-448
-736
320
384
208
-16
-992
-864
288
32
-672
-176
-1392
-784
-848
-1456
-160
-256
-704
512
128
-16
304
1168
-1264
-1312
-592
1008
-48
-816
-112
608
-192
144
80
-688
-1504
-640
336
-1280
-128
16
-528
-48
80
688
640
-384
-208
448
688
-96
256
-16
-1056
-704
-16
336
704
1008
400
864
-96
176
896
-736
-1056
96
-320
-448
576
384
-48
-80
-160
-720
-1168
-496
-720
-720
640
496
-1232
-1616
-1696
-368
-1184
-432
144
272
560
-544
-992
-800
-832
304
688
768
-624
-1184
-864
-768
560
1056
832
112
832
1168
1664
1472
-592
-1328
480
32
-1120
640
-512
-1120
-1712
96
-224
-512
-560
-688
-64
928
1760
1056
176
448
16
-720
832
-512
-80
96
384
80
160
96
1168
176
-272
1120
1136
-144
144
-96
0
-256
-1024
-384
1328
640
-704
-576
1408
160
1424
1104
-800
-560
-432
-480
400
-144
-256
-592
-1616
-704
-1120
32
304
-688
-240
-528
752
1184
1216
144
-992
880
-288
-224
-144
928
656
272
-368
-64
-240
880
1328
320
-144
320
496
1392
-560
-64
592
368
-448
-464
192
128
-928
64
-448
-1648
-80
32
-528
-592
-976
-416
544
448
560
912
672
-1120
-1040
864
992
-16
-512
-368
1040
1040
1088
256
400
704
288
1856
464
304
992
-864
-720
672
1136
-288
-880
176
448
848
-1184
-688
880
-928
-1488
-704
-1088
-224
784
-304
-384
-544
224
-288
-16
-608
560
800
1328
464
-224
-2048
-1072
288
880
-1472
512
-176
-736
608
720
944
1440
176
480
-288
-288
-128
560
736
1616
-304
-1328
-320
-528
-272
-800
-784
80
128
224
16
112
-704
-864
-976
-352
400
720
-64
-240
224
-528
-848
-368
752
1136
64
-528
-192
-592
96
-384
240
368
-912
-448
-288
-160
-48
80
352
864
848
208
-528
-320
-176
-496
-1008
240
-224
720
1056
1024
-96
-80
-128
912
224
-464
624
592
976
-400
-1984
-272
-528
128
-272
-656
-160
-352
240
208
-624
352
1104
592
-384
-32
608
-704
-160
192
208
1024
144
-672
-464
48
1408
528
1328
1264
848
-736
-976
-288
-1360
-512
1632
96
576
-192
192
528
560
592
416
448
992
192
-192
400
-992
-752
96
1104
816
512
528
-608
-1808
-896
-464
352
-176
-800
-176
-592
-176
-32
864
336
-464
48
-384
-304
224
-352
208
1360
960
-192
-304
128
976
720
64
704
1696
224
-1616
-1344
752
576
192
80
320
1008
1376
1184
544
560
224
176
16
-608
-896
976
-192
-880
-960
-1136
864
1472
-800
-528
-448
-336
-336
-416
368
144
-464
-224
-496
-256
592
912
-480
-1200
-528
672
-720
-1792
-1984
-1040
-432
-800
-544
-848
-800
-560
304
1024
384
-112
-1072
-144
-144
288
1072
1392
384
-496
1440
704
1056
320
-784
-880
-1440
-32
32
-624
-160
80
-912
400
128
-1184
-400
-272
1024
896
-400
-752
-1312
-480
944
-144
-48
224
-624
368
0
-320
-576
-1776
-704
784
-128
320
80
160
-432
-1472
-688
656
1184
528
-384
-288
320
-16
1008
128
320
1120
912
848
-688
-736
-480
-128
-416
-928
-816
-928
32
192
-32
256
1024
-96
-416
-320
-992
-400
176
-496
-1984
-432
128
1040
608
-544
-592
-320
-1984
-672
1088
416
-16
1568
1408
144
-640
-992
-304
-448
336
240
1136
-128
-1056
64
752
96
-288
560
144
-112
64
-272
1120
1392
560
-160
-320
448
-1024
-1024
192
-464
224
-192
512
672
-48
-288
-128
560
-64
-1456
688
448
176
-416
-160
736
-128
2000
912
528
-336
-128
1360
560
944
-32
-112
-176
-784
208
208
480
-368
496
-512
-512
288
-1088
-1440
-656
592
976
-80
-928
-1056
-976
112
-256
576
1072
928
624
704
-448
-400
608
816
192
-1424
16
-480
496
752
480
240
480
32
-448
-304
-112
-992
-480
-304
-528
-1184
-1312
-704
-544
352
-192
336
-624
-304
576
288
-64
944
592
-80
-1552
-816
960
64
-592
1152
368
-1072
-80
48
-80
160
288
-128
-96
944
-176
-368
-208
256
-48
-336
-592
928
304
560
608
-208
-432
-800
-1872
-560
432
-400
-832
-432
-368
-304
480
-48
-304
16
-1360
-1008
-1696
-1664
320
-416
-800
-176
-352
144
-592
192
432
-688
-800
-416
-768
352
-352
-16
-816
400
384
-288
1264
1072
160
-400
160
416
992
-64
-720
-832
64
-1120
-416
592
1024
688
864
-176
544
-304
-96
-416
80
1392
1776
896
-96
448
800
64
-736
720
-832
-816
784
320
-272
-320
-896
-1184
-112
656
592
416
-320
-1296
-816
-256
-16
256
816
976
-176
-576
-464
320
48
-576
-224
160
208
-512
-480
80
128
-112
-256
1056
928
1216
784
240
-576
592
544
304
-80
-480
-1120
-656
352
-448
-1360
-1408
-1040
-752
608
640
-48
-768
816
1040
1264
208
-432
-400
672
528
752
16
-976
752
64
0
-1152
304
768
-528
-80
-832
672
-592
-560
-464
-208
128
144
464
-112
-272
1168
1424
336
1104
400
800
592
112
640
1024
-32
400
-80
-208
-928
-1168
-864
-80
-176
-256
960
-1168
-1216
-688
48
320
160
-416
-416
64
-704
-720
336
288
448
-80
432
624
-592
-464
-576
-1296
-240
1472
944
-64
288
208
-32
544
784
224
-752
-304
144
-336
-96
-816
-336
-144
-1184
-368
1136
-32
608
-192
-1152
-64
704
336
448
304
240
0
-736
-240
-544
720
32
16
-432
-544
64
288
-576
-848
32
704
128
-752
384
-704
-512
-64
-1120
-128
-176
432
-768
64
512
-32
672
864
736
144
368
-1104
-960
752
-560
-368
480
464
352
80
448
-80
336
656
320
-272
-1120
592
-96
368
128
-512
-16
864
1504
384
368
1200
-48
-864
-64
1056
736
-480
-80
256
592
-400
864
-272
-912
-1088
496
192
-448
112
352
-128
-560
192
-96
-48
-528
240
464
-144
-1024
-176
-368
176
96
16
528
240
-448
240
688
752
-512
-1152
288
192
-576
-464
-192
112
736
1088
768
672
176
576
-512
-240
656
-592
-1376
-1008
32
-320
240
-352
-336
-240
-1040
160
1696
416
-272
64
176
-16
-512
-400
-1568
0
912
160
496
480
-368
592
256
48
32
-896
-720
-848
-464
-128
320
-144
-976
-2048
-704
-32
1088
736
-608
-816
-496
256
864
240
-416
320
960
208
736
400
-208
-912
-960
-256
-624
-1056
-1008
-128
32
-256
-912
-672
272
704
-64
640
544
1264
1680
96
-496
800
560
272
-416
-736
544
-112
-576
-64
16
-80
1040
288
-928
-1056
-176
-528
-912
48
672
640
544
128
-464
-400
-576
320
1568
1552
96
-432
1280
1136
320
16
496
1472
1328
1136
512
784
512
-272
1072
912
896
1536
1344
1744
1168
-160
-944
-464
928
1632
1536
576
-752
-160
848
48
832
-320
-880
96
1120
1696
384
-480
96
272
1424
-64
-848
-128
864
208
-1120
-240
432
-928
-224
-384
1440
1216
640
-80
-832
-208
608
928
432
1232
1424
-704
-1552
-656
-464
752
-624
-320
784
384
-816
-688
-448
864
976
880
-592
-1120
336
-368
816
112
-272
-144
816
16
-464
-1232
-384
688
176
-640
-384
-112
368
496
448
768
800
-464
720
1648
80
-896
-48
-16
224
-400
192
304
480
800
176
368
592
16
-368
-192
-768
640
112
352
368
288
16
944
592
-1488
-1200
336
-384
-16
-400
-896
-736
-1664
-1680
-288
-1328
-1056
368
-576
-768
-224
320
1040
1248
672
80
352
224
-16
-1008
-1760
640
512
-832
48
0
496
160
128
-656
-1136
896
368
-752
-32
992
240
80
832
1040
-720
-848
240
-272
-32
-528
416
-416
-80
240
592
-736
-624
-496
976
64
-832
432
-832
-208
-16
-80
-144
656
1184
-32
432
576
224
208
112
-1008
-480
1088
960
800
192
-80
-32
496
832
-592
-928
-528
-928
-800
240
496
464
-112
-560
128
-784
-880
-448
-224
-880
-336
-880
-688
-352
-352
-336
512
224
1296
-256
-1184
-448
16
624
688
512
448
656
256
-1104
-1408
-272
960
192
-160
-128
880
880
1104
1152
208
464
-784
-336
-272
-928
-1024
-224
352
256
-528
-352
-384
-1328
-416
-176
-416
400
80
-848
-704
-992
288
-288
-1216
-624
-1728
-320
-80
-80
-240
208
-496
-624
-192
-80
560
-48
-464
624
-304
-384
-240
-688
-576
656
-528
-400
240
-448
-592
896
1872
816
384
496
256
-464
784
576
608
608
320
544
-720
-288
-592
-960
-304
1760
224
-144
-336
-432
192
624
336
-560
160
-560
-48
1264
896
800
688
-640
912
-224
-256
-16
448
304
1184
432
-32
752
1216
-544
256
240
160
928
48
-288
-1472
-1088
288
400
112
-160
-848
-528
352
752
1072
288
-400
576
-400
-1200
-480
-464
-48
-1056
224
112
400
1952
32
-688
128
-288
-48
288
1056
720
-608
1392
368
-64
-1472
-576
-128
128
208
176
208
880
-288
-336
432
768
-176
-464
672
112
896
272
480
96
448
-576
-368
-160
864
-64
-1184
-448
-448
-576
176
96
-400
-240
272
-560
-16
-704
-1184
-16
64
96
-816
-720
-1024
-48
448
64
688
-640
-96
1856
1376
672
-192
-864
224
752
80
-80
976
496
-576
-608
368
-704
-288
-576
-912
1120
640
1072
0
-448
720
-160
144
-624
-16
-208
-336
128
-464
256
832
2000
1616
896
1760
352
-304
272
-192
32
-384
480
0
-48
48
-576
-480
-544
48
416
976
672
1280
400
176
-176
144
-864
-400
400
352
-720
256
528
432
320
-1072
-992
-960
-1392
-672
544
-1008
-1488
-880
-432
128
-448
-80
848
-144
-368
32
208
-1056
-976
-880
-848
-1152
-1072
-736
-224
-448
384
464
592
-592
-384
-384
-832
-160
-704
-816
-960
-512
368
592
1008
1328
672
-336
96
-352
-1712
-672
320
432
-160
-304
-688
-368
-112
-352
448
-768
624
928
-256
-1200
224
-560
288
352
352
896
1840
592
-368
736
208
-1584
448
-256
960
304
-912
-560
-1232
16
224
1360
480
1040
-256
-928
-1520
-1408
-544
144
720
448
-784
-832
-1168
-1600
384
0
-432
480
368
160
320
-1568
-160
128
512
272
-48
-144
-224
-832
-528
736
-480
-1088
-528
-1344
-320
32
480
1232
-384
-896
-480
640
144
16
-176
-1216
-48
432
496
-224
-304
-864
-960
-544
-1408
-512
-304
-80
-560
160
736
-544
608
-288
608
528
-224
784
80
-1024
0
304
-720
-256
0
160
-976
-1872
-1504
320
1136
-176
-640
-1280
-112
128
240
-112
992
816
-64
272
-128
832
1184
1488
1504
1216
464
560
256
-192
288
-784
-144
464
-416
656
1952
1792
-176
-1232
-800
-624
-1088
-592
640
80
-480
48
1088
384
-432
-848
-1712
-592
320
64
832
-32
-416
-1392
-688
928
880
-464
-480
-592
240
-352
-832
-16
304
176
-416
-592
256
768
-32
1072
1184
432
528
544
-944
-272
-384
-640
128
-784
-240
-816
80
-240
-624
944
1344
80
800
1184
688
-224
-480
-672
384
1280
256
64
-624
-672
-80
-1744
-1216
992
720
-1472
0
912
896
784
1872
1024
-528
320
1568
-176
-592
400
-160
944
528
736
336
160
-448
496
-176
608
768
-688
-384
-672
240
-864
-688
352
256
864
576
-176
-432
-656
-32
608
-160
-464
-1072
-368
1184
160
288
384
-528
-448
-288
-608
512
-160
-304
384
144
144
-96
352
320
288
336
0
144
-352
208
672
448
-1136
-816
-800
320
992
320
864
704
-288
-528
976
1248
1472
288
-400
-128
0
-448
768
1008
480
944
992
128
-576
-320
272
-1296
-480
-80
-208
-288
-160
0
144
-512
560
-416
1216
1248
432
336
-384
-48
-944
-240
1232
976
112
-1392
-1408
-336
64
752
-480
-144
-384
352
960
64
-288
-336
-128
-560
0
-112
-304
-1648
-1136
-1568
-528
1184
720
304
576
-640
512
352
752
576
64
944
-640
-752
-1312
96
-928
-1488
-1280
-560
-864
-1664
272
-608
-1056
-944
144
-1200
-1664
-992
48
624
-32
-256
800
-720
-1072
208
592
-304
304
400
176
-560
-448
-400
-400
112
-144
-768
304
-144
-32
480
928
16
32
-384
768
0
-736
880
1520
288
-480
416
-336
592
832
-48
-256
-480
-624
1856
1648
-48
-1360
-1824
-400
672
512
-1072
-576
-240
432
1328
656
-832
272
80
-928
80
-16
-464
-608
-528
-80
-448
416
1328
-928
-1296
-80
-560
-80
-208
-1072
1536
1328
1184
64
240
-1216
-96
976
-368
352
-1120
-880
496
1216
-272
848
288
704
1312
784
288
-368
1520
336
624
752
656
-912
224
-112
704
-640
-848
816
832
1040
720
1056
976
-512
-656
256
464
-128
1040
560
-1216
48
720
-976
-480
-1264
-976
-576
-16
-800
144
-64
-624
-1008
224
224
80
352
272
-784
-1360
-80
-800
608
176
192
560
-832
-16
1296
640
944
-560
-704
-832
-1120
-208
400
-752
-336
640
1472
496
-1664
160
1088
384
320
752
16
176
464
-1536
-608
-544
-336
-816
-1344
-832
-432
96
-32
-288
-1088
-800
432
528
-416
-704
-832
-16
-928
-992
720
208
-96
-96
160
-144
-512
-976
-528
400
-400
864
528
-416
336
-512
-720
304
32
608
-432
32
-320
304
144
1024
704
-352
-448
592
-752
-992
-432
384
208
608
192
-96
1264
-144
-256
-592
-160
896
32
-1072
-800
-912
-352
-416
-16
-192
-48
352
1664
384
-672
-32
-1072
-576
1264
272
368
192
656
-400
-752
-272
-976
48
320
-704
-592
-432
80
720
512
-464
-256
160
-32
-464
-400
-400
976
240
-864
192
-240
-480
704
352
624
-272
-576
144
144
1040
16
128
-496
176
-800
416
880
1344
-608
-240
480
1056
1072
-624
-1040
-240
-560
1024
432
288
64
-832
-1040
-912
-192
-1120
-1616
-1632
-1328
-32
-560
-1408
-32
-304
-432
-64
496
-224
-336
112
-240
1712
304
-320
-336
336
208
-640
-752
-1024
-1056
-96
848
288
144
-1024
-896
-1648
-368
-896
-1360
-656
368
768
368
160
-192
-1248
-1344
880
144
-112
16
208
-256
-384
128
-528
-432
480
-576
-480
-464
256
528
624
976
304
928
-320
-368
-32
-1008
-848
16
-448
368
1360
592
576
-576
-480
-512
32
368
-96
-512
912
48
-560
144
-816
-1552
-544
1600
912
176
368
-544
64
368
-736
-480
48
0
-240
64
-1408
528
1152
256
368
672
848
-544
80
352
720
896
-944
-592
-608
352
1568
1120
208
608
1200
1920
1024
-656
1072
416
368
336
432
1968
1264
-288
16
960
-496
-944
-112
-768
-1104
832
304
-592
80
880
-80
-1008
352
736
64
-528
-896
-208
-832
-1328
-1056
624
784
384
1248
1440
288
1600
832
-208
272
128
912
-16
-480
-1104
96
-528
-720
-48
-1056
80
944
816
944
240
128
976
800
352
528
-576
-480
224
144
224
96
-560
672
80
-368
-688
-272
-432
-272
-592
-352
144
192
432
1104
1728
512
-864
176
-1424
-1120
-32
-144
560
0
-240
-976
1072
240
-1168
272
432
336
1760
304
864
-144
224
528
-416
-336
-688
-448
-176
368
-480
-416
-80
640
1712
672
400
816
592
416
176
736
512
-720
80
272
736
1392
400
-288
-48
1104
1104
-256
-528
944
1872
736
544
-528
192
752
1424
640
-80
-624
-16
288
-464
-32
-1072
-1360
-1888
-1200
-1808
0
-304
208
1008
656
576
-1200
-480
32
-224
-1392
-640
336
1728
1456
-640
80
-64
-992
-896
192
1136
496
-112
-624
-256
880
96
1712
1184
-80
-240
-896
-1280
-656
48
-80
-192
-752
-576
1168
-272
-544
-560
-336
-192
800
704
256
400
-1072
-1680
-1376
-720
-992
80
-528
-352
-112
-544
-432
720
128
112
240
-256
-208
304
304
-128
240
960
48
-688
256
672
592
-48
-16
928
576
-160
-432
-1024
-1344
-1584
-512
432
784
1472
160
336
480
-1008
640
1648
880
992
448
-64
-256
-288
-1296
-1312
-480
-560
-720
368
-192
-384
-560
1040
912
1328
1808
0
384
816
-368
-368
0
-928
-464
160
512
-112
-832
-80
-784
-1856
-960
-176
-304
160
928
80
576
304
80
-144
-1056
-736
0
-416
208
96
-304
-1056
-976
-832
160
384
0
672
560
1232
880
-112
-800
-752
-736
1200
144
336
-1008
-464
-592
-992
-736
-192
80
576
-144
-1232
-1488
-976
-256
-720
624
736
576
-1008
-928
-96
-768
-112
48
-96
-272
-272
688
800
-1056
-400
-848
336
624
-352
-336
176
-656
160
-288
976
976
832
144
-624
272
-208
160
-16
-192
64
432
-656
-1360
688
832
-928
-1104
-32
-480
-528
-432
112
352
32
-272
-336
48
-1264
-704
912
-208
144
464
176
192
1104
1520
432
912
-160
-432
-80
768
48
-896
-64
48
528
608
480
1936
624
-368
496
1440
720
-256
48
-752
144
112
768
320
912
384
912
-32
-240
224
512
304
1456
704
144
96
1280
80
-1056
-768
160
-112
704
160
1552
832
352
176
400
704
-128
-752
-944
-1392
-1392
-976
528
384
304
224
-1232
-1024
-96
-16
-80
1024
192
-368
16
-832
-432
1360
1344
336
112
-192
-800
-768
1088
1248
688
-80
-736
-896
-176
384
-592
-1040
-320
160
912
272
-832
32
-160
560
-272
256
-720
-1024
-976
576
-208
640
384
-624
-496
-928
-1728
-1632
-1792
-288
-704
-1440
-1152
-272
224
912
224
384
432
832
-160
-320
-768
368
16
-304
-624
-112
-512
-320
992
128
224
1024
112
-352
32
-560
320
-352
-576
224
208
1056
1664
832
320
1344
608
-528
-1088
-736
448
-544
0
-720
-752
-400
1024
-320
-1008
-480
1504
592
960
304
-464
80
1728
640
448
656
928
464
-624
-48
-992
432
1008
304
832
-528
-96
-112
576
1328
1440
-576
-1952
-1648
-448
1264
752
544
-32
368
-480
208
864
464
-480
832
1056
432
1088
816
-464
176
192
-1008
-384
-80
-208
-896
-624
-1008
-1040
-640
-320
304
352
608
-624
-800
-736
544
-272
-544
-272
32
528
576
-912
-320
80
32
-16
-512
-336
-240
-128
-80
384
992
592
192
1216
848
592
1616
432
368
-416
352
-112
-368
-1168
-528
-16
1152
528
-224
64
432
-256
288
624
976
128
-64
-928
-1792
-368
160
480
1024
320
512
400
-720
-896
-1040
-1904
-800
-352
-496
-96
480
176
160
1056
-16
-496
-304
-544
144
208
-1024
-448
272
272
608
1200
1152
-1440
-928
-1504
-384
-192
128
752
304
1120
608
-304
-1280
-1616
-480
-432
-704
768
1056
-1248
-1040
-32
80
16
400
912
-448
96
784
-480
-960
-576
-288
128
544
-736
-1424
-480
-672
-1088
176
1264
864
608
48
-416
-272
336
-128
896
640
-432
-128
-384
-512
-976
-1184
-640
-1328
-1248
-288
432
-112
864
1120
224
-272
-576
-160
592
848
-512
-1392
-864
-416
-1136
-672
-240
-880
1184
-656
-1120
0
-1104
-480
592
1136
1312
848
368
-304
-672
-416
-144
-560
-608
560
688
-448
-1040
160
544
-176
-496
-224
-336
176
-288
256
496
0
1200
1168
576
704
320
496
976
-384
-96
-176
-80
-560
240
-720
-1088
608
464
-960
-544
320
32
1408
1296
544
928
1024
-1040
-496
1136
-304
400
112
-768
-1952
-720
-688
-256
656
-768
-1328
-800
-1424
208
496
-720
-496
-336
80
-80
-336
-1200
-800
-32
-16
-336
-1136
-608
-640
32
-1136
-736
-464
720
-672
-320
-48
-80
240
464
-128
-32
-16
416
976
1552
1008
224
864
64
-592
16
192
-432
-528
-352
656
544
1328
-304
-912
1472
1168
-768
-160
1376
416
0
832
752
96
656
192
288
976
-272
160
432
304
992
1008
0
96
-672
-992
256
0
336
800
144
-656
1088
1312
-800
32
480
-384
-1152
400
672
-368
560
1152
944
304
1840
176
-464
48
-256
-816
-352
-240
-368
288
-592
-592
-672
-704
-880
-1376
-80
-464
224
-688
-176
-1520
-432
-832
-464
-784
-240
-576
-688
800
1456
1056
-400
480
1296
-384
432
-832
128
-528
-112
768
-208
-848
-1088
-544
-48
-336
496
240
624
-448
-768
240
496
1008
1200
-496
-384
1392
-448
336
576
-272
-176
864
-64
752
576
-1024
-240
80
256
-240
-576
-896
-1440
-336
16
-144
-240
832
16
480
144
-976
-496
-304
304
-736
-944
-704
48
800
-560
-48
416
752
-752
-448
-1312
-112
496
-1040
-896
-272
544
544
-288
-896
-464
672
608
416
720
208
-1408
-624
0
-96
-752
-800
-288
-352
704
1536
544
-544
-928
-1376
-944
-720
448
64
-832
112
-416
432
432
480
880
736
-448
-896
-624
848
1248
-272
-544
928
1808
-128
-768
-368
-1104
-640
608
128
880
528
-624
752
-1104
0
768
176
-592
1008
960
688
464
416
960
272
-880
432
-480
-416
560
1552
1088
432
272
800
544
640
1008
848
752
-48
-192
1088
1120
496
256
672
224
160
-672
208
448
-48
880
640
576
992
-112
304
992
560
-720
-1296
-304
-304
-480
-1120
-896
-16
-1824
-2048
-1648
-1264
-432
704
1152
528
480
160
-720
480
544
-944
-1024
-784
-800
-752
384
704
288
304
-640
-384
624
512
-1328
-496
-352
-32
1296
-192
960
1232
64
-912
-912
-464
176
-512
416
-912
-336
-144
-448
400
976
-1232
-176
944
800
1296
-432
544
640
1392
1040
496
1104
-560
-656
128
1584
432
-800
-1424
272
336
-704
-144
-880
-176
384
128
-464
-784
-16
-48
-944
368
0
-1024
-1104
-160
560
592
1248
-768
-320
-352
-256
240
-720
-432
-1296
-976
-976
48
-608
80
736
240
0
-480
1056
1392
-656
-1728
-544
-640
432
-64
624
1056
800
-416
80
544
-192
288
1392
-496
-880
320
192
448
224
-240
912
80
-816
0
-928
-416
-240
0
-144
-64
400
-480
448
1264
1328
592
608
1760
240
-832
224
688
592
-880
-1312
-32
736
384
720
160
448
416
256
192
-720
-1504
-16
272
1760
1072
-544
-752
-112
992
864
-496
-880
-224
320
256
688
672
624
-144
-304
480
672
-432
-16
0
-48
-80
816
-752
-480
576
1376
1072
528
208
-448
224
-128
-416
528
368
-1168
-48
0
880
64
-64
-768
592
576
-176
0
-224
-320
-384
-144
528
-208
-688
-816
-112
-224
-976
-1184
48
-1088
160
1216
-32
-448
432
240
-80
624
1056
624
-128
112
-144
-176
256
-704
-448
-592
960
624
736
528
-272
-752
112
480
-576
-1696
736
1104
816
-416
0
-448
-1664
-432
112
400
960
-64
-832
1008
1328
240
288
-160
-384
-1264
-832
240
-224
32
-1040
-1232
-1552
-544
80
-400
368
-48
320
-1168
-832
80
288
1264
736
272
-736
352
1104
256
-1040
-480
272
112
240
160
-480
896
240
288
560
208
-640
-1264
-48
80
16
-704
-304
-288
656
-256
-320
560
-304
-288
160
32
-432
624
-848
-768
656
1040
1376
16
-128
96
1136
656
448
1344
864
576
-496
336
672
704
848
560
272
992
2016
-400
-640
112
-752
-96
368
704
864
-320
-720
-208
208
-240
-912
720
96
256
80
64
-784
-80
-672
304
544
-544
-1056
240
736
-784
416
992
1264
400
-432
1104
1744
-288
-80
-720
160
176
144
1872
768
448
-560
-704
-976
-1072
80
-368
1056
192
448
-208
352
-160
-896
-896
-624
-160
208
-688
-32
-304
-192
16
272
720
736
112
-720
240
-432
96
432
1264
768
800
688
-224
-272
944
464
-1360
-848
-1072
896
864
-912
-960
-848
-1136
-944
-448
-704
-352
-176
0
80
320
-192
-128
752
528
-816
624
-288
-400
256
-768
-704
-688
544
-1200
-1264
-1776
-240
192
-384
-272
720
-160
-208
-288
-1024
208
352
-240
-272
304
-80
752
1296
848
-96
-528
528
256
-608
304
1040
64
-656
-64
784
176
-16
272
-32
-560
-128
-880
784
1120
1344
320
-640
384
-1648
-768
768
912
688
720
-176
-208
208
64
384
928
896
432
-48
-432
-368
-848
192
400
576
64
32
576
-880
-496
-112
-272
-752
-80
1104
1056
-912
-864
0
752
-320
112
-464
-160
368
1152
1104
-592
-896
-192
-80
-192
-448
-1136
-704
48
32
1104
1088
-1232
-1152
848
592
-512
-624
-528
-160
16
800
336
240
-176
-240
432
1088
-576
-576
-432
-496
96
256
1456
752
1008
384
432
80
208
704
544
432
1408
1904
336
-240
400
-240
-144
-1152
112
288
-544
48
272
352
-96
-752
880
496
-544
32
160
-192
-960
-1152
-736
-112
32
336
-96
128
-464
-800
240
416
-288
-16
1440
-64
-288
-48
672
672
240
416
-512
-976
256
-272
-640
0
1232
784
368
-16
-832
-240
400
-96
-480
-112
-320
1024
672
-288
112
416
160
-704
-1456
-368
480
-272
128
336
736
752
0
-816
-128
672
288
-656
16
-512
-288
-624
320
-272
-144
-560
-624
-400
-864
160
288
288
32
128
-336
-512
736
320
752
992
112
-800
-960
-704
-592
-1136
-1200
-400
1120
304
608
800
592
112
-640
-736
-1632
-608
624
-416
336
768
1296
192
224
224
256
-832
-992
224
32
800
-112
-1216
176
288
0
256
-432
-240
-64
560
128
80
-48
320
-416
-432
384
-1152
-256
-656
-960
144
800
1024
-512
-352
-544
304
-1008
512
1488
1440
1088
-448
-352
-496
240
560
-208
-400
-64
-192
-96
1136
160
592
848
-304
-560
-768
-1040
-1664
-1120
-272
-384
160
832
832
208
128
-560
-144
624
-224
1184
-384
848
1344
1104
-240
-784
-816
144
128
-208
-368
-736
1072
-256
-896
992
1168
112
-352
-320
-848
-912
-320
496
96
-496
992
-784
-912
656
192
0
-176
-624
-560
160
96
960
-752
-960
544
416
-816
448
304
-896
-528
1072
-1120
-288
64
-800
-224
-1008
-48
352
1200
128
-1184
-1104
0
288
-480
304
-400
-736
-896
-672
-576
352
32
-752
-768
-816
-48
-784
-448
-1408
-1216
-1648
-208
-96
-304
736
528
-640
-592
720
-64
-880
608
1408
-496
-608
-544
-128
-672
-848
128
496
-176
224
-256
-1056
-384
-112
1024
208
160
0
-624
-512
1424
1200
560
-176
304
416
1024
944
-96
-512
-448
80
800
-64
336
0
80
-272
176
1488
1312
400
-768
-608
400
-32
-64
-96
-848
656
944
-208
560
480
1296
1328
-48
-768
512
-480
160
-32
400
-576
-752
-208
-1312
-48
-256
-144
576
224
-560
-816
592
80
64
-656
-16
480
-352
-640
-592
-1120
-832
-608
752
-512
320
288
112
-720
-528
720
352
400
320
64
608
-512
-576
-704
-608
256
-224
-432
-1040
-192
-480
432
1520
592
-224
832
128
-864
-672
-416
-592
-80
-496
-160
528
992
144
-560
-768
272
1104
-320
-416
-96
416
32
-48
-1024
-368
816
-880
-240
1552
1904
1056
-144
144
64
976
-432
-1536
-896
-400
384
416
-112
320
944
-368
-208
976
-784
-1312
-1408
-656
112
896
-416
1072
224
-1136
-448
-480
96
-960
336
512
1200
896
512
224
-112
-32
192
384
-320
-160
-160
-624
-464
-128
624
416
176
-592
512
16
448
1248
384
-208
592
-240
-304
112
208
-784
-256
-192
80
-304
720
32
48
144
-336
224
1024
1136
560
320
1232
960
448
496
-224
-320
464
576
32
368
-112
-560
80
-400
-1056
-1872
-1312
-1104
-48
208
576
512
480
384
640
-736
-720
224
1248
1632
144
-192
256
176
112
768
240
-192
-512
-832
-1040
-272
144
-976
-416
-1088
-736
256
-176
-704
-32
-1152
160
-736
-1472
-576
-400
480
-1568
-1056
480
560
608
-784
192
176
-576
-528
-720
-1552
-448
-160
48
-720
-1504
-80
240
-352
-512
496
-64
144
224
-112
-160
576
992
464
-224
208
336
-928
-1424
-224
-64
-496
-1360
-224
-384
-256
-368
-1424
-624
688
192
-80
-928
-1072
-1408
144
864
544
-496
336
496
-688
-560
-112
464
-576
-176
-256
-1200
384
480
464
272
-112
-16
-144
-304
1120
448
-48
-560
688
336
16
-960
-224
16
-1216
-128
-336
-848
0
288
-64
464
-368
-768
912
176
-624
224
-672
-816
-672
-608
880
256
368
48
112
-112
-48
848
288
-1008
-624
-896
-896
-224
80
560
-64
-448
-1056
-896
-1200
-1728
-192
240
-576
1456
1712
512
-400
-304
-512
336
528
336
1776
320
-240
816
1120
800
-320
-80
352
-992
-640
-496
112
816
-736
-192
-272
-256
-1152
-832
-1792
-192
1152
-848
-336
-272
-144
224
704
160
384
416
-624
-496
-336
352
-336
480
-112
-304
-480
-976
-1200
-400
240
224
96
512
512
-464
-752
112
16
-560
432
512
-1360
-496
288
272
128
448
272
1568
928
-848
-368
640
800
816
608
128
-16
-384
320
-784
1072
864
992
144
-496
192
656
752
-288
368
480
-48
-576
176
-208
832
1344
-736
-16
656
1824
1280
64
-832
-1200
-1856
-656
-400
-512
-240
-224
592
-496
-944
-256
-16
-64
-928
496
80
-880
-944
-112
-1472
-192
704
-352
-400
-48
-192
-64
352
128
16
192
-384
-208
800
160
160
-16
-1264
-976
384
192
-32
112
960
912
768
880
-960
-144
560
-144
-784
528
736
960
592
224
208
400
16
352
576
-288
272
944
-288
-688
352
-496
-832
336
64
944
1152
32
-128
-480
-1104
384
768
192
-608
336
752
-944
-288
448
32
768
-352
480
288
320
16
288
224
768
-544
-528
-128
-640
-704
1568
240
176
768
160
528
448
-320
-16
-416
-544
240
320
-32
-128
-128
336
352
-592
688
-336
-32
-144
-512
-816
-1104
-1344
-1120
-176
816
16
-96
512
-400
416
1200
832
672
128
64
-96
224
768
-496
-432
624
-112
-400
96
96
112
-432
-320
-96
48
-1184
-448
-16
96
1024
0
-16
-32
-1120
-304
48
960
-288
80
240
-256
-336
304
-64
928
320
-464
528
704
1008
704
240
640
1184
-144
80
576
-112
-288
320
256
80
-432
-96
976
512
-784
-768
-192
-80
1056
224
160
-576
-1328
-1328
-1888
224
-864
-1776
-208
-256
-192
32
-528
864
-640
-1056
-400
400
-112
-1584
-1248
-512
1360
96
208
1184
-192
784
592
80
1216
1296
-48
112
880
816
704
-992
-560
736
304
368
624
176
-656
624
-144
-288
928
896
-816
912
192
-1152
-48
688
-272
592
288
1072
-208
224
-304
-128
-112
64
528
-464
112
1056
32
-784
-304
768
560
272
672
-320
-1424
-848
-400
-720
176
-160
208
144
576
368
-272
192
-128
-672
-624
-624
-1472
-528
912
-240
-432
128
1008
512
608
1072
-240
-304
1008
144
-144
16
-1360
416
2016
848
-336
128
880
480
-560
-272
224
1408
1040
-64
560
1104
352
-128
-1152
-560
-240
-432
144
-48
32
-240
432
96
-368
-1696
-1424
-736
352
-160
-272
-656
192
-1440
-528
-608
176
96
-1264
-944
-528
80
144
-192
-672
592
1296
544
864
880
608
-112
-96
-992
-1568
-256
-80
-416
-288
-1200
-576
-240
-192
0
336
16
-224
976
-176
-192
560
704
-576
192
0
-1024
-1072
-192
192
-16
320
-400
-272
560
304
-272
480
-400
464
-1120
32
1104
400
-464
160
64
16
-656
16
1136
-1712
-864
-848
-544
608
608
592
-1088
-1200
-1552
464
-160
-608
-816
928
-464
-656
-560
-208
-736
-1024
-576
-112
480
448
-112
-288
528
-480
176
160
864
704
272
-192
528
-1120
-1520
-1136
864
1664
944
1344
-144
-880
-592
576
-176
-640
80
192
-544
-224
208
560
16
1072
304
-1440
-688
-464
816
1776
1536
-112
-528
192
544
256
560
576
512
-416
96
368
208
1488
1152
912
-384
-1008
-576
-64
160
448
256
320
-128
-608
-1232
-1088
-944
-1248
-544
-1136
192
-176
-336
224
-128
-208
384
-880
-352
-256
-336
64
208
176
-368
-1120
-80
336
784
144
416
944
880
1040
608
848
128
48
128
-1264
-720
-192
1072
784
368
480
-112
-448
-240
-16
-208
-176
-720
0
-608
-576
-16
1056
144
656
1152
-16
-448
176
-1168
-640
-368
-544
-416
688
960
-720
-320
128
832
1424
256
-944
48
1840
1968
800
208
384
752
1136
752
48
-256
-272
-608
-880
-400
512
480
-352
736
416
160
608
96
64
1520
1040
-688
-1312
-1216
-272
-128
144
-1168
-464
752
-320
-48
32
-1328
-688
-864
-1056
-208
144
-416
-1552
-192
880
192
720
224
-272
-192
976
-256
-1104
-432
-528
128
-144
288
976
-32
544
592
496
-32
208
-544
-1088
208
368
-1024
-1408
-656
-480
-528
1264
1152
752
0
224
-192
16
176
-272
-416
448
416
-272
944
-480
-320
400
192
320
1200
128
-544
-688
-848
-1200
-464
-416
80
-224
-224
448
384
-256
-1600
-960
512
-48
-192
336
224
-144
-192
592
368
-208
0
-560
64
368
432
816
704
704
464
-160
784
1440
416
16
224
144
96
320
640
1280
1936
1600
640
-160
-656
-1024
-1040
-416
-656
-576
880
1616
752
-432
784
976
-128
144
-208
672
192
64
-1296
-1136
-320
-336
-512
-432
144
832
1072
816
1744
-400
-1824
-48
176
80
-16
-640
-1920
-1200
-80
448
128
352
400
112
656
432
-944
-736
96
-112
-448
-16
-224
-784
-464
-848
-1552
160
304
752
656
352
304
64
-160
368
928
624
192
0
-816
-320
-960
-1472
-752
-96
-656
512
576
800
288
688
1312
576
304
-944
-608
464
912
240
1440
512
-16
1616
1408
224
-368
-416
1344
1072
448
624
-432
240
-624
-1136
-512
576
-736
-912
96
384
672
256
-48
528
496
-288
-96
-2000
-480
32
-304
-592
80
1920
816
752
-48
-432
-208
-160
-1008
-544
912
416
-144
-48
-832
320
144
-1264
-160
944
1328
720
528
-384
112
-48
144
-112
-752
832
-272
-1536
-1024
-64
592
-256
944
720
624
480
416
544
304
-704
-800
-176
-592
-1040
-592
208
-336
416
-448
-176
-912
-1136
-400
-544
-160
304
720
-592
-1360
-496
-272
-176
-16
-384
-240
-288
32
-80
-656
-1280
-192
-352
-160
-768
80
80
1376
304
-48
-560
-848
-464
976
912
160
-496
-224
-80
1200
656
832
816
240
880
512
384
-736
-768
560
224
48
1616
816
160
1008
128
480
-160
48
-240
32
368
864
-320
-560
-272
-1904
224
416
-976
-688
-1296
-1040
144
-192
352
352
320
640
-672
-912
-1760
-144
-384
-944
-272
-736
-416
0
608
352
96
-80
-16
48
-480
-272
-944
496
-384
-1184
-144
704
-336
-96
-80
-192
-688
-32
448
-384
-128
768
256
-16
272
272
-288
432
384
256
416
464
416
-176
640
-352
-496
-1552
-1184
224
720
128
768
0
384
272
192
464
224
1280
-176
-160
-800
-1168
-512
-448
-1120
-448
-752
640
-112
-160
1424
1360
736
-1168
-80
112
368
416
928
1056
1040
1264
208
256
1568
16
-320
816
-496
-432
448
304
464
1168
480
-1216
-1616
32
832
-752
144
-64
64
-320
176
368
704
-816
-144
720
-544
560
-48
-1040
-768
-224
-784
-432
-864
-1168
-1152
1072
448
448
-400
768
-144
-416
-384
-208
400
1344
-80
-576
-304
416
-528
-880
-1152
256
64
720
512
176
-192
1024
400
-64
-64
-400
-688
-672
-960
304
496
-112
768
-224
464
-192
1632
1136
-144
-144
144
-944
-480
-304
688
-416
-928
-1312
-1232
224
80
-944
-768
-304
240
64
-816
-1168
832
352
-480
848
-320
-288
1168
416
-672
-448
304
656
560
-1280
-928
1248
832
1504
1376
-656
-544
-864
128
1152
288
128
400
-224
272
304
-160
832
1008
656
-624
-304
-224
192
-80
48
-32
96
800
-464
-1264
-192
-16
-64
1152
320
112
-560
-640
80
432
-160
96
288
560
208
-768
-64
-928
-48
1488
1472
1216
656
240
576
160
816
240
112
192
16
336
160
-128
-256
-592
-80
-256
-496
-336
144
-144
-608
-528
656
-192
-16
48
208
-1424
-720
-304
-816
128
176
-368
1648
896
-384
144
768
-256
1008
-400
608
1296
496
-224
-720
-464
-896
-816
-800
-336
480
176
-96
-832
-352
-864
192
1072
848
720
-1248
-1040
-1040
688
1744
736
-560
-1152
80
-544
224
1248
1136
128
0
256
-320
-288
-64
880
832
-512
16
944
96
-752
64
240
-176
-64
224
-624
-96
736
544
-736
-1120
752
1104
1200
640
-1472
-1232
-320
144
32
720
416
1296
544
-656
-224
-464
240
496
880
-896
-832
224
368
272
-96
-304
-640
384
528
-48
544
-16
-592
-144
464
-336
-784
-768
-912
-688
-176
-656
-32
-96
-512
-480
464
1232
912
784
960
-1184
16
352
432
400
448
256
304
-688
-384
-336
208
112
-544
-176
-48
-1376
-384
48
864
-16
-1120
-112
-160
-64
1024
704
-464
-864
-1344
-1360
-960
-80
640
-160
-736
-704
176
-272
-544
-816
640
320
-416
-1424
-80
304
464
-608
-416
-1152
-1712
-768
576
-304
-960
-128
-240
-480
816
1200
1072
128
-704
-640
-1008
-368
-736
-192
-48
1344
432
-544
416
1120
-576
-496
-400
128
-368
-784
-96
-400
-480
-528
-224
-352
16
-800
368
-816
-1008
-1776
-368
160
-960
-464
784
1008
864
1328
640
608
560
800
-544
-848
-1408
464
-256
-384
32
-832
-576
704
-528
864
416
-432
304
112
32
704
-48
16
576
1456
1040
-384
-336
-544
-496
-1184
-400
-656
-544
-1088
-832
-480
-1040
-192
-832
-1504
-496
-224
96
-1232
-416
-656
-544
-720
-480
656
1120
1152
800
1344
1056
1024
288
752
1440
1424
-1056
256
1040
400
640
-512
-960
-544
64
1120
976
1088
704
320
896
640
-144
-720
0
-240
256
1216
32
496
480
96
-592
448
688
1008
96
-240
656
1232
176
720
-400
-192
-1760
-1360
976
1792
1120
-384
-544
1488
176
-320
656
176
-272
-752
624
1120
784
160
432
-352
192
-192
288
-48
688
-1008
288
640
-672
256
-128
1312
-560
128
224
688
992
1152
288
1328
832
-368
-1920
-512
-368
-96
-160
-1872
-992
768
960
-1264
-1072
-1600
-640
624
784
-208
-64
848
800
512
-112
112
288
304
-384
1264
48
-192
592
832
528
1088
-160
-112
512
336
128
-240
-480
-384
-352
-128
128
-400
-16
672
304
912
-624
-592
192
-224
-16
1216
448
-1056
608
-304
-1488
-640
1760
832
192
-32
-496
496
-32
-768
-288
-608
-1440
-480
-496
-480
-304
32
144
320
448
768
-288
240
544
128
-128
416
368
912
240
400
960
656
-272
-656
672
352
-992
-352
1504
32
-112
-912
144
768
32
1216
560
-320
80
-320
64
288
1120
736
48
320
224
-368
-224
-1024
1056
416
-160
-112
464
-736
1296
416
512
128
656
1808
48
-624
-320
96
400
-592
-736
-240
416
1120
-640
-800
-960
-160
-480
704
576
1312
1024
336
1008
1152
480
-928
-240
112
-80
480
-432
-1104
-320
288
-128
256
1616
608
-416
-64
-112
-608
-432
1440
-16
-272
-48
-560
-144
768
912
560
-240
-800
-96
832
432
-320
-128
-512
1328
592
-112
288
288
-688
-624
-48
224
96
-288
-496
-624
1024
-800
-256
352
-480
448
416
-448
-240
336
-656
-96
1008
384
32
352
1024
-192
-640
-1424
-432
864
-736
528
1504
864
640
272
-1008
112
416
-720
-832
-832
128
-400
-528
448
-736
-416
-16
-416
240
192
1072
144
448
304
608
-848
-1840
-1248
32
400
-160
-1232
464
224
848
1008
192
-224
592
608
-128
-352
96
-448
-752
-944
-576
-1520
-768
-192
64
-176
1360
944
-176
64
416
-320
32
-688
-1280
-768
-672
-96
-224
-368
-240
-1136
592
736
288
736
640
-208
-880
400
-1152
-608
-1696
48
336
-304
-1088
-1232
144
-608
-864
304
-176
-1008
-688
-816
-816
-768
-672
-192
16
-528
-512
-672
-416
-64
128
-1264
-352
640
1152
832
-448
256
0
256
-512
528
480
-528
-1008
-912
-1616
-1088
-272
80
240
896
848
-32
-272
-640
48
-1072
-1712
-704
80
-80
-208
-1088
-896
624
880
192
320
464
-480
-864
-16
16
464
544
352
144
256
320
160
768
256
-208
64
816
976
-1136
-80
208
-576
-976
-1536
-112
-192
-352
-656
304
-448
528
592
-528
160
1456
384
-592
-64
944
96
-336
784
400
1648
-240
-704
16
-1248
-880
96
-128
80
-192
-400
-80
272
-160
-336
-368
544
176
1040
768
-128
304
-736
-608
-368
-192
-400
-800
-976
-32
512
592
752
208
1296
416
-1648
144
1360
544
-352
-480
-1008
112
480
-832
-1632
-1104
-448
752
-192
-992
896
1072
320
208
48
752
1248
-832
-704
688
1232
1184
1136
848
1328
912
1024
1536
64
96
-80
208
976
448
-176
-256
-48
960
1040
0
-1072
-384
-992
128
720
704
-752
-352
288
80
-736
-1168
-976
336
848
-288
-640
832
464
1264
496
1056
1488
288
-944
-208
224
-1600
-640
880
816
576
1088
-560
192
672
64
352
-432
912
-176
-592
-976
-144
1424
160
-752
-208
848
-208
48
-272
-624
-1184
-832
-1232
-480
-448
-1600
-720
-592
0
912
1408
240
-1312
-672
-1472
-1568
-1632
-1120
832
1936
1104
-128
128
752
960
-1136
-2032
-960
-48
464
-576
-1664
-1200
-1024
-1760
-1264
1344
272
352
-112
-304
-720
-1504
-720
-832
-736
-1552
464
1424
1088
896
48
-16
1488
848
1312
1280
784
-720
-1040
1104
1040
848
752
384
1248
1328
1456
288
-864
-384
-512
-272
-592
-960
256
64
-736
256
-208
1456
496
16
16
-64
704
1376
240
-1376
-368
112
816
1344
-528
496
544
-176
160
448
-48
480
1104
-32
-160
16
352
288
-240
288
16
-336
528
-240
-944
240
592
544
112
208
-624
-576
-992
80
768
-624
-224
960
96
-640
1472
1504
-16
-368
576
304
224
416
1296
1808
-448
-1264
-272
-256
-448
-336
64
-160
-208
-368
512
304
-48
-128
48
-528
-896
-352
208
416
128
-368
240
-1104
-1168
-80
-208
320
-160
784
784
-16
-1152
992
0
-144
1104
-336
-752
-544
0
160
-96
864
-224
-592
-368
-160
-480
-240
-128
-624
256
672
576
-496
-1312
64
416
-688
416
384
-608
-864
-1056
272
-576
416
192
208
384
-128
-1072
480
400
-176
144
672
-160
-32
-480
-560
304
144
32
224
592
-1248
-1632
-960
64
480
672
-1216
304
464
688
608
368
-128
-1152
-1872
-128
1328
1120
-320
0
1168
1200
-352
-432
720
608
-928
-592
96
-752
192
688
-80
256
-496
-304
128
864
1424
-480
-992
-816
-192
1600
0
176
560
-160
272
32
192
-432
464
-960
-1904
-784
-128
-672
-688
-432
-832
-160
80
-1072
-592
-128
1136
928
112
-448
-928
784
672
32
80
-32
32
1008
-80
1328
1760
288
-32
880
448
464
-112
-576
336
480
624
256
-368
224
160
320
640
-448
656
-256
-1136
-416
-736
-336
592
944
368
-224
-112
-1040
-800
-64
96
736
-512
-320
-80
-352
-384
-192
656
336
656
1136
352
1120
272
336
-224
192
-1760
-272
48
1264
272
-256
-336
-400
-400
-784
-96
-496
624
64
-784
-1184
-800
208
1168
1360
704
128
448
1040
-256
-864
-176
-416
320
144
-400
704
160
48
0
-816
-336
-448
656
688
-160
-96
-1168
-208
384
64
96
-272
1008
1104
-480
-1152
-256
160
-256
-304
48
928
-1024
-1920
32
704
-48
16
1328
224
-896
-816
-2016
-480
-384
368
704
1104
448
-304
-336
-64
-160
-288
-464
112
-64
224
128
368
-512
-16
-112
112
-1232
-496
992
320
608
560
768
128
-576
-480
-400
400
720
-400
-1152
-912
304
1088
1104
368
-496
-1120
-416
-608
-640
1104
720
-480
-288
-48
-528
-416
896
320
144
384
-848
-800
176
32
-624
-1104
-880
-512
0
432
-400
-464
832
64
64
-704
-16
-576
400
160
-80
352
464
496
1280
816
976
192
432
48
-1504
-1008
-304
1136
1424
-368
400
1200
464
-144
-128
-576
-128
16
864
352
-912
-1056
-704
-1568
-1488
-736
-688
-64
-768
-816
-832
-1024
1120
1152
-816
-224
-16
-688
400
768
-592
-528
-432
480
-768
-640
144
544
464
16
608
656
-176
704
160
688
528
-464
-16
576
32
-80
-752
128
608
672
1568
496
1472
224
-368
-1072
-336
-96
736
-400
-208
-128
-448
352
0
368
592
304
496
-416
-1008
-256
-176
-16
-192
-768
-784
-288
1056
832
-240
64
-688
-96
-1776
-928
-224
-448
288
-416
576
-1088
-864
624
0
224
176
48
144
-656
-512
-896
160
1072
848
112
-1296
-320
-928
-1472
-1344
-560
-720
176
1808
192
176
-240
-432
-1296
-864
896
-800
-368
1520
416
128
-512
-256
432
256
368
560
-304
-160
1152
1600
352
1312
1248
976
-704
-464
1024
144
64
1264
-112
144
320
160
-464
-48
-592
-496
-304
240
336
-96
64
-192
720
-384
-672
-112
-880
-688
-768
848
80
384
-240
-96
1136
-192
-688
-208
1024
704
528
-336
80
432
240
0
464
192
-400
352
480
560
-592
-1120
-432
176
-160
-496
-64
1184
-112
-528
-288
752
-112
0
-224
528
-464
-112
1296
880
512
-1536
-896
-992
-32
512
752
448
-1024
352
-624
-608
144
-560
-112
1264
768
656
704
-96
-64
-64
-976
-752
-48
-1888
-1120
-32
192
848
192
1344
160
1344
1216
-48
640
368
816
48
32
-160
-464
-80
528
48
720
288
112
272
432
-688
-688
-128
-976
-464
-96
304
32
-1264
-128
16
1408
480
-1104
336
-128
-784
-96
-272
-64
-64
784
672
144
464
320
1456
592
480
384
1520
240
-144
-368
-672
-672
-128
-912
-416
1488
736
1568
-144
368
592
1168
592
576
96
-800
1328
1408
336
912
288
-704
-288
-272
-240
800
-464
-288
-384
-1008
-1216
-560
-96
-320
112
592
-720
-864
-960
-240
880
-48
-160
-368
-272
-960
624
496
48
16
-736
-864
-736
-304
-112
-752
-416
576
32
352
112
-224
-224
-720
-592
688
1184
-752
144
-528
-768
160
-336
-1392
96
-160
-1744
-1024
-384
160
544
320
944
544
64
-960
-944
-592
-416
144
512
400
928
1648
1024
848
848
-880
-512
1536
912
336
608
672
512
-496
-928
-1680
-32
-160
96
256
-192
-896
64
1376
464
176
640
848
384
176
560
-384
-624
-1104
-1008
992
144
1408
240
352
-1168
-80
1216
-176
-320
544
48
-432
-224
64
-320
-464
-32
-96
-704
176
608
1696
1696
368
-1184
-256
160
16
-336
16
208
-1056
704
-912
-1152
336
688
224
240
288
16
224
576
496
-672
-736
16
-656
-144
224
80
-64
288
-1456
-544
560
1040
-80
-576
-688
1008
592
-736
-944
672
384
576
1536
352
-1056
-656
-608
-160
384
736
576
-160
-544
-288
1296
976
-192
832
1248
960
-448
-1728
-1248
560
832
864
176
-592
176
80
112
-448
1040
1312
-176
-512
-80
224
464
1216
1520
1072
0
144
-384
-288
-64
1056
400
-128
-96
336
608
-352
960
16
-192
608
-544
-400
-400
96
-512
-400
-32
-352
-912
-656
-832
-464
448
784
-656
-32
-48
0
-176
384
512
1024
288
-256
-96
272
208
-1184
-784
-16
-384
-1584
224
-496
592
560
-384
-432
-432
48
1360
624
96
-336
-1216
-1728
-1104
-1104
-1792
-496
304
96
288
256
752
736
-304
-400
-208
-368
-912
-496
288
416
-432
-112
-144
352
-96
1152
1280
-112
240
512
0
112
32
160
256
-528
-880
1008
1072
-528
-848
400
928
-112
832
208
96
288
-960
48
-160
32
-400
-576
-928
80
432
816
96
336
-704
-144
-544
-48
-160
-80
48
-160
160
1008
464
80
432
368
400
-784
-784
-1088
-656
-448
-304
-1200
192
944
688
624
480
-1168
-608
-176
96
-432
-448
416
720
336
-352
32
560
912
336
880
-160
-48
1040
-528
-336
896
736
288
1264
640
864
752
-48
-1344
-1296
-800
-256
-624
-736
768
768
640
656
32
-272
480
-928
192
-400
272
368
-448
16
-304
-48
-112
-848
-320
176
-1232
-1568
-32
224
576
32
-240
-272
560
656
384
-336
-128
-880
-144
80
304
-16
-128
1008
800
112
192
-272
128
48
1056
864
-1424
-720
832
1136
608
-768
-1072
-224
-928
-896
-1536
624
976
624
-640
48
-16
-768
-176
720
-960
-32
-624
-1840
-1040
0
1024
848
-896
256
640
-1632
-736
160
992
-80
-208
256
-592
-1104
-464
800
416
320
-1440
-240
592
-624
-1472
-1856
-1888
32
-800
-576
448
272
-624
128
896
1344
-448
-768
1152
832
1008
-224
-768
48
1280
528
768
-224
512
656
64
-208
96
-608
0
464
-560
-640
-1296
-928
64
336
-432
-272
-560
-320
-608
816
512
-160
48
16
160
1040
736
-1104
-736
-224
-1344
-1024
112
-32
16
-1520
64
240
-1120
-864
-512
528
704
-640
-448
-224
592
-1040
-80
-656
32
1008
-256
-368
432
-464
-272
-560
-640
-368
-1024
-848
-240
-144
-544
1184
-368
-768
-1248
-208
-1456
-768
944
240
-608
336
-1504
-912
352
464
-480
912
256
1072
-160
-1280
-1360
-16
976
-352
-496
528
16
288
-256
208
1232
432
-336
-128
16
1456
672
192
304
-320
-432
-768
256
192
256
208
-480
688
368
32
-512
-464
1088
240
768
288
544
-272
-32
160
400
1408
-656
-704
-496
128
208
-976
-1136
-560
320
992
672
1696
1488
-240
528
-192
-1056
-624
-848
-128
512
1120
224
-448
-32
-64
-48
320
-80
-1008
768
672
336
-192
368
1168
-368
-736
-704
688
-160
-592
256
688
288
-320
512
240
304
1024
-64
752
0
-688
-544
240
-176
-448
1152
288
592
448
-512
-560
-336
224
736
1664
416
576
96
192
-1104
-1376
-656
320
-112
-320
1072
-80
-224
1088
288
-224
-64
-160
-624
880
1328
400
-656
352
-640
-208
-816
688
1072
176
-336
1296
240
96
592
-736
-16
16
-592
-128
16
240
-368
-1248
-960
-1088
-416
-736
-352
464
544
-560
-224
832
1136
-624
96
448
-112
1024
-592
-768
-1088
-1520
-288
-336
-720
-816
16
1440
960
-384
-672
-768
832
80
592
-96
-320
656
368
-432
224
-400
-96
432
992
256
-560
480
-1104
-1296
-128
-224
1072
928
-608
-1696
-400
-768
-1104
-512
-560
48
528
-336
608
-96
-48
224
816
-720
-240
-256
-400
-528
-448
-848
816
-464
192
864
304
16
1088
960
-368
-512
-528
-128
-736
-688
416
720
-448
-128
1376
1184
-176
-336
-320
-48
240
864
1120
-16
-16
976
1248
1136
480
-96
544
1168
624
720
-880
-960
-368
-1792
-1216
1024
192
-944
-368
640
-368
-32
432
672
-864
176
512
528
-320
240
192
864
800
448
-320
-320
128
512
864
896
1296
640
-128
-544
-768
-416
-32
-656
160
1072
-128
-336
-432
-704
-1360
-576
768
176
-1248
864
928
-880
-992
-864
-784
-448
-160
-96
176
-32
16
-960
1152
848
848
144
400
752
-640
336
-560
-240
-96
96
1088
656
-480
1104
928
144
-640
-640
768
832
784
32
-1056
-624
-272
192
-512
-832
-160
384
64
848
576
256
256
592
576
-224
-784
-784
272
0
896
448
-64
-432
-848
32
-240
544
-224
-32
-976
80
-464
-1616
-720
272
-288
-224
272
-1520
752
800
496
-96
-160
-272
-1616
-288
-32
-1120
160
-288
-832
-608
336
1408
816
-16
-592
928
752
-400
-160
-1120
-272
-544
-144
272
272
1792
224
-576
-400
544
1392
-992
-944
-736
1056
80
64
-720
-832
-992
-1248
-112
-304
-864
-224
-368
-144
-80
-80
864
-1232
-256
560
160
880
592
-448
-352
-672
-368
-176
-80
1008
592
-1088
-864
-592
80
368
-192
-448
-368
-480
-1152
-1312
672
624
624
448
832
-448
-1088
-48
448
560
-128
608
384
304
400
-16
-32
-192
1536
-784
384
-608
0
928
48
384
-496
448
-448
-592
-368
-448
-400
-416
-272
-384
288
-352
-704
-528
-880
-928
144
304
816
320
-736
-576
-368
576
128
-832
-672
-288
112
912
-320
-816
320
576
608
784
672
624
320
-80
1280
608
-1744
-336
1216
-48
-416
640
128
-112
-1008
-288
-160
-368
-816
-624
928
896
1024
352
1152
192
64
1280
-576
-656
-912
176
-720
-640
1184
944
880
-400
-1104
-1888
-16
-48
1184
144
-224
-496
144
32
48
160
-1600
224
304
448
432
-880
-1136
-960
304
-336
-368
560
800
1024
-432
-144
-352
128
240
112
-336
-80
16
-304
-176
-1472
-192
944
192
784
432
-416
-352
560
-192
-880
-496
-208
-256
-112
-544
240
-704
432
-224
-16
-736
-336
160
-288
-720
-240
-752
-208
1008
1232
304
-400
256
96
1248
1008
256
352
-240
-800
1616
960
-208
144
64
1152
816
-448
-576
-176
-784
-608
-144
160
-48
-624
-496
48
400
-1008
-80
1456
160
-544
736
-192
-912
-864
-1120
-704
384
992
576
1328
640
608
784
-624
-240
288
496
-48
272
-48
-576
-1376
-1248
-896
-1440
-688
-320
-256
-16
656
784
432
-480
-80
592
1152
624
464
-688
-848
112
960
1264
656
-208
512
1136
16
-480
-368
128
80
-448
-1072
-464
-112
224
64
-672
16
720
480
80
288
320
-112
-768
-864
-688
-48
592
896
544
512
608
832
-368
-1024
592
544
144
-1104
-880
-1040
-1136
1040
672
288
16
-656
784
464
976
1648
-304
-1168
336
704
64
1216
176
-96
-16
624
1008
-336
-112
-128
224
256
464
-192
-608
544
144
784
-320
-624
-592
176
416
352
-800
-880
-1264
-224
416
1760
-16
-1424
-896
-816
-336
256
816
576
336
-96
288
208
-64
-1104
-1216
576
336
-192
-1008
-752
-816
976
624
-1360
-704
-1184
112
-528
-1728
800
480
-448
-688
-704
208
-672
-96
-112
544
272
-160
-224
-496
352
96
656
-112
-224
-880
-256
-336
16
-704
-800
-528
-240
48
48
-368
-1296
-224
-96
400
208
256
-64
816
928
752
576
0
-992
-1280
128
1264
-80
-384
-1168
-352
64
960
-448
-80
-912
-560
-368
96
-128
544
-1056
-1808
-896
-1712
-1392
-912
-80
816
704
1296
368
528
976
-32
-288
-272
-800
-800
160
672
-608
1008
688
640
800
-672
-752
768
240
-240
912
1408
176
-32
224
-560
-1536
-1088
304
304
48
-112
-96
-240
-960
512
960
-672
624
-464
-1520
-1216
-1264
112
-272
-1248
-80
-432
208
-768
-272
160
672
96
1104
1584
-256
-1552
1264
208
-864
-1168
64
320
1376
1008
96
-592
-1344
-1424
-1760
400
-384
-1104
-752
-560
-368
208
320
-400
-64
-560
-224
112
-560
64
-352
1232
800
-64
288
816
1248
944
-224
-352
-592
-256
336
928
320
448
-1696
-320
-688
-480
-448
-768
-80
992
368
-800
-224
-272
-368
256
1504
336
160
272
-1184
160
128
-352
16
-160
800
1040
784
-512
-720
-576
-512
480
464
1008
656
48
-1344
-320
32
1472
656
-560
112
480
-1232
-528
272
800
1344
-432
-1056
752
672
-1552
-1200
-32
-896
608
416
-368
-416
-368
272
-352
-1008
528
-976
-1408
-1024
800
1088
1056
528
-688
384
992
848
-1008
-992
-64
-736
-288
-976
-640
80
-640
-208
-1360
-544
-432
448
736
1488
416
0
1040
736
800
1056
288
272
288
96
384
0
-384
528
-32
464
448
16
-1456
-560
-288
-656
-240
-80
-496
112
-784
-896
-400
48
-720
-1248
-656
416
512
288
-256
240
304
-896
-976
-1744
432
304
-1040
-752
-592
-1072
-368
128
48
1280
-256
-288
624
-816
-1040
-416
-848
-96
-80
1008
416
-64
-288
-1152
-208
64
-128
-208
-1168
-1152
-608
-96
-80
352
-256
-288
-688
-400
1968
368
-416
-1200
240
144
1648
1888
1568
-736
-832
-576
-112
672
32
-272
560
1136
720
368
96
608
64
-48
464
336
-80
896
832
-976
-336
48
0
432
576
720
800
496
-160
-896
-976
688
736
240
272
912
-976
-864
-32
432
160
-240
-544
-592
-288
-160
1136
-400
624
-96
-416
-912
-848
672
352
-592
-304
-400
-128
112
-352
-928
352
-96
-336
1216
-96
-1216
432
432
320
192
-512
464
224
688
368
-288
-1152
-592
240
1056
1504
-16
704
1840
1264
560
-160
-128
-16
128
-240
-912
512
608
992
752
-1008
-896
1280
48
-192
-1712
-1152
-784
-672
272
-48
-592
-128
-976
-1024
-352
-224
-336
384
-992
112
-224
-560
-16
576
1264
1120
720
-432
-960
-1264
416
240
64
-384
-624
-464
944
-96
416
960
720
912
384
288
448
752
976
384
752
896
-112
272
1760
176
-1360
-560
320
-304
832
-80
-496
-112
-48
-1520
-896
512
-672
-240
1440
80
-672
-736
-368
832
400
784
-512
-704
-144
-32
16
560
-32
688
1376
1536
496
-704
112
1600
-480
176
-400
-528
-80
-464
912
1088
1936
1408
672
1088
928
-688
-608
880
1136
64
256
-352
-400
-1616
-16
1136
1280
1040
-688
-1072
-448
-96
-720
96
368
176
304
-256
-368
208
112
-448
1376
1456
1904
1312
-80
-272
-368
-320
-48
48
432
-464
528
992
512
336
592
128
-608
-272
-128
-384
496
512
-32
-304
544
704
288
-176
128
784
1152
560
-1040
-256
-864
-1360
-32
992
112
208
192
-80
-1008
-672
-1728
-432
320
704
384
-464
144
16
400
-240
-720
-320
-32
-240
304
1392
-80
432
1024
544
352
-672
-64
640
-80
368
912
192
-128
464
368
864
112
-800
-464
-752
-544
112
672
1296
1168
-880
-608
-224
784
1312
32
816
960
-672
-1328
560
448
816
1040
640
208
-608
128
1232
512
384
-512
-448
624
128
-640
-1056
-944
-16
304
-704
-512
-384
-432
-64
496
1024
-1424
-1776
368
96
512
240
-736
304
416
320
-224
224
1680
720
-368
-192
48
1024
672
704
1328
224
-416
-32
576
-464
-672
-176
256
288
-288
-560
1296
896
-64
416
1872
768
720
-320
-192
-864
-544
576
-176
368
-272
-656
-688
-832
448
1344
-288
-1120
496
-80
-208
-480
-656
112
-144
-864
-656
-208
-96
-272
-160
-496
368
1360
-224
-864
-256
864
384
544
1184
352
192
224
160
320
-384
48
-224
-176
16
-448
512
1504
992
688
720
1328
128
-1408
-672
-288
-176
-1280
-624
1664
1920
1184
528
1376
1200
1136
64
1040
576
400
1168
272
-544
-160
-160
192
1248
1024
-256
192
608
320
-32
320
272
1008
1392
48
272
656
-864
-912
-672
-80
176
48
464
784
704
-608
-1120
-592
-1920
-592
-32
-1152
-304
736
-352
320
16
624
96
80
64
400
816
1056
352
96
848
-176
-880
720
192
-1152
-1984
-576
-48
432
672
1200
848
-352
688
-640
-1168
-1120
-1168
-880
240
672
320
1488
1344
-96
912
768
176
-240
-976
-1184
-1056
-288
624
1376
304
272
416
-544
-528
528
432
1600
1008
320
544
-240
-720
-1584
-64
-832
-1008
-992
-1440
-1968
-688
-704
480
-576
-1168
-48
112
-464
-80
-1024
-832
448
560
-640
-528
-400
-256
592
480
-640
-160
-176
656
1232
384
-64
-528
-128
1024
1392
368
400
368
0
864
-608
-416
-704
-432
-1248
416
1024
560
-672
-704
608
1376
112
-160
688
-16
64
-432
-464
-448
432
976
288
-112
112
672
1120
-544
960
-144
304
-352
-688
-528
-208
-432
16
304
112
416
-128
-1232
-304
0
-128
208
576
-448
-1072
32
1088
16
-752
704
880
-720
-1152
560
1424
752
-96
-592
-208
-480
-144
-560
-176
-848
-848
256
80
-640
208
304
1024
992
368
176
304
96
-640
544
736
832
-80
-128
448
784
512
320
-720
0
-48
-496
-1040
-1776
-1120
32
80
432
-240
-736
-320
-688
304
496
-112
-368
704
800
1104
-336
-464
368
-64
-672
128
1504
-48
-1072
48
32
-80
688
-80
-1072
-224
-32
-608
-16
96
16
-288
-288
208
928
-784
-16
320
400
336
416
848
32
-592
544
592
768
944
624
992
80
1168
-112
-208
-848
-1184
-960
384
1936
1040
-208
-1008
-528
432
528
-16
560
-80
-928
-1728
-160
-80
-992
-1184
-384
-1552
-1552
304
384
-592
-368
688
-160
-512
528
912
-224
-976
-496
-304
-672
-1408
-864
-288
784
224
112
272
-128
1008
-1056
-1152
96
-256
-1360
-384
704
-1152
0
976
-320
-800
-1296
64
112
304
16
-320
144
1056
-320
-1024
-304
-480
-432
-496
-752
-640
-64
368
-176
-400
16
0
-560
-144
-1248
-768
-320
112
144
-640
320
1344
992
224
384
336
-624
-544
624
128
-608
240
320
320
448
896
448
-336
-384
176
432
128
320
-176
-688
-160
544
-288
-80
-224
624
528
208
-80
-352
-736
432
1376
1344
1312
544
-848
-256
-368
640
576
144
912
1440
1472
832
48
-576
64
-1552
560
32
-736
-1232
32
16
1584
784
-528
64
544
400
544
-192
-48
1232
1072
-720
-1088
-224
352
-208
-896
-176
-1136
-64
288
-1216
-64
512
256
-848
-320
992
-416
-944
688
-848
-1424
-288
64
-112
-32
-288
0
-192
-928
-800
336
240
1328
16
-688
-224
224
768
464
-128
-592
0
-624
-336
-288
464
-384
-304
160
80
-800
-368
-896
-1120
176
1728
1360
-64
-800
32
368
496
768
400
112
224
-96
-1328
-480
-752
-656
-32
1520
688
-208
880
400
400
336
-592
-768
-960
-1872
-528
112
-400
-80
1376
896
736
96
-80
-432
528
256
-704
-256
-512
-1168
-544
-432
352
864
-320
944
1872
816
672
-192
1152
368
-288
-960
-848
-1376
-896
-352
32
32
1056
160
688
32
-192
-1328
-1152
32
640
816
-672
816
672
368
1344
1104
736
320
-96
672
736
32
-480
-256
-304
176
992
352
608
160
-912
-624
-464
656
240
-400
-32
-768
-704
240
-48
-208
-800
-624
-720
-1056
-80
192
112
832
816
80
640
896
480
-400
-1008
-976
64
880
1216
304
-880
-1312
-336
-432
528
-320
-576
-384
-1328
-448
352
272
-368
-96
448
-16
-624
-1712
-176
288
144
736
144
480
560
416
16
-384
-352
-288
1664
1792
1296
464
-416
-48
-368
272
-192
-624
48
-80
416
-512
-288
752
-32
752
16
-176
-832
528
192
512
240
272
-704
-480
-784
336
1696
1376
-240
-432
-80
-832
-1216
-976
-480
208
-288
-400
-704
192
-560
240
432
-848
-528
256
256
-1056
-768
1040
688
-576
-272
32
16
832
-464
128
768
672
-384
432
1776
-336
-368
608
-480
-624
-48
592
-512
-352
0
640
-1184
-704
-1088
-32
912
784
-816
-1696
-64
288
688
1056
896
-432
-448
464
1104
144
-1376
-592
864
-272
896
-240
-480
176
1200
864
-608
-128
1264
480
-640
-320
-1088
-1936
-608
272
64
-736
-400
-1184
-1008
-176
80
320
1792
1232
240
368
-144
-560
-1216
-64
560
-96
96
-640
112
1616
560
144
448
32
-112
-416
288
736
-528
416
928
64
256
1120
-448
272
-512
-1776
-1536
-768
16
-48
-128
-96
-80
592
1744
912
800
-384
-704
-1488
-32
-96
592
784
96
1296
-32
112
1360
-240
-1040
-544
-672
400
-992
-688
-576
-512
176
752
656
-1200
0
-464
-256
-272
-352
-320
448
624
-1040
-448
-1216
-192
-352
-1280
-176
992
528
640
1072
-624
-560
-272
1728
1168
112
-80
64
176
560
-240
-560
-1040
-1712
-960
-32
-640
176
-240
-1664
-768
-320
1168
-64
640
384
-1328
-816
496
80
-256
-336
1072
-960
-1472
-864
-624
-160
576
944
-240
432
-400
-816
1056
1360
640
992
-112
-560
80
1488
560
576
-528
-672
-96
-96
368
-496
-736
-416
-64
-400
512
208
464
576
1072
-80
-1872
-944
-592
-1328
-832
-272
624
80
-80
192
528
1232
736
960
-352
-384
-304
-128
1232
-288
-640
-112
-416
-256
-240
144
-16
64
-240
-16
336
288
-928
-944
-544
-672
688
-16
640
976
16
-720
-608
688
544
16
-112
80
-896
-784
-1200
-1408
416
240
512
480
-576
288
192
-752
-944
-2032
320
272
1296
2000
832
752
-304
-592
288
-96
-64
416
112
144
-1056
-768
0
288
1072
624
80
416
-304
-48
-32
-976
-1040
544
-32
-240
-736
880
880
-448
-688
-496
-1200
320
1056
176
1136
-384
-384
-208
-400
336
-240
896
992
-992
-336
-464
-1056
176
320
992
16
-1248
-496
-64
0
1504
1312
-352
-1088
-400
-528
336
-688
-560
-80
1104
736
192
128
-352
112
-848
-1632
-128
-1280
-208
-400
-368
-528
-96
-176
-224
-496
-512
-560
-640
128
240
-224
-352
-96
-928
240
1488
-320
-48
-176
-144
416
-432
304
736
16
864
640
592
32
304
1376
-32
-432
208
-256
64
-224
-848
-1104
-480
928
896
848
240
416
96
-80
320
304
-512
-816
112
224
-336
-96
304
-16
1152
1600
1408
208
-784
-1328
0
-144
-128
-544
-640
-192
224
352
-32
-384
-128
176
144
32
688
1104
512
0
336
1344
80
-704
-336
512
848
-400
-432
208
464
-144
352
432
448
336
224
592
80
992
128
192
-576
80
-256
480
144
640
160
144
-144
-288
144
304
-32
-1680
-752
864
608
832
432
576
1232
-480
-544
-544
192
-336
-928
-736
-656
-272
-208
-416
112
-288
176
-912
-352
64
-944
-656
96
-160
208
-1088
-1520
-944
-224
432
-160
-224
0
288
-96
336
-304
-864
-368
1104
1072
-976
416
272
-544
-448
512
-384
352
576
736
464
80
-80
400
96
-832
-400
-384
-1552
-640
-672
-992
-32
-240
-352
32
-640
-1440
-16
560
-416
-48
272
592
-112
-1520
-736
544
256
-704
-224
480
528
-240
176
-304
-640
-752
256
-640
-400
-16
976
512
-928
-1552
-688
-192
592
-272
-624
624
784
480
-32
-608
-1232
-224
592
256
-208
-272
-560
-672
-640
-464
-1168
-752
-720
-1632
-256
448
1328
1024
-96
848
1056
176
-608
-272
272
560
-832
-544
-624
-480
-160
-1184
-496
-176
-256
48
528
-272
-416
-464
-1264
-1664
-1344
32
1040
352
-48
-368
-64
-720
-80
752
112
-272
-288
-704
64
32
-400
-768
-992
592
384
960
432
144
-928
176
192
560
-64
1088
576
-64
832
128
-432
496
1248
480
64
352
-784
-992
720
368
208
112
-1120
-32
784
864
928
-48
528
-96
272
-176
-1184
1024
288
-592
-1280
-784
-816
-480
-240
-768
160
-384
-512
160
96
-144
-384
672
448
-848
-528
48
112
-32
-1184
-496
-256
-672
-448
-608
272
384
-64
-16
1040
1136
1088
560
-176
-832
-336
-304
592
1152
1408
1680
-256
-992
-240
320
-304
1104
400
-448
-800
-368
240
480
272
-432
16
-400
-1024
-1680
-1344
-1248
-1088
-480
-352
352
16
384
-208
656
-512
-592
96
16
-208
16
-480
-2048
-1296
-1024
-576
-288
-1056
96
128
-176
-992
672
368
704
288
-288
-864
-560
-352
432
-736
112
784
-688
-336
-880
1680
432
-368
-944
-368
-400
-352
528
-400
-960
-1040
-1040
-352
-704
64
336
-272
-1440
-256
-1040
-192
192
-48
-112
-1792
-1136
-432
-544
416
112
-800
-768
-224
352
176
272
256
656
224
-240
-576
-928
448
128
912
1392
1152
880
128
752
-128
0
-192
224
1744
-384
-96
960
-224
-1440
-400
608
1200
1120
1504
-112
-288
-80
-464
-48
-256
144
656
1152
-288
-848
896
144
80
1360
288
-32
-384
-192
640
544
704
-240
-944
-480
-288
-912
608
1248
512
-384
-192
176
912
-144
560
1840
928
368
256
96
-704
-208
-240
192
-672
-864
336
16
-1728
-1296
-224
736
1040
880
416
144
-288
-672
208
-608
-288
-912
560
128
1440
608
368
464
-80
448
-448
-272
64
-1008
-960
752
-800
-1360
592
-480
208
176
80
304
752
480
656
528
16
16
608
1184
592
544
304
288
736
464
272
-496
-736
-992
-352
-160
528
-48
-48
-480
-352
-720
-592
128
1296
560
-48
-400
144
672
352
624
240
912
416
752
880
-64
976
1072
432
128
736
-560
-480
1120
16
-1008
-1104
-1088
192
624
176
-224
640
-384
-880
-64
-1296
752
848
-832
592
112
80
624
-800
-1072
384
1488
416
-768
-16
-272
-480
-768
720
624
-608
-96
-320
-464
-864
-560
-432
-528
400
256
656
-224
-528
-128
912
-16
-736
208
192
112
352
-576
-400
-752
-128
-1520
-464
-352
720
1248
544
80
368
112
672
32
-192
-272
112
800
-32
-192
496
-432
-96
240
512
-720
-624
592
832
-64
336
-576
-1168
-1120
-1424
-656
-416
-1200
-128
1408
64
-256
64
176
1008
1120
-336
448
-320
-224
352
784
-512
480
640
592
-1072
-336
-608
176
-272
-416
192
-240
-48
1024
688
1072
-144
-736
-704
-656
-608
-320
288
544
208
768
400
320
1168
544
480
-368
-368
-864
-272
-448
288
624
144
-1120
-1408
-800
128
400
-64
928
480
0
320
608
1648
208
144
752
880
-96
128
224
-928
-1280
400
-368
-736
-400
560
896
-496
-1408
-224
784
864
-688
-48
336
-912
-1904
-2032
-912
496
160
-272
-160
48
-576
448
688
1264
2000
928
736
-112
160
-16
240
864
704
2032
944
736
736
1776
576
480
1008
1264
1280
944
272
-16
1312
-736
-768
-112
-1056
96
-1472
-1232
-784
-896
-432
-464
-608
-1104
576
608
-144
272
272
-544
-592
288
352
1216
1264
1312
624
-656
400
736
-400
432
176
896
1248
272
-576
-1024
-1328
-64
592
1664
256
-608
128
-272
-784
-1216
352
144
144
-688
-1456
-800
-384
240
-416
-848
-496
336
640
48
624
-1296
-1552
-720
-224
1248
272
272
1312
320
-352
-528
-656
-1072
-576
592
736
-224
-16
624
896
-1056
-416
352
432
-608
752
1264
160
-288
384
-288
-768
624
-496
-992
-496
-608
-960
-208
-624
-624
176
1216
2000
-672
-2000
-1536
-1472
-80
464
-1136
-1104
-416
-768
-1184
-688
-64
688
1504
1296
992
624
-464
-80
208
304
-336
0
848
752
800
992
-288
-480
-864
-1520
-576
-800
-16
592
880
1520
176
-16
736
512
368
864
-96
-144
-32
-752
-1360
-1184
-976
-272
400
1024
144
528
80
64
-880
-992
-320
-480
-1408
-608
864
1344
560
-352
224
1344
736
960
-224
-96
-624
80
1312
480
-784
-640
-864
-64
-208
480
480
160
736
960
1824
336
272
-144
-704
416
48
-784
-160
48
-592
-544
64
848
704
-208
-1072
-1632
112
-384
80
176
1440
480
-512
-624
-1344
-1040
-592
448
928
1040
-160
-352
256
240
96
592
-688
224
1024
-1056
-1168
-656
112
560
1184
496
800
-272
-160
416
976
336
-1136
-752
96
416
1120
1216
1520
448
128
-16
-448
-432
-32
976
-288
-1056
-48
720
1056
-224
-1760
-224
144
64
-320
-1360
-640
-80
-608
-1584
-944
-368
-32
-448
48
640
208
-176
-416
-528
-208
-192
-256
-976
-240
352
-256
256
816
1344
-256
-144
-496
64
-944
-720
288
-16
-320
784
832
-224
-144
-352
96
-80
-592
-256
192
560
-192
-544
-672
-272
-464
464
240
-880
-704
-688
-192
1088
560
64
208
16
64
592
496
-880
-480
-192
-144
1120
1504
-240
-1616
-720
768
-112
-448
832
640
624
672
992
448
192
-880
-1232
-832
-576
-1488
-432
176
-592
432
768
-752
-864
-240
1072
480
736
-224
64
-352
160
96
432
-112
-640
176
-400
1056
1008
736
-16
496
512
-288
-240
-496
-256
-640
-992
208
-464
304
-656
-80
-336
-1504
-16
-1040
272
-784
-1728
-240
320
48
416
608
112
-64
-912
-576
-16
480
624
-192
-32
816
-176
-400
960
-576
-848
-176
-576
1200
304
304
-864
96
528
864
944
816
976
320
160
-528
400
-80
624
-240
-496
1232
512
-912
176
240
-176
-1616
-1344
-1232
656
656
624
1040
928
-176
688
-256
-1520
320
1168
0
368
1120
1440
80
-624
624
544
-416
-288
-896
80
-304
128
16
960
528
96
48
-736
-688
-368
-16
-1072
-64
704
16
-64
-1280
-336
-752
-976
576
528
-720
-1712
-1152
-896
-144
-16
-224
-112
144
672
112
80
160
480
-624
-832
624
256
-144
208
848
736
896
320
-544
-880
-704
-192
-80
-112
912
-480
-1200
-176
-64
400
96
-32
368
-400
-320
928
432
-1168
-208
560
528
464
-736
-1392
-1520
-1184
0
544
-704
-1136
-576
160
-32
-1104
-1520
176
1040
864
1360
368
80
448
576
864
80
-352
1216
-544
-112
-400
-832
-784
-720
160
512
80
-80
752
-448
-48
-1008
-1072
-64
-576
32
464
128
-528
192
-336
-1520
-368
640
-720
-992
48
48
-416
80
880
-592
-432
-576
-880
-272
688
-32
-288
-192
-224
-112
-704
992
992
400
-96
-32
-736
48
-256
896
544
1104
1328
1056
800
64
464
192
192
976
1344
1648
240
0
896
784
-64
464
-16
-656
80
-80
416
1376
96
-400
288
1200
1744
240
-448
1072
1216
1280
1360
928
112
1040
1200
1008
1744
64
-688
-688
160
784
80
-96
-1168
-672
-32
-368
288
720
-272
464
-128
-1280
-448
-1360
-448
1152
464
560
592
640
-128
64
32
-960
-368
448
416
-176
-928
-1664
48
-672
208
176
1616
1952
992
-576
-576
-112
1136
464
-240
-768
-832
-208
320
352
64
-528
-96
112
-288
656
-384
432
-160
560
1056
304
768
1216
576
496
1312
1072
288
96
288
128
-1136
-704
-272
880
-288
-336
-608
-816
-1008
-592
-496
-752
48
912
-256
-1216
688
960
448
128
-192
464
1040
-720
192
80
-640
-96
-976
112
-368
576
816
-112
-464
544
704
-464
-1248
-384
352
-400
-784
192
288
352
-288
-112
-176
1648
96
-1520
144
-464
-1056
-848
-1600
896
-144
-1840
320
464
-512
-1184
-672
-1056
-544
-1152
-1088
-432
-800
176
-480
-32
-1104
-640
-1024
-304
-416
-208
-736
-912
496
16
560
-928
-240
-304
-176
-576
368
-624
-1200
-1312
496
176
400
1168
976
-736
-1024
-320
-864
-272
-1040
-352
-96
-848
-784
192
384
544
752
-16
288
32
224
112
-1888
-1568
-1056
-96
1088
1536
880
1184
400
-480
-368
176
1504
1312
176
64
832
-416
368
-480
-1616
-1552
448
1024
640
576
-112
-320
-32
256
-32
-1008
-384
80
1104
384
-496
-64
48
-240
416
128
-1536
-112
-64
96
-592
-144
288
-576
-704
-1072
-880
-1200
-1168
192
480
400
-688
-896
-544
-912
-288
608
448
-320
160
592
176
-240
608
736
-208
896
336
-288
16
640
80
-1344
-976
352
1296
1504
640
128
16
-480
-288
400
1392
1472
432
1792
896
304
224
-32
-64
-320
1088
448
-608
-384
-640
-1008
112
16
-800
-528
-880
-80
384
144
-1392
-1024
1088
-1376
240
672
832
1264
1440
1312
1040
416
960
704
1536
1136
768
-416
-272
-192
240
480
-448
-32
560
1104
-272
-688
-416
-128
-912
-128
-992
-752
-288
128
48
32
1120
752
1408
1200
16
128
-576
-384
-816
320
256
704
1008
80
16
64
272
336
496
736
176
-1424
-112
272
256
-80
848
-352
-896
736
704
-1264
-1424
416
800
-320
-192
-320
432
224
16
720
32
624
-112
448
608
512
64
-896
-1360
-1904
16
320
-720
32
944
-384
464
416
-720
-1152
-304
-192
-1136
64
-352
384
1152
240
288
192
192
-272
-224
-592
688
432
128
-256
272
1696
160
1408
496
-1152
-672
-688
-112
-832
-80
-544
544
-256
64
-704
-384
48
-96
-352
176
848
-64
-432
832
128
-1232
-608
304
-1296
-848
480
-592
-384
-784
-720
-320
-896
800
656
160
256
-848
720
176
-544
-128
-192
848
592
432
-1104
-848
-1168
-96
1184
528
-384
-592
-496
320
704
848
160
544
192
-272
-176
-80
320
256
544
-128
576
208
640
352
-1424
-400
944
32
-128
240
0
496
-320
16
-384
16
-784
-1056
-592
64
320
0
48
1104
656
-320
16
368
-128
192
-32
-1056
-464
896
-544
-1040
-1232
240
80
144
-576
-192
224
-896
624
704
-80
-1104
0
128
-592
400
-720
-784
640
576
1008
480
-864
-560
784
128
176
-80
1040
896
-1456
-1088
-896
-976
-416
496
-512
-1152
0
-336
576
-576
-464
-832
-848
336
1056
288
-848
-1056
-624
-592
-560
-416
-576
-432
-16
880
-128
-336
528
-128
240
-688
-720
-16
-160
-384
-1120
-608
608
64
-400
544
1024
-1088
-960
112
-784
-32
464
832
928
768
832
-624
-1168
-16
-112
1184
-592
48
-672
-448
480
48
-960
-112
-256
-448
-32
-192
-64
-1776
-48
-1024
32
-128
1232
384
48
608
16
1616
1200
1264
864
176
368
96
-1264
576
272
144
-32
-1120
640
752
-16
688
336
1072
-272
224
272
672
-288
-176
320
592
1376
720
784
96
48
1040
720
848
-448
368
-1120
-1344
-400
-640
272
16
1504
-416
832
64
48
576
-560
-464
-624
-16
-1088
-944
-640
208
-512
-160
-368
-592
-608
128
560
944
-16
144
240
864
208
-272
48
240
48
64
832
-800
-400
-416
496
-192
-1216
-1392
688
0
32
464
-48
-1360
-528
-496
352
-288
960
624
688
144
-720
-448
-368
-480
784
-336
-720
-2000
-656
464
0
-912
-80
736
928
800
-48
-864
-352
-1152
-480
-112
-176
-496
-480
1056
800
144
-992
-448
-384
160
1056
-144
-448
512
240
-1520
-640
-944
-912
-848
-176
-368
-1200
-272
608
-560
48
0
1024
1024
352
1248
1008
128
-48
-656
-464
976
800
304
32
-176
896
-880
-688
512
448
-800
1008
1024
352
224
-960
480
880
1504
1232
960
-512
-256
-1344
-1136
-880
-1120
320
240
736
448
256
-400
-496
560
-688
-1664
-1600
-528
-624
-496
992
752
944
848
-336
112
-240
592
1968
560
912
-112
-736
-416
752
160
-640
-160
800
-256
-480
48
192
-176
224
-320
-384
-448
-112
736
496
1344
-528
-640
480
1008
-144
-624
224
624
816
624
-656
-1632
-1152
-112
80
32
848
400
96
-144
64
1376
656
-80
-816
-224
-16
-144
672
496
480
1920
496
-240
48
720
160
400
208
464
-432
432
368
-560
528
-720
224
-128
-496
-1408
-528
-576
928
2000
1328
-176
0
896
1376
544
352
112
224
656
480
464
1488
768
1104
576
336
912
1056
1600
752
1072
1232
-768
-256
288
1488
1296
1056
-336
640
304
672
400
240
-16
192
432
-576
688
128
-416
576
-368
-496
-352
-1312
-224
592
-80
-48
-400
-464
-1360
-224
1024
432
880
-448
-1168
-416
-1664
-1376
880
-224
-784
-224
1376
112
768
768
1808
1120
960
224
-400
352
-1072
-976
-528
0
-608
-432
48
1872
-80
-1536
-1472
-224
-240
640
1248
1200
208
1296
1040
-512
48
736
-32
1376
304
-896
240
544
0
-80
288
-1392
-320
-560
320
224
-288
448
256
304
-960
-208
-912
16
-16
288
-240
-528
-256
-400
-1760
-480
-240
-928
-864
-272
-368
-704
1584
1408
624
112
-112
80
-592
272
-512
-560
448
240
-528
704
336
176
-944
-400
-48
528
-304
0
-528
-1280
-560
0
-384
-624
64
-1280
-704
-640
0
-848
-592
-160
368
336
-720
-752
-736
-1344
-624
368
0
1200
608
-736
-416
-288
-112
1056
832
656
-624
-128
1296
720
688
688
560
16
-960
-352
-528
-32
-128
-880
-448
-544
-64
368
-240
672
528
-480
-1120
-160
-432
-1072
976
352
-32
544
1104
-32
-384
736
544
592
1184
128
80
-384
240
-704
-672
64
32
-336
528
-352
-16
288
-448
-224
-784
-672
-368
-576
-1488
560
-16
-976
-160
-448
-384
-1200
-432
-112
-720
-672
1648
448
-832
128
1056
-464
176
768
1392
32
976
1168
768
-528
-544
-736
-432
528
48
192
288
784
-176
-1616
-864
-1024
-1328
-800
-1152
-1632
-320
-288
432
1504
960
496
-256
-704
96
-624
-1584
-912
0
-1248
-1008
-576
176
832
720
-512
-256
944
1200
-1088
-672
80
736
960
304
1344
416
-880
256
784
880
432
160
976
384
-32
-48
288
608
384
368
272
176
704
288
-432
64
-16
1008
640
1024
816
192
-816
-1488
-928
-1104
496
-176
-992
-368
-480
-752
-1008
-320
1120
-528
-1104
-576
-608
-720
-544
-368
128
576
1008
976
400
704
128
160
80
-48
-128
80
656
-336
1056
1440
800
256
240
-192
560
688
576
-864
-1200
-16
816
-64
-256
1104
0
416
896
672
864
544
416
1040
-32
-16
-192
48
352
-768
-112
1008
1184
-32
160
464
656
-224
-32
480
528
-272
736
-32
-592
192
512
96
1088
176
-672
-704
0
-208
48
-400
-1664
-1872
-1008
-752
32
112
-432
-272
256
816
1008
592
1200
240
-512
-512
304
1120
512
16
-1344
-288
-1120
-544
576
752
848
848
560
-144
-448
-896
800
368
-1504
-320
368
-736
-1184
176
176
-1312
16
384
-672
-1616
-1040
-368
-1760
-592
-1392
176
720
208
32
-624
-288
-496
-592
80
160
-1072
-720
-64
-640
-896
-336
352
-352
-112
-32
576
-176
-352
-448
-864
-848
784
-560
-1888
-1200
464
368
-160
-896
-432
-640
800
416
-416
336
32
528
608
32
96
-640
112
1104
688
-864
-944
-48
624
-928
128
352
144
544
528
752
368
-448
1136
592
480
-160
720
-544
-1248
-768
432
-192
-112
-64
-784
-1248
416
1008
448
464
880
-400
-320
-896
-944
432
1120
848
1248
960
-864
896
1664
944
80
1120
16
-1088
-992
-320
224
768
832
0
208
240
-800
-64
432
432
592
-240
-464
-1776
-272
-272
-512
-720
-1120
-640
240
160
64
912
400
-160
-464
-384
-864
-64
416
-800
-1280
-464
-48
-224
-1200
-64
-80
-416
-928
-96
1248
1376
224
-304
480
304
-192
-544
-704
256
-496
-832
-128
-416
-416
-352
-480
-880
-1552
-512
-256
240
-448
816
656
752
-528
-544
960
592
-544
-576
112
-528
-416
-1696
-880
208
-480
-1600
-1392
-640
-96
-1200
448
-208
544
176
1392
-864
448
784
-832
-928
-128
-864
288
1168
1664
224
-544
-304
432
528
672
-576
-176
-416
-464
-1568
-208
-368
112
656
1008
432
528
-272
96
-368
-608
-864
-496
-464
-560
-80
496
384
-288
-528
544
0
1248
96
-1376
-80
528
1088
-496
-1120
-480
-1232
-896
96
656
-608
-512
-496
48
-192
16
80
-576
-576
-832
128
976
400
1088
752
240
720
144
32
640
304
-96
-624
112
496
672
352
496
-480
-416
-1680
-512
-1360
-144
-1120
432
1136
560
352
-64
64
1200
1232
-96
-704
-144
-864
-528
208
400
160
-832
-608
-496
144
80
-880
-624
1104
912
1136
544
144
272
976
400
960
528
192
736
272
-480
832
688
160
848
-48
224
976
-368
-240
592
384
-352
-768
-1168
-256
880
1232
-880
-1664
-528
304
-864
-768
-336
-272
800
1472
720
768
-240
-96
480
816
880
1232
-144
80
-432
-208
928
-352
-816
48
-1024
64
576
1440
704
-288
-752
144
416
-64
112
16
-352
-720
-160
1344
192
-1056
176
1184
1632
480
-336
-512
-128
352
-1664
-480
864
176
-544
-304
288
-176
-144
1424
1136
-304
-432
512
784
384
-896
-944
-1648
-448
-544
-1008
-1088
-64
-448
-752
-848
64
1248
272
-1248
-544
1312
1072
-448
16
-720
-496
-848
656
1360
416
-384
64
-512
496
-64
-496
-64
208
-272
1008
784
-1056
-608
-32
848
608
192
48
272
464
-400
496
32
-128
560
768
-256
256
208
80
-256
80
-176
-512
16
-608
0
-1056
-256
0
1152
1008
224
-448
-368
-352
-1344
-560
-592
-192
240
-848
-1232
560
-336
-1632
-1056
-736
-480
-544
-832
128
-1200
352
432
-1072
208
320
-96
-32
192
-224
-752
-832
-496
-160
-1040
-928
-736
752
192
-256
-1104
-912
-192
880
-32
288
928
80
-496
400
752
-1264
-976
-336
560
688
192
-512
1328
656
336
-448
-224
-784
-1264
352
1008
-736
-1392
-336
-432
-1104
-512
-96
160
1008
1168
608
656
128
-848
-1232
-960
128
864
336
720
-384
-608
-688
400
-176
64
-320
-112
-704
-944
-16
-848
-1168
-1488
880
-336
-624
528
48
-208
-736
-512
-1088
176
-400
-608
-1008
-960
704
496
1008
624
-192
944
944
1152
144
32
-1088
-592
-464
-448
-928
-96
624
304
352
816
624
432
384
-272
-720
-144
32
-544
-96
48
-576
352
-224
16
-144
-16
1312
1312
384
704
-256
-1152
-256
720
-128
0
800
752
512
928
1888
208
-448
-32
-240
-512
352
720
224
-368
-944
-576
-1712
-1488
-352
160
96
-1536
128
160
-480
544
400
-224
128
992
-304
-1280
-1264
-112
1168
688
1344
-400
-528
-800
-608
576
1040
560
432
160
-80
-160
608
304
208
-672
-96
-800
-1472
-1008
-352
960
-416
-496
928
-112
-128
1936
320
-384
576
-592
16
560
1264
-672
688
816
80
-992
-384
64
1248
1184
1088
-96
-544
-544
-720
-928
-864
-1280
-176
352
-720
-1152
-96
-384
144
208
48
976
-1088
240
-64
1056
-128
-240
720
1456
784
-144
-256
-656
-736
528
832
880
512
-1392
-128
-16
48
-160
-160
-128
320
-496
-1296
-640
-144
-448
-1488
-416
608
-848
-256
336
-128
144
-832
-1408
-768
144
-480
-368
544
624
912
1056
576
704
656
288
208
160
-528
-1248
-720
624
1168
256
-96
-384
1312
208
-464
464
1632
-176
-608
736
736
-592
0
432
528
-912
368
416
-352
-128
-112
-560
-656
256
912
80
-1008
-992
336
640
944
-80
80
112
-1216
-1648
-240
80
448
256
-912
-656
464
128
224
176
-208
656
896
496
32
-48
-1152
-832
608
-272
48
112
-432
-1072
-544
176
-1312
-16
112
496
416
-416
192
-1136
-32
192
-64
240
-256
-128
-944
-656
-672
-848
-544
-496
-752
-1360
-800
112
704
944
-688
-432
-144
416
240
-208
-1424
-592
1456
1472
1008
-112
848
-48
1264
1824
320
-1168
-752
96
-1104
160
-432
-1120
-1040
-272
-688
-336
112
1136
1504
1008
976
48
-240
-416
64
1072
-1328
-1024
-128
176
-496
-656
528
672
-528
-720
-48
-832
-304
528
1040
1264
144
336
480
-336
-128
672
-128
80
1008
1296
-752
-640
240
112
256
416
800
-656
-800
576
480
320
128
-544
-80
-144
832
512
-560
-1648
-800
-272
-288
304
-192
-128
128
544
288
48
-352
496
544
144
-32
-752
-256
560
1152
0
1328
752
1024
640
1056
1264
592
-176
448
720
992
-208
-128
928
608
768
192
384
1040
304
-176
912
448
288
1104
-112
-1456
-1360
-464
832
368
848
336
1792
832
144
224
-704
-384
464
-128
-544
-624
320
688
416
336
-128
240
48
576
608
288
-288
48
-1408
-768
256
-80
352
-432
-1872
-1744
-256
784
96
144
1232
224
96
176
-544
-224
-160
-880
16
1072
-192
240
-560
-672
-368
-1040
-320
-400
-400
-800
-160
-48
864
208
-432
-544
-720
-880
-544
288
384
736
1728
1488
192
288
-512
-272
-272
288
-800
-848
-240
-640
608
144
224
-48
-240
-304
-416
144
-320
-160
128
256
-64
-544
240
-160
-544
-448
-672
-1680
-1136
-304
480
112
240
1984
944
-176
80
1456
352
176
736
512
432
-464
-1408
96
416
224
-304
48
-304
192
-176
-1216
-1296
-1008
-272
416
896
0
16
-576
-432
-864
-208
240
-208
-496
-448
-1424
-1024
-592
-96
1296
976
144
64
-192
576
1040
368
112
-288
272
816
384
560
-160
-176
-368
640
1440
976
-736
-1040
-512
-736
-560
592
656
752
144
-832
-48
128
992
528
176
-672
896
1792
496
384
560
-256
-272
-240
-624
-400
272
1280
1248
832
1200
912
560
496
-112
-160
-80
-640
432
208
-224
-304
-528
880
-1104
-1280
-288
-256
160
-624
-1456
-1760
320
720
192
-864
-384
-1232
256
-512
480
1488
784
-496
576
880
2000
1168
-512
-144
-368
-48
464
384
-1408
-512
800
672
-400
96
1392
-224
-1520
-256
-880
32
-112
-688
-528
-1152
208
624
-672
672
464
832
1040
-32
1152
-32
-784
-720
-1056
-1856
416
-560
-688
-864
288
912
624
384
208
496
256
-112
512
-288
-448
-656
-192
1584
0
1984
640
96
-64
288
-720
-400
-192
-16
128
224
624
64
-1632
-1440
-400
-752
-240
-1232
-320
592
16
368
352
688
80
-960
-896
-336
-480
-848
96
0
-432
-160
-464
544
-256
32
-96
112
-544
-1232
-864
224
208
592
336
416
-1136
-432
624
592
-384
64
160
704
-704
560
160
-1104
-576
-192
-48
-800
-416
736
-192
-464
-800
-784
-48
384
-240
-400
-624
-1824
-496
-224
320
-448
-1024
-160
-432
-80
288
-528
-48
-48
544
336
-224
320
352
-1392
-1168
-720
-368
-496
96
-272
768
608
-256
-544
-1168
-688
768
-256
-1040
64
1248
432
-544
-384
-880
-800
-1472
-1744
-240
-192
-368
656
-16
-560
-272
736
-64
496
240
-624
-1008
128
-464
-576
464
688
656
368
-176
672
304
-352
-176
448
368
160
-144
-240
-112
96
144
-960
-400
-48
-240
-192
-688
-720
-48
912
1520
592
-32
-688
-176
-1440
-592
-272
528
256
736
1600
-416
-944
528
-560
-1168
-192
1504
1312
400
-1136
64
880
608
336
-48
-1472
-928
-800
-560
-560
496
496
-144
448
-352
16
-256
144
-784
-416
32
-688
-2048
-1904
-768
-432
-336
-752
608
224
-864
-160
-176
-560
-592
-864
-1264
240
240
416
256
-64
-160
16
272
640
464
720
-512
-752
-560
-640
96
-128
-288
-176
-1152
-512
-240
96
64
0
64
-16
128
848
592
336
464
-48
1552
1600
16
-736
-64
528
-992
-1312
272
144
-944
-32
16
-1024
-496
-1296
16
720
336
144
144
192
-464
-352
-816
-480
-16
-480
-752
-560
-32
1072
-160
128
256
176
128
-208
32
-784
-688
-624
560
576
-704
-144
-144
-528
-1632
16
-464
-752
-768
1056
1056
-16
-432
-688
560
656
-448
64
-432
384
-336
-272
960
-800
432
464
-16
-464
-960
-1808
-96
1088
288
48
-80
-448
144
1200
224
-560
-608
-48
96
384
848
1200
-304
-1088
272
176
-1024
432
464
-432
-64
1248
1392
1680
-96
608
768
-240
816
1328
-736
-432
-592
-608
800
512
-288
208
-1264
-912
256
480
-592
1376
624
-240
1504
832
-464
416
688
304
-1040
576
-96
432
80
-480
144
864
208
-208
-736
-32
-288
-464
1056
480
48
-336
-176
544
144
736
1264
768
656
-624
352
1872
1536
-288
784
-304
-704
1232
832
-512
160
-80
64
528
608
1616
1456
816
1456
640
384
-128
-384
208
1120
-560
-80
752
1232
192
-576
-752
-592
-112
976
592
-512
-208
624
864
1648
1072
-1088
-528
-128
-1664
-1296
160
-768
384
16
-64
-592
704
1040
240
224
-768
352
256
608
-448
-656
-256
-272
112
1152
-96
-192
1216
-800
192
-672
-1536
-48
-384
416
-240
-1088
-304
-272
672
576
-576
-400
64
-384
592
-1456
-336
640
336
528
1024
1040
-416
-416
688
-480
-1200
-48
-304
-544
656
784
528
752
896
1712
-288
-560
-768
128
816
480
608
608
96
-944
-192
144
-16
192
-1136
-784
-480
-448
688
1072
1232
112
-192
-320
16
-560
-416
-1664
-1440
32
0
-80
-592
-144
-576
96
960
432
-800
736
528
-192
528
544
592
336
832
-256
480
240
368
-368
-96
-464
-912
-496
-720
944
1696
336
752
832
832
640
-48
352
-720
-688
96
336
-496
112
-528
96
848
-192
688
192
-928
736
1280
-208
432
336
256
784
-608
-208
-112
-240
1120
80
-496
-1024
-544
768
576
-496
-560
448
-128
176
720
256
112
112
1360
1056
640
1440
608
800
640
608
0
-912
-784
-640
-1248
-544
736
1472
1056
256
-576
320
1600
400
368
832
1200
-176
192
752
32
688
1920
1088
-608
-752
-1296
-416
-512
-672
-432
480
-64
96
416
48
-368
-896
-1072
960
1264
1376
608
1184
320
528
432
512
736
960
736
272
160
-448
-16
752
768
752
688
288
-96
-272
-512
-784
1072
592
-240
-352
-1104
-640
224
-720
128
-192
-400
-1664
96
192
688
80
-128
-352
784
-80
-752
-768
-32
-32
-1024
-560
272
208
-1488
528
720
1072
-1024
-368
-352
-1744
-784
-864
-160
80
-320
-192
-1584
-1680
96
96
-144
-176
512
112
-144
832
720
-512
-1296
1104
624
-448
80
944
960
240
-480
-192
224
-32
-432
-64
768
928
528
-912
-1376
-1040
-1184
-384
608
256
-896
-768
624
464
560
1120
560
512
688
-48
128
496
-928
32
576
-784
-832
-1552
-400
240
176
16
-240
-960
224
192
-208
256
-592
-960
-928
-816
-480
-1968
-848
176
-928
-832
-912
-320
-1920
-880
-1200
512
-176
-352
-416
96
-544
-704
448
144
320
112
272
-16
192
736
608
-272
176
800
928
704
368
64
208
288
-320
32
64
32
-640
-880
800
704
864
432
208
-496
544
1520
832
144
192
-288
-1664
-1568
-1200
-1376
-448
-528
320
688
-512
256
-304
-576
-512
656
-352
-704
-1024
-400
-1280
416
1072
48
-240
688
-592
-1840
-368
160
144
1280
1184
-768
320
80
-512
-848
1312
800
800
64
-384
176
112
-144
768
752
288
288
528
272
-608
272
192
-624
-944
0
1200
880
416
-288
-192
544
640
656
96
128
-576
16
-528
-240
1184
1552
672
192
-288
16
720
-336
-416
128
176
-64
96
48
112
32
672
848
560
400
208
656
1312
1760
1664
784
240
-80
288
-480
-304
-256
1696
1664
16
-1520
-1536
-304
-224
96
736
-912
-1088
224
-1504
-816
-224
-960
-672
1344
-224
-176
-1024
-176
464
736
1424
544
-320
-512
-496
-240
384
-976
-1200
1968
496
608
624
416
592
528
-656
-704
-704
528
752
384
-1360
-1104
-720
-128
304
-576
-352
-1040
544
656
288
304
912
1904
1536
672
336
544
336
192
912
256
0
208
-144
336
368
1440
1232
-176
368
784
-128
816
-480
-1632
-64
-752
-1568
768
-224
656
96
-288
80
736
352
928
496
400
1104
384
-240
-256
-1136
-480
-320
1344
816
224
480
-320
368
1184
1760
400
1120
-528
-1040
96
-1152
128
576
912
1424
640
-416
144
-368
-848
1472
1696
160
-288
-16
-1328
-224
112
-1120
304
176
-1392
-384
-208
-16
384
432
-464
-640
-1888
-816
-384
144
496
448
448
-512
-1040
-752
-1856
-1424
-1136
-432
1200
944
976
240
272
80
-352
-1152
192
-336
-240
-224
832
-96
-1360
32
1168
1040
96
960
1328
368
-384
-416
816
688
1072
-240
-1424
976
464
384
1120
176
-96
128
384
-272
-448
48
-784
-464
-1152
-1712
-368
-432
-944
576
272
-80
688
-400
-176
160
480
-1680
-416
-544
-144
1008
-1024
-832
-304
-80
-816
-256
-1248
-576
-496
-432
-1056
-720
48
352
-208
-544
1120
736
-1472
-688
320
-128
-32
336
624
-240
-320
752
400
-96
-176
-208
112
-32
528
688
400
1008
1056
336
1344
304
-432
-240
-832
304
1056
1040
928
-80
-384
656
1152
-288
272
-352
-240
-464
-672
-544
-656
-288
192
448
1136
-320
304
352
80
-240
-1168
-1408
-1248
-1248
-240
176
-688
-288
160
-16
-368
-576
96
960
848
368
48
992
1088
432
-800
-1120
96
-80
192
-368
-960
-672
608
288
-1120
272
-32
-192
-688
16
-496
-1200
304
-64
-480
-480
48
16
-16
352
-320
464
832
-464
48
976
1328
400
-16
352
-272
-560
-16
1088
-512
80
1408
704
160
800
0
1024
0
-1312
-192
96
1280
-176
208
192
1024
96
864
192
32
704
656
1008
-80
544
272
368
1392
512
-80
304
960
1328
464
800
400
256
-832
-688
-400
112
48
1360
1088
-144
-320
320
400
944
48
-128
16
-896
784
544
-144
160
128
480
32
96
96
-1184
-1792
-1616
-880
-1520
-1360
-1408
-480
-1232
0
-1072
-1248
880
896
928
560
192
-512
-1264
-160
-368
-608
176
208
-240
672
-1424
-1168
-704
-1232
-656
-960
-160
-496
-720
-752
1488
80
1072
-320
-96
384
176
496
-768
64
-368
-1440
192
-752
592
-1088
-1072
-352
112
-224
-272
512
944
272
640
176
-112
-640
-992
-1312
768
336
80
320
1296
1168
592
-112
240
480
496
240
1152
976
64
-224
432
624
416
720
784
736
-752
-848
-400
384
-1104
-672
-368
-96
32
-192
-896
-32
-704
-112
-128
-48
752
1264
-512
-880
16
224
1024
1504
1312
736
80
368
-272
-624
-624
-848
592
352
-16
608
1008
624
944
192
48
32
-64
96
-752
-928
-928
768
-560
-304
672
-192
96
1536
1344
-304
-736
-512
848
592
832
-832
-480
-144
-464
272
-192
-176
-1280
-32
464
-160
-800
16
512
752
400
-640
-1584
-208
-1248
-544
432
656
1168
-16
-976
1248
384
-496
-416
368
112
-1984
-704
272
-416
592
32
-112
-848
-512
256
16
528
-192
-656
-64
-304
-96
160
608
176
16
144
-576
192
416
864
832
-144
-1136
-1024
1168
1536
-32
208
160
1664
176
1776
384
544
496
1024
1488
880
256
448
1312
208
336
-880
-512
-560
-592
528
400
1040
848
1040
1072
96
1168
-448
288
1040
1328
608
-464
208
-160
208
-1168
-512
-1664
-672
-496
-400
-768
176
1056
1088
-144
-976
256
640
16
368
272
-352
768
1536
144
944
1968
704
-272
1072
368
-800
-208
-1168
1280
1168
-720
-688
-864
-384
-640
-720
-592
272
144
624
-224
-832
-1616
-496
-1168
-912
176
-512
-944
-144
-272
-928
-1056
-160
-464
-864
512
-128
-912
-832
64
800
624
-576
-160
384
192
-320
160
64
96
1472
192
720
80
848
-480
-576
-480
608
784
-752
48
144
240
-1808
-656
240
1968
1008
1264
1360
-480
-1136
-240
656
-16
176
304
0
16
-224
-160
-784
592
432
816
-112
-224
-912
560
-400
-1168
-720
-272
480
-416
-544
608
-624
576
1184
-400
-1264
-656
-976
-896
-560
-320
-480
336
-224
-1088
-944
-1216
-992
-672
-1536
-272
-832
-1280
-1536
-896
64
112
-1440
-1808
-528
-160
112
-528
-1392
-976
-1248
-704
384
-192
-752
-640
320
432
-416
-272
144
-192
128
-48
992
-768
336
-432
-704
-496
880
880
1776
784
1088
304
-304
-80
-576
-640
-752
-288
48
-704
-1136
-944
-512
-1392
96
656
32
448
432
-32
-1024
-1184
-432
-16
416
592
-240
112
-208
1184
480
-688
-848
-48
656
16
160
-624
-912
-256
640
864
-656
-192
-352
-1120
-736
-112
256
208
880
976
-1264
1008
672
-384
-592
-160
928
896
-176
-400
-304
752
-784
-336
160
-1296
432
-512
-416
-64
272
528
864
-336
-464
-960
-960
-352
672
384
-848
-32
-832
-1152
768
736
-432
384
-336
-1168
-496
-1120
640
-208
-496
-304
-368
16
-1168
-560
704
-112
-480
-784
-688
-544
-96
-656
-1520
224
-1232
-1584
128
352
976
160
-768
-1248
-1232
-592
-112
-544
-384
32
-128
1360
848
16
-160
-880
512
848
256
832
1104
80
-432
256
1152
1248
544
240
-240
-272
-816
-448
-128
-128
-304
-432
464
-144
-176
1216
64
-160
-464
-592
-816
720
-240
96
368
-640
160
64
-1152
-336
848
368
304
384
-816
-480
192
-640
176
-112
192
-480
-1072
16
736
1904
-176
-848
208
576
-784
-608
-1248
-976
-160
288
832
1264
160
-32
464
-304
768
112
304
-160
-32
32
-304
-16
672
-48
-1344
-240
-16
-800
-1392
256
-1184
-192
80
672
1424
384
368
1088
560
-384
-1152
-720
-416
-304
-720
-272
272
144
496
1568
1952
1568
-512
-1408
16
-1024
624
-528
-352
-304
-384
-48
528
432
720
-1232
-1504
96
-144
-624
624
-528
384
640
400
336
784
128
448
544
-144
-16
480
320
0
160
-480
128
256
-320
288
944
1792
1344
-160
-1552
-1264
-768
672
1040
2000
960
-176
-1872
-1328
-416
160
224
688
864
240
-544
160
272
-560
352
208
-336
-720
208
1184
-32
336
848
608
240
448
-768
-448
-1232
-320
896
-240
-688
-848
640
592
-48
-304
-384
-496
-96
-336
-1248
-544
-1088
112
-48
-192
400
224
-384
-1152
-128
64
-432
432
688
-384
-704
-1264
640
1792
880
752
96
224
-640
224
-176
-960
-208
32
-336
640
-128
-240
960
320
-832
-768
-1056
-1120
416
1488
1872
-624
-192
256
1008
1264
640
1488
-272
-128
416
464
720
224
-304
448
304
448
576
448
-944
-1408
736
208
-640
336
864
1200
-1088
-144
256
-912
592
960
288
1072
-48
912
-144
-512
-416
-1232
160
192
-144
-16
-688
-752
288
864
1152
352
-304
1008
-608
176
-128
-960
768
256
-704
192
752
-544
432
1808
1408
1232
-912
112
272
96
-272
-1376
-656
976
1104
864
-432
112
1008
736
48
256
-64
112
-112
-976
704
80
-1200
-112
48
-128
1168
-80
48
1568
544
96
320
64
-240
-704
-224
400
1376
464
896
-208
912
1152
-192
736
832
-544
-1152
48
336
512
-224
-592
-32
-1792
-560
-1280
-1376
384
80
416
272
-448
64
800
208
-560
-160
-432
256
1280
1472
224
720
1696
1136
640
240
416
336
1552
1360
528
272
-528
464
496
560
448
-416
224
640
-832
-816
-800
-32
-624
96
-464
-592
-752
64
-256
-288
256
864
288
-288
-672
544
480
-1184
-1648
-384
-288
416
-352
-992
-816
-560
-1440
96
384
-752
176
256
464
0
-96
-336
-560
-384
384
-368
-256
-272
112
1280
-608
-560
-384
-16
128
336
208
-144
-176
-144
-128
752
944
624
-256
32
960
1392
-224
-976
-336
-912
256
-1200
-848
-144
-976
112
1520
1232
-240
80
320
-64
288
352
1136
704
-992
-384
-960
-16
112
-800
-608
-1616
-1248
208
1520
1168
320
-576
-1344
-64
-1728
-1280
256
672
-672
1216
832
320
592
736
0
-384
-240
496
-224
-720
528
-544
400
304
528
368
-176
-1008
0
816
1152
-272
-1200
240
-16
-1568
-384
-448
480
-16
-288
-272
960
-32
-544
176
-240
512
224
448
80
-720
544
464
-304
192
816
-288
-784
-400
-496
-880
-464
496
240
-224
16
-208
272
-96
-1152
-48
1040
-48
-128
1568
1056
304
672
-208
-832
736
736
-528
448
1520
480
-240
-432
-752
-288
16
-720
-1088
432
1056
-32
-352
-192
480
816
2016
208
-528
-560
960
352
-32
-1872
-880
-336
-464
240
-1056
-1856
-944
416
880
-368
-688
-384
-496
-208
272
400
-80
1088
288
1296
16
912
608
368
-352
16
128
160
-656
-48
-160
-352
64
480
32
-416
64
224
560
-1456
-800
-704
576
1440
736
496
-592
-672
736
1456
-976
-640
368
-432
80
96
16
240
-96
-128
-784
-1344
-624
224
-96
896
-544
-1840
-32
1024
144
-432
-96
-304
-528
544
560
-368
-1024
176
288
32
48
-1456
-1680
-160
-624
-1040
-1056
384
832
16
416
-736
-208
-128
-432
-80
-544
-16
576
48
-512
-640
-1296
-176
720
-704
32
-64
1136
144
-144
-128
-1024
672
928
-272
-848
-64
1232
-208
192
656
400
-800
448
144
-160
-688
-448
-320
-224
576
-80
-128
-624
384
752
-1296
-1072
-672
-1056
-304
-624
480
1072
928
64
-1216
-432
528
16
112
112
-288
-880
176
-512
512
592
112
656
816
1008
480
496
-256
-928
-576
432
224
-160
624
464
-304
-528
-1872
-1040
1552
-64
-688
-528
-336
64
1056
592
320
-1264
-784
-880
672
768
-1440
-848
288
176
240
-432
-368
320
672
368
-528
208
704
-544
-288
-112
96
-352
896
-448
-1840
-1024
1024
-448
-1520
-848
160
-1184
-1008
-336
-912
-512
976
736
864
-128
-528
-496
-144
-304
-128
-192
-640
-112
416
-832
-592
704
-96
-656
-1264
-1024
-272
-624
-384
432
768
-64
-208
416
1776
1408
464
544
-736
-976
-352
-464
-368
-720
-480
528
1328
1232
256
-224
208
64
-224
-528
-1104
-304
-640
0
240
160
-640
-688
448
768
-608
-304
-256
48
-496
-1008
-608
-880
96
-224
-80
-704
-528
-176
80
368
-112
1120
400
-480
224
912
192
880
208
-288
384
752
336
192
160
1632
208
-896
-512
-368
544
368
-736
-480
384
-144
448
-32
-592
-1888
-528
-48
48
656
160
-176
-848
544
688
672
64
416
816
-432
560
1552
0
-528
544
1376
944
384
-1408
-1408
-176
-560
-112
144
-96
-80
192
-1072
-1504
-464
-112
144
560
96
-1168
-384
384
944
832
-752
-336
-544
-496
-400
-160
320
-80
-656
-864
-144
-976
112
-224
-608
704
816
208
-96
96
-80
-656
16
1152
128
-736
-432
-400
-1024
-576
-96
-688
496
608
784
-416
368
400
240
-736
-80
256
-1264
-288
-1008
-880
464
-480
-688
656
848
496
-1056
-1136
-80
1408
1008
208
976
384
-224
-656
624
352
480
912
-336
176
-560
-480
304
592
-336
-752
-1504
-384
416
656
560
-272
-160
304
192
-992
-64
80
32
-1072
-256
-464
-304
160
1264
176
-688
176
-384
-512
-448
-1968
-1584
-208
1104
928
192
-32
384
-208
624
1200
608
160
96
32
608
384
48
-1712
-416
672
896
-256
-224
416
464
-704
-976
-960
1056
608
-80
-448
256
704
-896
-448
1200
1040
976
1024
-176
-944
-912
-1360
-1664
-1408
704
1936
736
-528
-432
224
-304
624
-544
-2016
-1040
160
112
-320
288
160
1088
1008
1248
1376
352
-176
672
1344
1152
-208
-192
-1056
-608
752
-864
-608
-32
304
544
-528
-48
-1232
-1216
-480
-32
416
-1152
-160
-464
192
960
768
288
-352
-1760
-1248
-720
-32
656
1168
-16
288
368
960
1104
992
1120
624
-112
128
-976
656
784
1280
1456
1328
160
144
176
-256
-720
400
816
1152
1712
608
432
1008
-656
464
-208
-336
1168
752
208
32
-16
320
256
176
1056
352
464
-496
0
544
16
288
352
48
-208
1680
464
-272
-32
512
128
944
832
-672
-672
160
800
-80
-400
704
-912
-640
-192
496
-624
-1520
-1648
-880
0
-1040
-1120
-272
736
-112
560
-800
224
592
-176
-1184
-1024
-512
0
-400
-864
192
-448
0
-240
-432
-752
-528
1568
1296
32
-272
-352
80
-16
-864
-272
-432
256
-32
-704
-688
512
1136
-384
-704
-160
32
-96
272
16
288
336
-352
-704
80
-304
-1760
-64
960
-304
-128
128
-240
400
1248
384
-208
-64
368
-240
416
448
368
192
1248
400
960
944
-416
256
224
544
832
-16
-80
-336
288
208
224
704
464
-80
-32
-48
432
-320
752
1488
1328
1200
976
208
-480
-96
976
784
-512
-384
-416
-400
-272
-144
-32
-1232
-144
1024
448
-400
-400
0
-1168
-720
-720
416
208
384
192
1056
1312
960
-272
-224
384
-816
-1104
48
-128
-416
-928
352
-384
-48
-816
-704
-880
-496
-112
368
592
-352
0
1328
832
656
-48
-32
-400
256
112
-1152
-1056
-256
240
608
-1168
-768
-304
-64
1040
-544
-1824
-464
-256
-32
-480
-1312
-576
-480
224
736
-48
-832
-48
736
224
448
912
608
-720
-1008
-272
368
288
784
352
176
-400
144
464
-192
80
544
-112
-1488
-512
-224
128
-240
-640
320
1088
-144
304
656
1136
1328
144
464
-800
416
-384
16
752
-736
-832
32
480
-576
-432
480
1008
176
304
-176
-592
-560
16
-464
-608
-736
-1088
160
-656
-1296
-1088
16
1264
1392
-96
-96
80
-688
-896
16
-848
-1280
-304
-176
448
-512
-608
256
544
-592
-464
-48
-1536
-816
-576
-656
-560
288
-976
-896
-320
-144
-976
-288
160
-1072
-1024
-752
-1520
144
-464
-992
-1600
-640
736
1552
-320
-16
-640
656
-832
-704
-400
-592
144
1856
688
-512
-1184
32
16
-720
-1008
-1680
-1056
-16
288
752
304
192
-448
-240
720
432
-784
640
1440
560
-704
-1008
-512
592
928
-624
-816
400
544
-448
-64
704
0
496
32
208
-304
-960
96
912
-272
-240
608
368
112
-224
-512
-1056
480
64
-752
-624
144
48
928
80
720
1776
1040
-112
112
-112
176
832
128
-576
-1056
-1104
-1216
-720
-16
-304
-32
736
-160
-432
1216
1264
656
-800
32
784
-496
-1440
-80
-1440
-256
1744
640
-640
-416
256
-1008
-736
-720
-272
0
-496
-80
-960
-576
-320
-480
-304
-1184
-64
-480
-1184
-272
656
-304
-1456
-256
-752
-1936
656
-112
-832
-640
-352
-256
128
-224
96
672
-576
-208
736
784
-832
-1488
-896
-448
-208
-384
-1312
-240
336
576
-496
144
64
480
-208
320
-560
272
1120
336
176
256
-848
-1072
16
1040
-32
400
320
512
1264
112
1904
1392
-592
1664
928
-288
96
1040
-608
80
208
32
448
-208
-640
32
560
624
304
544
-656
-624
496
480
656
864
32
-480
-1408
-256
352
272
1248
-128
-160
592
624
-976
176
1104
-496
-96
-528
16
208
192
-384
-368
144
160
-144
576
-224
208
480
208
32
-480
800
800
512
848
144
-128
-544
-672
624
240
-288
-672
-1280
432
64
-832
-208
-512
464
-608
-624
-1904
384
944
480
-224
-64
0
-400
448
768
272
-848
-192
-400
352
64
240
752
896
800
944
0
-432
-944
-416
-208
-752
-240
400
112
-272
672
-16
48
320
-368
-1136
112
-16
448
288
192
880
448
592
976
432
-656
-1200
-480
-560
80
16
-944
-576
-560
272
208
-160
736
1264
1056
48
-576
-1312
-528
-176
-256
-144
-1120
-16
1040
176
144
-784
-720
-192
992
736
-256
784
880
464
1072
928
1168
704
656
-1040
-544
1280
400
624
224
-144
128
-416
-144
128
-336
-560
-896
-1248
-96
-1472
-656
-160
640
752
240
-736
-240
-640
192
1056
1168
240
96
-224
528
-512
-224
-384
-320
-1328
-848
-1728
-1216
-800
688
1344
688
576
1232
480
-576
-464
144
432
-544
192
368
288
704
-96
-288
-240
-336
-80
336
224
96
112
800
-16
-704
-976
-1056
48
352
-576
-736
-64
480
736
-1264
-160
-64
800
704
-352
-1552
-544
-208
-32
336
-144
128
-352
-1216
-64
-64
-144
-944
528
368
288
80
528
752
-160
112
-576
896
96
160
128
1088
-656
-1056
-512
-1008
-192
-1072
-720
-1376
-16
-704
-880
496
672
720
1488
576
-720
-960
-1152
416
-320
-480
-752
-752
-848
-192
-1424
-1472
-576
288
704
-672
-704
-48
-192
-352
-944
-208
-736
-960
-384
-288
-880
384
912
-192
-240
-32
-1632
-1360
-800
352
-32
-112
48
-336
-816
-256
352
144
-960
-48
-112
-160
-416
400
48
-224
-384
-448
-448
368
-464
32
144
-112
-160
-1200
1072
-176
48
-1472
-1600
-912
-528
-832
112
80
912
256
-144
640
0
-768
16
-688
816
976
-16
-512
32
832
240
-608
-480
112
-224
1056
480
976
144
240
-80
1024
1472
688
-640
-960
672
160
-1088
-528
336
528
128
64
-352
336
-496
-736
-688
432
-48
16
496
480
352
-448
-752
-1536
-304
-320
304
-160
240
336
-640
-624
256
-832
-1312
-720
-832
-176
-448
-1424
-640
-368
-864
-848
-528
1376
688
320
-704
16
528
-176
496
784
16
-720
864
864
416
1008
96
-720
48
768
448
-528
736
48
-704
-336
-1184
-416
-256
176
592
576
1120
-880
-992
576
480
272
-224
-592
-432
-1024
-640
64
-400
224
160
-736
416
-48
528
-128
-80
-848
-1008
80
272
64
432
512
544
1248
1104
432
-128
496
256
432
-1232
-976
-256
16
-32
-576
-544
144
736
32
256
-464
-1040
-960
592
672
-384
-672
-448
-176
-16
512
-848
-384
336
-944
464
832
464
608
-272
688
-160
336
-224
896
-256
-944
256
976
864
-336
-992
-688
-176
672
544
-128
-80
-400
176
64
784
1248
-336
-1088
-752
112
1280
1056
768
-192
-960
208
224
176
-992
-512
-608
-224
-224
-1104
736
512
864
1088
-928
-624
-1472
-1936
-1376
-384
240
656
1360
304
-224
224
240
1040
1648
848
384
-336
-800
-544
-528
-256
528
464
-592
-592
272
-528
-752
64
-752
-1184
-208
-336
-480
-1680
-1280
-1056
560
992
160
1056
704
-240
80
-192
-320
96
176
352
480
-288
-112
96
800
416
976
1248
576
-160
704
352
256
1120
1136
384
592
416
-512
-704
-400
176
1424
1264
624
-784
-64
96
-800
-800
528
-192
-240
784
480
-1504
32
144
688
976
208
752
-560
-448
0
512
1312
96
-672
-480
1312
928
-560
-704
-992
-896
-704
16
-1392
-1152
-1088
-96
-688
-16
-688
-32
464
48
-736
-1712
64
-400
128
-640
-960
1568
1456
-576
-688
624
864
1632
112
608
-1456
128
304
288
240
-304
128
-416
128
-992
-176
-528
-464
-352
-496
-976
-592
208
1424
1184
368
240
80
144
-320
1056
-976
-416
-464
240
-256
-416
368
368
640
-16
1104
832
-32
-160
-320
-1312
912
1024
544
256
384
80
176
832
1360
544
416
-112
16
432
704
-608
-496
-880
-336
-672
-352
1200
496
-240
768
-560
-752
-208
-880
-400
656
1072
-176
-112
-1440
-1552
896
704
-240
-320
768
1264
448
704
1360
1024
-48
-448
608
-240
-1552
-144
-1088
176
-288
-96
768
576
-144
-432
-880
-1328
-384
880
1120
1280
352
352
768
1168
-864
-368
-448
-864
48
368
1120
96
544
528
-544
176
-160
-752
800
-720
-16
-1392
-912
128
768
-128
352
544
-144
-960
-848
160
-448
-656
-400
-480
176
496
848
-608
-128
304
-288
-416
496
144
-160
432
480
240
768
864
-544
160
-608
592
800
384
-512
224
800
608
64
464
-496
224
512
496
944
-64
320
624
-960
-400
-832
-448
-800
-704
-960
-640
-1168
-112
1248
560
416
464
208
-1216
-1376
576
16
816
80
576
304
-176
224
160
448
944
1232
592
-480
-720
-496
-544
-32
-512
320
416
-32
-832
48
592
-192
448
128
-960
-256
-576
256
432
-560
224
688
384
624
272
832
-336
624
1952
1120
720
688
496
800
1104
656
-112
640
-320
544
-160
-496
-16
192
-256
-96
-784
-944
-640
576
240
48
384
1232
1072
1296
544
960
1600
-320
-464
64
96
224
-480
-208
-272
-480
-784
-160
496
1632
432
288
-208
-80
448
768
-112
-608
224
1504
-32
-1472
-384
272
-1264
-1552
720
-432
-192
0
416
-928
-528
-432
912
80
64
-1088
-560
912
368
-32
784
1248
288
-208
176
592
976
944
-448
-160
-944
-1904
-192
208
-1184
-1088
-512
1104
816
1008
1344
-448
528
1088
1040
-32
-1232
64
688
-416
288
-384
80
704
720
64
-576
-16
-112
48
464
560
-48
16
1136
432
240
48
-704
544
96
-112
-1136
-208
464
768
288
0
304
-112
-768
-1616
-672
288
1232
928
1040
-16
320
656
-240
896
1664
288
-64
256
480
656
1232
1504
960
-768
-1232
-944
-640
-896
-672
192
-736
592
320
-96
1056
576
-160
192
336
-528
-1168
912
992
608
-288
592
-32
832
736
16
-400
304
-240
-400
-912
-416
-848
-464
112
-496
256
1104
-608
0
-720
-784
-560
-784
-1312
-832
-192
-256
448
1168
1008
560
-384
-288
368
576
544
-48
-256
864
608
672
-96
192
48
896
608
-928
-448
-1232
0
400
688
-448
-1008
-656
-592
-1232
-544
160
-1056
-784
-528
336
80
1264
1472
288
-32
-16
304
-704
1120
256
-464
48
64
448
608
-928
1152
1120
624
592
-1328
-896
-896
448
656
592
32
128
528
192
816
1280
128
-928
912
1184
1184
-448
-672
320
176
112
208
544
-1648
-1056
512
-160
-304
1152
1184
592
528
944
688
-256
-240
-752
-816
-192
560
-1888
-1248
624
1888
-736
-880
-64
-128
752
832
-656
-576
-64
-608
-400
-544
-992
464
800
-128
-784
16
-768
-272
352
1280
1184
256
240
816
-288
-1360
-800
-448
-1424
-784
352
416
80
-768
-1168
-304
640
688
384
-192
-528
-608
1136
256
48
1488
704
240
-208
416
480
-176
-688
-848
592
-240
-784
-48
464
-848
128
608
-592
-768
-240
208
48
1072
1216
1040
-416
704
1744
1120
352
544
-688
-1232
-352
-160
160
-624
-208
-288
-1104
96
-576
1296
592
-480
-800
-784
-352
208
-48
-128
-16
1248
1040
656
240
-1040
-48
1248
1440
-464
-752
288
912
384
512
-704
48
208
-528
720
704
480
1664
192
-400
-256
352
400
-1296
208
976
816
-544
-48
112
320
608
32
-176
-512
1296
1136
368
-272
160
-128
-784
336
112
80
688
112
624
784
64
1120
1344
800
432
736
-448
272
352
144
-272
608
432
240
1296
-672
-528
-416
-480
-496
-16
16
-1552
-1008
96
-1168
-1440
432
-192
-1360
-624
368
592
848
256
-304
560
-304
416
-160
1360
368
-576
272
256
-512
-1296
-352
304
-96
32
832
608
-848
-624
-1424
-1328
-688
-832
-144
112
-672
-544
-496
560
864
592
1152
-640
-768
-112
-112
-16
-272
1248
704
-400
-144
-976
-496
-800
224
128
-208
-1008
176
320
-192
-128
384
-896
-864
-480
-1168
-896
944
576
-496
1120
1248
848
-160
48
384
-384
608
1168
320
-160
-256
-528
-80
928
1152
1392
912
-32
-112
656
1216
-48
-112
320
368
688
320
176
528
448
256
544
608
336
-640
-880
160
-672
-896
288
-496
304
-160
400
1104
336
-912
0
-208
-288
-496
480
1312
-400
48
112
736
816
192
192
-672
-528
-528
-672
-80
1168
368
-272
-368
-96
-816
-432
240
400
32
416
688
672
1008
704
-16
-976
-976
-1296
-480
-1344
-272
-512
80
-240
48
832
416
32
976
-32
-176
224
-1104
96
-480
-688
-1152
144
-224
192
-176
-480
144
48
1344
384
-624
-656
-80
-880
-672
848
720
240
288
-304
-1296
336
352
144
-544
352
-688
448
928
48
-368
-784
-1216
-1024
-1552
352
144
-288
256
-112
-48
1184
1056
-896
176
688
-160
304
-144
-368
-624
-1040
-1008
-848
-32
-704
-48
1120
-544
512
704
272
768
912
-560
-112
208
384
384
784
384
704
688
1280
1312
560
-608
-48
192
256
272
672
-336
-608
240
336
-640
-1184
-608
-1760
128
400
224
-304
-272
-416
640
176
928
912
-1040
-1360
-1584
-336
384
-608
-128
688
880
-32
144
304
272
-800
640
-672
-208
-96
352
144
-1616
-64
-1328
-112
432
1024
736
-304
80
240
-496
1072
480
304
992
496
128
-384
624
672
496
-448
-96
320
-608
-240
-1456
-16
560
176
496
528
144
752
832
-512
288
576
-16
16
960
384
32
1216
144
1504
1488
800
-496
272
-624
-480
80
-272
-48
240
208
-80
-352
528
480
160
1056
608
0
1040
1104
544
1024
768
960
-48
208
736
1152
288
48
624
224
-1200
-1184
-992
-1712
-1360
128
192
0
-672
-1232
32
-352
32
-656
-864
288
64
128
-496
864
1104
-672
240
-272
400
736
-720
-224
528
1120
-160
128
-560
-640
928
496
352
-320
-608
1024
1248
-960
320
592
-272
-64
-592
48
48
-448
-480
-880
-816
-176
-1104
-880
-304
512
720
848
1088
1232
384
752
-928
-880
832
-512
432
-160
-448
-928
-288
80
1024
1456
992
640
336
-192
96
912
-400
-368
-336
-544
-832
-1920
-768
-1072
-240
-592
704
-48
-240
-800
-368
-320
-464
-320
304
992
640
336
848
80
-352
-256
-544
-688
-128
624
560
128
-912
-944
-976
-304
464
1040
720
704
-640
160
32
-288
112
-368
768
-1008
-144
848
-528
-896
-240
272
688
496
-848
-336
704
-208
64
48
-1072
-752
-16
-848
-688
272
256
-1760
-1376
-896
-976
-288
-944
448
944
32
432
928
-528
-464
-208
384
-768
464
224
992
1008
-160
272
736
784
160
800
672
-464
0
-336
592
912
1088
912
352
-528
-112
384
-320
-896
368
80
464
832
368
1280
112
-1024
-1168
-1376
-272
496
-864
-656
-1264
-272
736
656
160
-304
384
-144
-976
-48
-192
608
-240
336
176
272
64
-624
