832
336
1904
1632
1184
576
0
-576
-1104
-1632
-208
-1024
-800
-928
-32
0
0
0
176
1472
816
336
1904
1632
1200
592
32
-544
-1072
-1584
-160
-976
-784
-976
-32
0
0
0
160
1408
816
368
1936
1664
1232
608
32
-528
-1072
-1616
-208
-1008
-864
-1024
-32
0
0
0
144
1344
784
352
1920
1664
1232
624
64
-512
-1056
-1600
-176
-992
-912
-1104
-48
0
0
0
128
1280
768
368
1936
1664
1264
656
80
-496
-1024
-1568
-144
-976
-960
-1184
-48
0
0
0
128
1216
784
432
1968
1696
1280
672
96
-480
-1024
-1536
-80
-912
-976
-1232
-64
0
0
0
112
1152
784
480
2016
1712
1312
688
128
-448
-992
-1504
-48
-880
-976
-1280
-64
0
0
0
112
1104
768
512
0
1728
1344
720
144
-432
-944
-1456
-2032
-832
-976
-1344
-80
0
0
0
96
1040
736
528
0
1744
1360
752
176
-400
-944
-1456
-2016
-816
-1024
-1424
-96
0
0
0
96
992
720
544
16
1760
1392
768
192
-400
-912
-1424
-1984
-768
-1024
-1488
-112
-16
0
0
80
928
688
560
32
1776
1424
800
224
-368
-896
-1424
-1984
-768
-1088
-1568
-112
0
0
0
80
880
672
592
64
1776
1440
832
224
-352
-880
-1376
-1920
-720
-1056
-1632
-144
0
0
0
64
832
624
608
64
1792
1456
864
256
-336
-864
-1376
-1904
-688
-1072
-1696
-160
0
0
0
64
784
608
656
96
1792
1456
880
272
-320
-864
-1376
-1920
-720
-1152
-1808
-176
0
0
0
64
736
576
672
112
1808
1488
896
288
-304
-848
-1408
-1936
-720
-1184
-1856
-192
0
0
0
48
688
512
672
96
1808
1504
928
320
-272
-832
-1360
-1888
-672
-1200
-1968
-224
0
0
0
48
640
496
736
144
1824
1520
928
336
-272
-816
-1344
-1856
-640
-1168
-2016
-256
0
0
0
48
592
448
768
176
1856
1552
960
352
-240
-800
-1344
-1840
-608
-1184
-32
-288
0
0
0
32
560
400
752
160
1840
1552
976
368
-224
-784
-1344
-1872
-624
-1232
-128
-320
-16
0
0
32
512
336
768
160
1824
1552
992
384
-192
-752
-1312
-1840
-608
-1248
-192
-352
-16
0
0
32
480
288
816
192
1840
1568
1024
416
-192
-768
-1312
-1824
-560
-1248
-272
-384
-16
0
0
32
448
224
816
208
1856
1568
1024
432
-160
-720
-1296
-1808
-544
-1248
-336
-432
-16
0
0
32
416
176
864
240
1888
1600
1056
448
-160
-736
-1296
-1792
-512
-1216
-368
-464
-16
0
0
16
384
96
864
240
1856
1584
1056
464
-112
-688
-1264
-1776
-480
-1216
-464
-512
-16
0
0
16
352
32
880
272
1888
1616
1088
480
-112
-688
-1264
-1776
-480
-1232
-512
-560
-16
0
0
16
336
2016
880
288
1888
1632
1104
480
-96
-672
-1248
-1760
-432
-1200
-592
-624
-16
0
0
16
304
1952
912
304
1904
1648
1120
512
-80
-656
-1232
-1760
-432
-1200
-640
-672
-16
0
0
16
272
1888
960
352
1936
1664
1152
528
-48
-640
-1216
-1744
-416
-1232
-736
-752
-16
0
0
16
256
1824
976
400
1968
1696
1184
560
-32
-624
-1200
-1712
-384
-1232
-816
-816
-16
0
0
16
240
1760
992
416
1984
1712
1216
592
-16
-608
-1184
-1712
-368
-1200
-832
-864
-16
0
0
16
224
1696
1024
480
2016
1744
1248
608
16
-592
-1168
-1712
-368
-1216
-928
-928
-32
0
0
16
208
1616
1024
496
0
1760
1280
624
32
-576
-1152
-1712
-352
-1216
-976
-992
-32
0
0
0
192
1552
1024
528
16
1776
1312
656
32
-576
-1136
-1712
-352
-1216
-1024
-1072
-32
0
0
0
176
1488
1040
560
16
1760
1312
672
64
-544
-1120
-1680
-320
-1200
-1104
-1152
-48
0
0
0
160
1408
1024
576
32
1792
1344
672
64
-544
-1104
-1696
-304
-1168
-1104
-1232
-48
0
0
0
144
1328
976
592
64
1808
1376
720
96
-512
-1088
-1664
-272
-1184
-1200
-1312
-64
0
0
0
128
1264
992
672
96
1808
1392
736
112
-512
-1072
-1616
-208
-1120
-1216
-1392
-80
0
0
0
128
1200
992
704
128
1840
1424
768
128
-496
-1072
-1632
-208
-1104
-1232
-1456
-80
0
0
0
112
1136
960
720
128
1840
1440
784
160
-464
-1040
-1616
-176
-1072
-1280
-1536
-96
0
0
0
96
1072
928
752
160
1872
1456
800
176
-448
-1024
-1600
-160
-1056
-1312
-1632
-112
0
0
0
96
1008
896
784
192
1904
1504
832
192
-448
-1008
-1584
-144
-1056
-1376
-1744
-144
0
0
0
80
960
880
800
192
1872
1504
848
224
-416
-992
-1584
-128
-1008
-1360
-1792
-160
0
0
0
80
896
848
832
224
1904
1520
880
240
-400
-976
-1552
-80
-960
-1392
-1888
-176
0
0
0
64
848
816
896
272
1936
1568
896
256
-384
-976
-1536
-48
-912
-1392
-1968
-208
0
0
0
64
784
752
896
272
1936
1584
944
288
-352
-944
-1520
-32
-912
-1408
-2032
-224
0
0
0
64
736
736
944
304
1952
1600
960
304
-336
-928
-1504
-16
-880
-1440
-96
-272
0
0
0
48
688
688
992
352
1984
1648
992
320
-320
-912
-1488
-2032
-848
-1440
-144
-304
0
0
0
48
640
608
1008
368
2000
1664
1024
368
-288
-896
-1488
-2016
-816
-1424
-224
-336
-16
0
0
48
592
560
1056
384
2000
1680
1040
384
-256
-880
-1472
-2016
-816
-1472
-320
-368
-16
0
0
48
544
480
1056
416
2032
1712
1088
416
-240
-848
-1440
-1984
-784
-1488
-432
-432
-16
0
0
32
512
416
1072
416
2032
1728
1120
448
-224
-848
-1440
-1984
-768
-1488
-496
-464
-16
0
0
32
480
336
1104
448
0
1744
1136
448
-208
-816
-1424
-1968
-752
-1488
-544
-512
-16
0
0
32
432
256
1072
432
2032
1744
1152
480
-176
-800
-1392
-1920
-704
-1472
-624
-560
-16
0
0
32
400
176
1104
464
2032
1744
1168
496
-144
-768
-1376
-1920
-688
-1488
-736
-640
-16
0
0
32
368
112
1120
480
0
1760
1200
512
-128
-768
-1360
-1920
-672
-1472
-768
-688
-16
0
0
16
352
16
1104
480
0
1776
1216
560
-96
-736
-1360
-1936
-688
-1520
-880
-752
-16
0
0
16
320
1984
1104
480
0
1760
1216
560
-80
-720
-1328
-1920
-672
-1504
-928
-816
-16
0
0
16
288
1904
1104
496
0
1760
1248
576
-64
-704
-1312
-1904
-624
-1456
-976
-864
-16
0
0
16
272
1840
1120
512
0
1744
1232
576
-48
-672
-1296
-1888
-592
-1440
-1040
-944
-32
0
0
16
256
1744
1072
512
0
1760
1248
592
-32
-656
-1248
-1856
-544
-1408
-1056
-992
-32
0
0
16
224
1664
1056
512
2032
1760
1264
608
-16
-640
-1232
-1840
-528
-1392
-1120
-1072
-32
0
0
16
208
1584
1056
544
0
1760
1264
608
0
-624
-1200
-1792
-448
-1344
-1136
-1136
-48
0
0
16
192
1504
1040
576
32
1776
1296
624
0
-624
-1200
-1744
-384
-1264
-1152
-1200
-48
0
0
0
176
1424
1024
576
32
1776
1312
656
32
-592
-1168
-1712
-336
-1216
-1184
-1264
-64
0
0
0
160
1360
1024
624
48
1776
1328
672
48
-560
-1120
-1680
-304
-1184
-1184
-1328
-64
0
0
0
144
1280
976
624
64
1792
1360
704
96
-528
-1088
-1632
-208
-1104
-1200
-1408
-80
0
0
0
144
1216
960
672
112
1824
1392
736
112
-512
-1072
-1616
-192
-1072
-1216
-1472
-96
0
0
0
128
1152
960
720
144
1840
1424
768
128
-496
-1056
-1584
-128
-1008
-1184
-1520
-96
0
0
0
112
1088
912
720
128
1840
1440
784
176
-448
-1008
-1552
-96
-976
-1232
-1600
-112
0
0
0
112
1024
880
768
176
1872
1472
816
192
-432
-992
-1536
-64
-960
-1280
-1696
-144
0
0
0
96
960
832
768
176
1872
1488
848
224
-416
-976
-1520
-48
-912
-1264
-1744
-160
-16
0
0
96
896
800
800
176
1872
1504
880
256
-384
-960
-1536
-64
-912
-1280
-1792
-176
0
0
0
80
832
736
800
176
1872
1520
896
272
-352
-928
-1520
-48
-896
-1312
-1888
-192
0
0
0
80
784
688
800
176
1856
1520
912
288
-320
-912
-1488
-2048
-848
-1328
-1968
-224
0
0
0
64
736
640
832
208
1872
1536
928
304
-304
-880
-1456
-2000
-800
-1312
-2048
-256
0
0
0
64
688
576
848
224
1888
1568
960
336
-288
-864
-1456
-2016
-816
-1360
-96
-288
-16
0
0
64
640
512
848
224
1872
1568
944
336
-288
-864
-1440
-1984
-768
-1344
-128
-320
-16
0
0
48
592
448
864
256
1888
1584
992
352
-256
-832
-1424
-1952
-720
-1328
-208
-352
-16
0
0
48
544
384
896
272
1904
1584
1008
384
-240
-816
-1392
-1920
-688
-1328
-304
-384
-16
0
0
48
512
320
928
288
1904
1600
1024
384
-224
-800
-1376
-1904
-640
-1312
-336
-432
-16
0
0
32
480
240
928
304
1920
1632
1040
400
-208
-800
-1376
-1904
-640
-1344
-432
-464
-16
0
0
32
432
176
944
304
1920
1616
1056
416
-192
-784
-1360
-1888
-608
-1296
-464
-512
-16
0
0
32
400
112
944
336
1936
1648
1088
448
-160
-752
-1328
-1840
-560
-1280
-528
-560
-16
0
0
32
368
48
992
368
1952
1664
1104
448
-144
-736
-1312
-1824
-528
-1296
-624
-624
-16
0
0
32
352
2016
976
384
1968
1680
1136
480
-128
-720
-1296
-1840
-528
-1296
-672
-672
-16
0
0
16
320
1936
976
384
1968
1696
1152
496
-112
-720
-1296
-1872
-560
-1328
-768
-720
-16
0
0
16
288
1872
976
400
1968
1680
1168
512
-112
-704
-1280
-1840
-512
-1296
-800
-784
-16
0
0
16
272
1792
976
400
1984
1696
1184
528
-96
-688
-1264
-1808
-480
-1280
-848
-848
-16
0
0
16
256
1712
992
432
2000
1728
1216
560
-64
-672
-1248
-1808
-448
-1264
-912
-912
-32
0
0
16
224
1648
992
464
2000
1712
1216
576
-48
-656
-1216
-1776
-432
-1248
-976
-992
-32
0
0
16
208
1568
960
464
2000
1728
1248
608
-16
-624
-1184
-1728
-368
-1216
-1008
-1056
-32
0
0
16
192
1504
976
480
2016
1728
1264
608
0
-608
-1168
-1728
-352
-1216
-1056
-1120
-48
0
0
16
176
1424
960
528
32
1792
1344
672
32
-592
-1168
-1696
-304
-1168
-1072
-1184
-48
0
0
16
160
1360
944
560
48
1808
1376
704
80
-544
-1120
-1632
-240
-1120
-1136
-1280
-64
0
0
0
144
1296
976
640
96
1824
1392
736
96
-528
-1104
-1616
-192
-1088
-1168
-1344
-64
0
0
0
144
1232
960
656
112
1856
1424
768
128
-512
-1072
-1600
-160
-1040
-1168
-1424
-80
0
0
0
128
1168
944
672
112
1840
1440
784
144
-480
-1056
-1584
-160
-1056
-1216
-1472
-96
0
0
0
112
1088
880
672
112
1840
1440
784
160
-464
-1040
-1568
-128
-1008
-1248
-1568
-112
0
0
0
112
1040
864
688
112
1840
1456
816
192
-432
-1008
-1552
-96
-992
-1296
-1664
-128
0
0
0
96
976
864
736
128
1840
1456
816
192
-416
-976
-1520
-48
-928
-1280
-1728
-144
0
0
0
96
912
816
768
160
1856
1488
848
224
-400
-960
-1504
-32
-912
-1296
-1808
-160
0
0
0
80
864
768
768
160
1840
1504
864
256
-368
-944
-1504
-16
-896
-1312
-1872
-192
0
0
0
80
800
736
816
192
1856
1520
896
272
-352
-928
-1504
-16
-880
-1328
-1936
-208
0
0
0
64
752
672
816
192
1856
1520
896
288
-320
-896
-1472
-2032
-848
-1360
-2048
-240
0
0
0
64
704
624
848
208
1856
1536
928
304
-304
-880
-1456
-1984
-784
-1328
-48
-272
0
0
0
64
656
576
880
240
1888
1568
944
336
-288
-864
-1456
-1984
-752
-1328
-128
-304
0
0
0
48
608
528
912
256
1888
1568
976
368
-256
-832
-1424
-1968
-736
-1328
-192
-336
-16
0
0
48
560
464
928
272
1904
1600
1008
384
-240
-832
-1408
-1952
-704
-1328
-256
-368
-16
0
0
48
528
400
944
288
1920
1616
1024
400
-208
-800
-1408
-1936
-688
-1344
-336
-400
-16
0
0
32
480
336
1008
352
1952
1632
1056
416
-192
-784
-1376
-1904
-656
-1328
-400
-448
-16
0
0
32
448
272
1024
352
1968
1648
1088
432
-176
-768
-1344
-1888
-608
-1312
-464
-496
-16
0
0
32
416
192
1024
368
1952
1648
1088
448
-160
-752
-1328
-1872
-592
-1312
-512
-544
-16
0
0
32
384
96
1008
368
1968
1664
1104
448
-160
-752
-1344
-1904
-608
-1344
-608
-592
-16
0
0
32
352
32
1024
400
1984
1680
1120
464
-144
-736
-1328
-1872
-560
-1328
-672
-656
-16
0
0
32
336
2000
1008
400
1968
1680
1136
480
-144
-736
-1312
-1824
-480
-1264
-672
-688
-16
0
0
16
304
1920
1024
432
1984
1696
1168
512
-112
-704
-1280
-1824
-480
-1280
-784
-752
-16
0
0
16
272
1856
1056
464
1984
1696
1168
512
-112
-704
-1264
-1824
-480
-1280
-816
-816
-16
0
0
16
256
1760
1008
464
2016
1728
1216
544
-96
-688
-1264
-1808
-464
-1264
-880
-880
-16
0
0
16
240
1696
1008
464
2016
1728
1232
560
-64
-672
-1248
-1792
-448
-1280
-976
-944
-32
0
0
16
224
1616
1008
496
2032
1744
1248
576
-64
-672
-1232
-1776
-416
-1232
-992
-1024
-32
0
0
16
208
1536
992
512
0
1760
1280
608
-16
-640
-1200
-1744
-368
-1216
-1056
-1104
-32
0
0
16
192
1472
992
544
16
1760
1296
624
-16
-640
-1184
-1728
-352
-1200
-1088
-1152
-48
0
0
16
176
1392
960
528
16
1776
1328
656
16
-624
-1184
-1744
-384
-1232
-1152
-1232
-48
0
0
0
160
1328
928
528
0
1760
1328
672
48
-592
-1168
-1728
-336
-1184
-1184
-1312
-64
0
0
0
144
1264
944
592
48
1792
1360
704
64
-560
-1120
-1664
-256
-1120
-1184
-1392
-80
0
0
0
128
1184
896
592
48
1808
1392
752
128
-528
-1104
-1648
-224
-1104
-1248
-1472
-96
0
0
0
128
1120
896
624
64
1792
1408
768
144
-496
-1072
-1616
-208
-1088
-1264
-1536
-96
0
0
0
112
1056
864
656
96
1808
1440
800
160
-480
-1072
-1616
-192
-1072
-1296
-1632
-112
0
0
0
96
992
816
656
80
1792
1440
800
192
-448
-1024
-1600
-176
-1072
-1344
-1712
-144
0
0
0
96
944
784
688
96
1808
1456
816
208
-416
-992
-1584
-144
-1024
-1360
-1808
-160
0
0
0
80
880
768
720
128
1824
1472
848
224
-400
-976
-1536
-64
-928
-1328
-1856
-176
0
0
0
80
832
736
768
144
1824
1488
880
256
-368
-944
-1504
-2048
-880
-1312
-1920
-208
0
0
0
64
768
688
800
176
1856
1504
896
272
-336
-928
-1488
-2048
-864
-1328
-1984
-224
-16
0
0
64
720
656
832
192
1856
1520
912
288
-320
-896
-1472
-2048
-864
-1376
-32
-256
0
0
0
64
672
592
864
224
1872
1552
928
320
-304
-880
-1456
-2000
-800
-1360
-96
-288
0
0
0
48
624
544
896
240
1888
1552
960
320
-288
-864
-1440
-1984
-768
-1344
-160
-320
0
0
0
48
592
496
928
256
1888
1568
960
352
-256
-832
-1408
-1952
-720
-1328
-208
-352
-16
0
0
48
544
416
960
304
1920
1600
1008
368
-240
-816
-1408
-1936
-704
-1328
-288
-384
-16
0
0
48
512
336
944
288
1904
1600
1024
400
-208
-784
-1376
-1904
-672
-1344
-368
-432
-16
0
0
32
464
272
960
304
1920
1616
1056
416
-192
-768
-1344
-1888
-640
-1344
-448
-480
-16
0
0
32
432
208
1008
352
1952
1648
1072
448
-176
-768
-1344
-1872
-624
-1344
-512
-528
-16
0
0
32
400
144
1024
368
1952
1648
1088
448
-160
-752
-1328
-1856
-576
-1328
-560
-576
-16
0
0
32
368
64
1024
400
1968
1680
1120
480
-144
-736
-1312
-1856
-576
-1328
-624
-624
-16
0
0
32
336
2032
1008
384
1968
1680
1136
496
-128
-720
-1312
-1888
-608
-1376
-752
-688
-16
0
0
16
320
1952
1024
416
1984
1696
1168
512
-96
-704
-1280
-1840
-544
-1344
-800
-752
-16
0
0
16
288
1888
1040
448
2000
1728
1200
544
-96
-704
-1280
-1808
-496
-1312
-848
-816
-16
0
0
16
272
1808
1040
464
2016
1728
1216
560
-48
-656
-1232
-1792
-480
-1312
-896
-864
-16
0
0
16
240
1728
1040
496
2032
1744
1248
592
-32
-656
-1216
-1776
-448
-1280
-960
-944
-32
0
0
16
224
1664
1040
512
0
1760
1264
608
0
-624
-1200
-1744
-416
-1264
-1024
-1008
-32
0
0
16
208
1584
1024
528
16
1760
1296
640
16
-608
-1168
-1728
-384
-1248
-1040
-1072
-32
0
0
16
192
1504
1024
560
48
1792
1328
656
32
-592
-1168
-1728
-368
-1232
-1120
-1168
-48
0
0
16
176
1440
1024
576
48
1792
1344
688
64
-576
-1136
-1664
-288
-1152
-1104
-1200
-48
0
0
16
160
1376
1024
640
96
1808
1376
720
80
-544
-1104
-1632
-224
-1120
-1136
-1280
-64
0
0
0
144
1296
1024
656
112
1824
1392
736
112
-512
-1072
-1616
-208
-1088
-1184
-1376
-80
0
0
0
144
1232
992
672
112
1840
1408
768
144
-496
-1056
-1616
-208
-1088
-1200
-1424
-80
0
0
0
128
1168
960
688
144
1856
1440
800
176
-464
-1040
-1584
-160
-1056
-1248
-1504
-96
0
0
0
112
1104
944
736
176
1888
1472
816
176
-464
-1040
-1584
-144
-1040
-1264
-1584
-112
-16
0
0
112
1040
960
800
208
1904
1488
832
192
-448
-1008
-1568
-112
-992
-1264
-1648
-128
0
0
0
96
976
896
800
208
1904
1504
848
208
-416
-992
-1552
-96
-976
-1312
-1760
-144
0
0
0
96
912
848
816
192
1888
1520
864
224
-416
-976
-1552
-96
-960
-1328
-1824
-176
0
0
0
80
864
784
800
192
1888
1520
880
240
-384
-960
-1552
-80
-944
-1360
-1904
-192
0
0
0
80
800
736
832
224
1888
1536
912
272
-368
-944
-1504
-16
-864
-1312
-1952
-208
0
0
0
64
752
688
864
240
1920
1568
944
288
-352
-928
-1504
-16
-848
-1328
-2016
-240
0
0
0
64
704
608
848
224
1904
1568
960
320
-304
-880
-1472
-2016
-816
-1344
-80
-272
-16
0
0
64
656
560
896
256
1904
1600
992
352
-272
-864
-1456
-2016
-816
-1376
-160
-320
-16
0
0
48
608
512
928
288
1936
1632
1024
368
-256
-848
-1440
-2000
-784
-1376
-240
-352
-16
0
0
48
560
448
944
304
1936
1632
1024
384
-240
-832
-1424
-1968
-752
-1360
-272
-384
-16
0
0
48
528
368
944
304
1936
1648
1056
416
-208
-800
-1392
-1936
-720
-1360
-352
-416
-16
0
0
32
480
304
960
320
1920
1632
1072
432
-176
-784
-1376
-1904
-672
-1376
-464
-464
-16
0
0
32
448
224
976
336
1936
1648
1088
448
-160
-752
-1344
-1888
-656
-1360
-496
-512
-16
0
0
32
416
144
960
336
1952
1664
1104
480
-144
-752
-1344
-1888
-624
-1360
-576
-560
-16
0
0
32
384
80
1008
368
1952
1664
1120
480
-128
-720
-1312
-1856
-592
-1328
-608
-608
-16
0
0
32
352
0
992
384
1968
1680
1152
496
-112
-720
-1296
-1856
-576
-1360
-704
-672
-16
0
0
16
320
1984
1008
400
1968
1680
1168
512
-96
-688
-1280
-1856
-576
-1376
-800
-736
-16
0
0
16
304
1904
992
400
1968
1680
1168
528
-96
-688
-1280
-1856
-560
-1360
-832
-784
-16
0
0
16
272
1808
976
400
1968
1696
1184
544
-64
-672
-1248
-1840
-528
-1360
-912
-864
-16
0
0
16
256
1744
976
400
1968
1680
1184
560
-64
-656
-1232
-1792
-480
-1296
-928
-912
-16
0
0
16
240
1664
992
448
2000
1696
1216
576
-32
-640
-1200
-1760
-432
-1280
-976
-976
-32
0
0
16
208
1600
992
480
2016
1712
1232
592
-32
-624
-1200
-1744
-400
-1248
-1040
-1056
-32
0
0
16
192
1520
960
464
2000
1712
1248
608
0
-624
-1184
-1744
-384
-1232
-1056
-1104
-48
0
0
16
176
1440
944
480
2016
1728
1264
640
32
-576
-1136
-1696
-320
-1184
-1088
-1168
-48
0
0
16
176
1376
960
528
0
1728
1280
640
48
-560
-1104
-1632
-240
-1104
-1088
-1232
-48
0
0
0
160
1312
976
592
64
1792
1360
704
80
-544
-1104
-1600
-176
-1040
-1072
-1280
-64
0
0
0
144
1248
976
640
80
1808
1376
720
112
-512
-1072
-1600
-160
-1040
-1168
-1376
-80
0
0
0
128
1184
944
640
96
1808
1392
752
128
-480
-1040
-1568
-144
-1024
-1184
-1456
-96
0
0
0
112
1120
896
656
96
1824
1424
784
160
-464
-1024
-1552
-96
-960
-1184
-1520
-96
0
0
0
112
1056
880
672
112
1824
1424
784
176
-448
-992
-1520
-64
-928
-1168
-1552
-112
0
0
0
96
992
832
704
144
1856
1472
832
208
-416
-976
-1504
-32
-896
-1200
-1648
-128
0
0
0
96
928
800
720
144
1840
1472
832
224
-384
-944
-1472
-2032
-848
-1216
-1728
-144
0
0
0
80
880
752
736
160
1840
1488
880
256
-368
-928
-1488
-2048
-848
-1232
-1792
-176
0
0
0
80
816
704
752
160
1856
1504
880
272
-352
-912
-1488
-16
-864
-1280
-1888
-192
0
0
0
64
768
656
768
176
1856
1504
880
272
-336
-896
-1456
-2016
-800
-1248
-1920
-224
0
0
0
64
720
592
784
176
1856
1536
912
304
-304
-864
-1408
-1952
-720
-1216
-1984
-240
0
0
0
64
672
544
816
208
1872
1552
960
336
-272
-848
-1392
-1920
-688
-1232
-32
-272
0
0
0
48
624
496
848
224
1872
1568
976
352
-272
-832
-1408
-1936
-688
-1232
-64
-304
0
0
0
48
576
448
880
240
1888
1584
976
352
-240
-816
-1392
-1936
-688
-1264
-160
-336
0
0
0
48
544
368
880
240
1888
1584
992
368
-240
-800
-1360
-1904
-640
-1248
-208
-368
-16
0
0
48
496
288
880
272
1904
1616
1040
400
-208
-768
-1328
-1856
-592
-1216
-256
-400
-16
0
0
32
464
240
912
288
1904
1616
1040
416
-176
-752
-1296
-1824
-560
-1232
-352
-448
-16
0
0
32
432
176
928
320
1920
1632
1072
432
-176
-752
-1312
-1840
-544
-1232
-400
-496
-16
0
0
32
400
96
912
304
1920
1664
1120
480
-144
-736
-1296
-1840
-544
-1248
-480
-528
-16
0
0
32
368
16
912
288
1904
1632
1104
480
-128
-704
-1280
-1808
-528
-1248
-544
-592
-16
0
0
32
336
2016
960
352
1936
1648
1136
496
-112
-688
-1248
-1760
-464
-1216
-608
-640
-16
0
0
16
304
1936
960
368
1952
1680
1152
512
-96
-688
-1264
-1760
-448
-1232
-688
-688
-16
0
0
16
288
1872
960
368
1936
1664
1168
544
-64
-640
-1216
-1744
-416
-1216
-720
-752
-16
0
0
16
272
1792
960
384
1952
1680
1184
560
-32
-640
-1200
-1744
-416
-1232
-832
-832
-16
0
0
16
240
1712
944
400
1968
1680
1200
560
-16
-624
-1184
-1712
-384
-1200
-848
-880
-16
0
0
16
224
1648
944
416
1984
1712
1216
592
-16
-608
-1168
-1680
-336
-1168
-864
-928
-32
0
0
16
208
1584
960
432
1984
1696
1216
592
16
-592
-1152
-1664
-304
-1136
-944
-1008
-32
0
0
16
192
1504
960
464
2000
1712
1248
608
16
-576
-1136
-1664
-288
-1136
-976
-1072
-32
0
0
16
176
1440
960
480
2000
1712
1264
624
48
-560
-1120
-1680
-304
-1168
-1056
-1152
-48
0
0
0
160
1360
944
496
2000
1712
1264
640
48
-544
-1104
-1648
-256
-1104
-1072
-1216
-48
0
0
0
144
1296
896
496
2032
1744
1296
656
64
-544
-1120
-1664
-256
-1120
-1104
-1280
-64
0
0
0
128
1232
896
544
0
1744
1312
672
80
-528
-1072
-1600
-176
-1040
-1136
-1360
-80
0
0
0
128
1168
880
560
16
1728
1328
704
96
-496
-1040
-1584
-128
-1008
-1136
-1424
-80
0
0
0
112
1104
864
608
32
1760
1360
720
112
-480
-1024
-1584
-128
-992
-1200
-1504
-96
0
0
0
112
1040
832
640
64
1792
1392
736
128
-480
-1024
-1568
-96
-944
-1168
-1552
-112
0
0
0
96
976
784
640
80
1792
1408
784
160
-464
-1008
-1568
-112
-960
-1216
-1632
-128
0
0
0
96
912
752
672
80
1792
1424
800
176
-416
-976
-1520
-16
-864
-1216
-1712
-144
0
0
0
80
864
736
720
128
1808
1440
832
208
-416
-960
-1504
-16
-848
-1232
-1776
-160
0
0
0
80
816
704
768
160
1824
1488
848
224
-384
-944
-1520
-16
-848
-1264
-1872
-192
0
0
0
64
752
640
736
128
1824
1488
864
240
-368
-928
-1504
-2048
-800
-1232
-1904
-208
0
0
0
64
704
576
752
144
1824
1488
880
256
-352
-896
-1472
-2032
-800
-1264
-1984
-240
0
0
0
64
656
528
784
176
1840
1504
912
288
-320
-880
-1440
-1984
-752
-1280
-48
-272
0
0
0
48
608
464
800
192
1856
1536
928
304
-320
-864
-1424
-1952
-704
-1264
-96
-304
0
0
0
48
576
416
816
208
1872
1568
960
336
-272
-848
-1408
-1952
-688
-1280
-176
-336
-16
0
0
48
528
368
848
224
1872
1552
976
352
-256
-816
-1376
-1904
-656
-1280
-224
-368
-16
0
0
32
496
288
848
240
1888
1584
1008
368
-240
-816
-1376
-1888
-624
-1280
-304
-400
-16
0
0
32
464
224
864
240
1888
1632
1056
400
-208
-800
-1376
-1888
-640
-1344
-464
-480
-16
0
0
32
432
176
928
288
1904
1616
1056
416
-208
-784
-1360
-1888
-624
-1328
-496
-512
-16
0
0
32
400
112
928
288
1904
1616
1072
432
-160
-752
-1328
-1856
-576
-1328
-576
-560
-16
0
0
32
368
32
912
288
1904
1616
1088
448
-160
-752
-1312
-1856
-576
-1312
-608
-608
-16
0
0
16
336
2016
928
320
1936
1664
1120
480
-128
-720
-1312
-1856
-544
-1296
-640
-640
-16
0
0
16
304
1936
912
304
1904
1648
1120
496
-112
-704
-1280
-1824
-544
-1312
-736
-720
-16
0
0
16
288
1856
912
320
1904
1648
1136
512
-96
-688
-1248
-1776
-464
-1232
-736
-752
-16
0
0
16
256
1792
928
336
1920
1664
1168
544
-48
-656
-1232
-1776
-432
-1248
-816
-816
-16
0
0
16
240
1728
976
400
1952
1680
1184
544
-48
-656
-1216
-1744
-416
-1216
-816
-864
-16
0
0
16
224
1648
928
384
1952
1696
1200
576
-32
-640
-1216
-1760
-416
-1200
-848
-928
-32
0
0
16
208
1568
912
384
1936
1680
1200
576
0
-592
-1168
-1712
-368
-1200
-960
-1008
-32
0
0
16
192
1504
928
432
1968
1680
1216
592
16
-592
-1152
-1696
-352
-1184
-992
-1072
-32
0
0
16
176
1440
912
432
1968
1696
1248
608
16
-576
-1152
-1712
-352
-1184
-1072
-1152
-48
0
0
0
160
1376
928
480
1984
1696
1248
624
32
-576
-1120
-1648
-240
-1072
-1008
-1184
-48
0
0
0
144
1296
880
496
2016
1712
1296
656
64
-528
-1088
-1616
-192
-1056
-1056
-1264
-64
0
0
0
128
1232
912
544
0
1728
1296
672
80
-496
-1056
-1584
-176
-1056
-1136
-1360
-80
0
0
0
128
1168
896
576
16
1744
1328
688
96
-512
-1056
-1584
-144
-992
-1120
-1408
-80
0
0
0
112
1104
848
576
32
1760
1376
752
144
-464
-1008
-1552
-96
-944
-1136
-1472
-96
0
0
0
112
1056
864
672
80
1776
1376
752
160
-448
-976
-1520
-64
-928
-1168
-1552
-112
0
0
0
96
992
832
688
112
1808
1424
784
176
-432
-976
-1520
-48
-912
-1200
-1632
-128
0
0
0
80
928
784
688
96
1808
1440
816
192
-400
-944
-1488
-16
-880
-1232
-1712
-144
0
0
0
80
880
768
752
160
1824
1456
832
208
-400
-928
-1456
-2032
-832
-1216
-1760
-160
0
0
0
80
816
704
752
160
1856
1504
864
240
-368
-912
-1472
-2048
-832
-1264
-1856
-192
0
0
0
64
768
672
800
176
1856
1504
896
272
-352
-896
-1456
-2000
-800
-1248
-1920
-208
0
0
0
64
720
608
800
208
1872
1536
944
288
-336
-896
-1440
-1968
-768
-1264
-1984
-240
0
0
0
64
672
576
832
224
1872
1536
944
320
-288
-864
-1424
-1968
-768
-1312
-48
-272
0
0
0
48
624
512
880
256
1904
1568
960
320
-304
-864
-1408
-1936
-720
-1280
-80
-288
0
0
0
48
576
432
832
224
1888
1584
992
368
-256
-832
-1392
-1920
-688
-1296
-192
-336
-16
0
0
48
544
400
880
256
1888
1584
992
368
-256
-816
-1376
-1904
-672
-1312
-240
-368
-16
0
0
32
496
320
896
272
1904
1600
1024
384
-240
-816
-1392
-1920
-672
-1328
-320
-400
-16
0
0
32
464
240
864
256
1904
1632
1056
400
-224
-800
-1376
-1920
-672
-1360
-432
-464
-16
0
0
32
432
176
880
256
1888
1616
1056
416
-208
-784
-1360
-1920
-656
-1360
-496
-512
-16
0
0
32
400
128
928
288
1904
1632
1072
432
-192
-784
-1360
-1904
-640
-1376
-576
-560
-16
0
0
32
368
64
944
304
1920
1632
1088
448
-160
-768
-1344
-1888
-592
-1344
-624
-608
-16
0
0
16
336
2032
928
320
1936
1664
1120
464
-144
-752
-1328
-1856
-544
-1328
-688
-656
-16
0
0
16
320
1968
944
336
1936
1664
1120
496
-112
-704
-1280
-1792
-496
-1296
-768
-736
-16
0
0
16
288
1904
976
384
1952
1680
1168
528
-80
-688
-1248
-1760
-448
-1264
-784
-768
-16
0
0
16
272
1824
1008
416
1984
1712
1200
560
-32
-640
-1232
-1776
-464
-1296
-864
-848
-16
0
0
16
240
1744
992
416
1984
1712
1216
576
-32
-624
-1200
-1728
-400
-1232
-880
-896
-16
0
0
16
224
1680
992
448
2016
1744
1248
608
0
-608
-1184
-1728
-384
-1216
-928
-960
-32
0
0
16
208
1600
1008
480
2016
1728
1264
624
32
-560
-1136
-1664
-320
-1184
-992
-1040
-32
0
0
16
192
1536
1008
512
2032
1744
1280
640
48
-560
-1120
-1664
-304
-1168
-1008
-1088
-32
0
0
16
176
1456
1008
560
32
1792
1328
672
64
-544
-1120
-1664
-288
-1152
-1056
-1152
-48
0
0
0
160
1392
992
560
32
1792
1344
688
96
-528
-1088
-1648
-256
-1120
-1072
-1216
-48
0
0
0
144
1328
976
592
32
1776
1344
720
96
-512
-1072
-1616
-224
-1088
-1104
-1280
-64
0
0
0
144
1248
976
624
64
1792
1360
720
112
-496
-1040
-1584
-176
-1040
-1136
-1360
-80
0
0
0
128
1184
944
640
80
1792
1392
752
128
-480
-1024
-1552
-112
-976
-1120
-1408
-80
0
0
0
112
1120
912
672
96
1824
1424
768
160
-448
-1008
-1552
-112
-976
-1152
-1472
-96
0
0
0
112
1056
864
672
96
1808
1424
800
176
-432
-976
-1536
-80
-944
-1184
-1568
-112
0
0
0
96
992
848
720
128
1824
1440
816
192
-432
-976
-1536
-80
-928
-1184
-1632
-128
0
0
0
96
928
800
736
128
1824
1456
832
208
-384
-960
-1520
-48
-912
-1248
-1728
-144
0
0
0
80
880
752
752
160
1840
1472
848
224
-384
-944
-1504
-16
-864
-1216
-1776
-160
0
0
0
80
816
704
768
160
1840
1504
880
256
-352
-912
-1472
-2048
-848
-1248
-1856
-192
0
0
0
64
768
672
800
176
1856
1504
896
256
-368
-912
-1488
-2048
-832
-1264
-1920
-208
0
0
0
64
720
608
816
208
1872
1536
912
272
-336
-896
-1456
-1984
-768
-1248
-1984
-240
0
0
0
64
672
544
800
192
1872
1536
928
304
-304
-880
-1440
-1984
-752
-1280
-48
-272
-16
0
0
48
624
496
832
208
1872
1552
960
320
-288
-848
-1424
-1952
-736
-1296
-128
-304
-16
0
0
48
576
432
848
240
1888
1584
992
336
-272
-848
-1408
-1936
-704
-1328
-240
-352
-16
0
0
48
544
384
896
288
1936
1632
1056
416
-224
-800
-1376
-1920
-688
-1328
-304
-384
-16
0
0
32
496
304
896
272
1936
1648
1072
432
-192
-768
-1360
-1888
-656
-1344
-368
-432
-16
0
0
32
464
256
944
320
1952
1664
1088
464
-160
-752
-1328
-1856
-624
-1376
-496
-496
-16
0
0
32
432
208
976
352
1968
1680
1120
480
-144
-736
-1312
-1840
-592
-1328
-512
-528
-16
0
0
32
400
128
960
352
1984
1712
1152
512
-112
-704
-1312
-1840
-576
-1328
-576
-576
-16
0
0
32
368
64
992
368
1984
1712
1168
528
-96
-688
-1280
-1840
-576
-1328
-592
-608
-16
0
0
16
336
2032
976
368
1968
1696
1168
544
-80
-672
-1264
-1824
-560
-1360
-720
-672
-16
0
0
16
320
1968
1024
400
1984
1712
1168
528
-80
-672
-1264
-1808
-512
-1328
-784
-736
-16
0
0
16
288
1904
1008
400
1968
1696
1184
544
-48
-656
-1232
-1776
-464
-1264
-768
-768
-16
0
0
16
272
1824
1040
432
2000
1712
1184
544
-48
-640
-1232
-1776
-480
-1296
-864
-832
-16
0
0
16
240
1744
1008
432
1984
1712
1200
576
-32
-640
-1184
-1728
-384
-1232
-864
-896
-16
0
0
16
224
1664
1008
448
2016
1728
1232
592
-16
-624
-1184
-1728
-384
-1232
-944
-976
-32
0
0
16
208
1600
1024
480
2016
1728
1248
608
0
-608
-1168
-1712
-352
-1216
-1008
-1040
-32
0
0
16
192
1520
1024
512
2032
1728
1264
624
16
-608
-1152
-1696
-320
-1168
-1008
-1088
-32
0
0
16
176
1440
992
528
0
1744
1296
656
48
-560
-1120
-1648
-256
-1104
-1040
-1168
-48
0
0
0
160
1376
1008
576
32
1760
1312
672
64
-560
-1104
-1648
-240
-1072
-1040
-1216
-48
0
0
0
144
1296
976
592
48
1776
1360
704
96
-528
-1072
-1632
-224
-1072
-1104
-1296
-64
0
0
0
144
1232
944
624
64
1792
1360
720
112
-496
-1056
-1616
-192
-1056
-1152
-1376
-80
0
0
0
128
1168
928
640
64
1776
1376
752
128
-496
-1040
-1600
-176
-1024
-1152
-1440
-80
0
0
0
112
1104
896
672
96
1808
1408
752
144
-480
-1024
-1584
-144
-992
-1184
-1504
-96
0
0
0
112
1040
848
688
112
1824
1440
784
160
-448
-1008
-1552
-80
-928
-1168
-1568
-112
0
0
0
96
976
816
704
128
1840
1472
832
208
-416
-976
-1536
-64
-928
-1216
-1648
-128
0
0
0
96
912
800
736
144
1824
1472
832
208
-400
-976
-1536
-64
-896
-1248
-1728
-144
0
0
0
80
864
752
768
160
1840
1488
864
224
-384
-944
-1504
-32
-880
-1248
-1808
-176
0
0
0
80
800
688
768
176
1872
1520
896
256
-368
-928
-1504
-32
-880
-1296
-1904
-208
0
0
0
64
752
640
784
176
1856
1520
912
272
-336
-912
-1472
-2048
-832
-1280
-1952
-224
0
0
0
64
704
592
816
224
1888
1552
928
304
-320
-896
-1456
-2000
-800
-1296
-2048
-256
0
0
0
64
656
544
832
224
1888
1568
960
320
-304
-880
-1456
-2016
-800
-1344
-96
-288
0
0
0
48
608
480
832
224
1872
1568
960
336
-288
-864
-1440
-1984
-768
-1328
-144
-320
-16
0
0
48
576
416
864
224
1872
1584
992
352
-272
-848
-1424
-1968
-752
-1360
-240
-352
-16
0
0
48
528
368
880
256
1888
1584
1008
368
-240
-832
-1392
-1920
-688
-1312
-288
-384
-16
0
0
32
496
304
912
272
1904
1600
1024
384
-224
-816
-1376
-1888
-640
-1296
-336
-432
-16
0
0
32
448
240
928
288
1904
1600
1040
416
-192
-768
-1344
-1872
-640
-1328
-448
-480
-16
0
0
32
416
176
960
304
1904
1600
1056
432
-176
-752
-1328
-1840
-592
-1328
-512
-528
-16
0
0
32
384
96
960
336
1936
1648
1088
448
-144
-736
-1312
-1840
-576
-1312
-592
-576
-16
0
0
32
368
32
976
352
1936
1648
1104
464
-128
-720
-1312
-1856
-592
-1344
-640
-624
-16
0
0
16
336
2016
992
368
1952
1648
1120
480
-128
-720
-1296
-1824
-560
-1344
-736
-688
-16
0
0
16
304
1936
1008
384
1952
1664
1136
496
-112
-704
-1296
-1824
-512
-1328
-800
-752
-16
0
0
16
288
1872
1040
416
1968
1664
1152
512
-96
-688
-1264
-1792
-464
-1280
-816
-800
-16
0
0
16
256
1792
1024
448
2000
1712
1200
528
-64
-672
-1232
-1744
-432
-1264
-896
-864
-16
0
0
16
240
1728
1024
464
2000
1696
1200
544
-64
-656
-1216
-1744
-400
-1232
-896
-928
-32
0
0
16
224
1632
992
464
2016
1712
1232
592
-32
-640
-1200
-1744
-384
-1232
-976
-992
-32
0
0
16
208
1568
1024
528
0
1744
1264
608
0
-624
-1184
-1728
-384
-1248
-1088
-1088
-32
0
0
16
192
1504
1024
560
16
1760
1280
624
0
-624
-1168
-1696
-304
-1168
-1056
-1136
-48
0
0
16
176
1424
1040
592
64
1792
1328
656
32
-592
-1152
-1696
-288
-1168
-1120
-1216
-48
0
0
0
160
1360
1008
608
64
1792
1344
688
48
-576
-1136
-1664
-256
-1120
-1120
-1264
-64
0
0
0
144
1280
976
624
80
1808
1376
720
80
-560
-1120
-1680
-272
-1120
-1152
-1328
-64
0
0
0
128
1216
976
656
96
1824
1392
720
96
-528
-1088
-1648
-224
-1088
-1216
-1424
-80
0
0
0
128
1152
944
672
112
1824
1424
768
128
-512
-1072
-1632
-192
-1056
-1216
-1488
-96
0
0
0
112
1088
896
688
112
1840
1440
784
160
-480
-1056
-1600
-160
-1008
-1232
-1568
-112
0
0
0
96
1024
864
720
160
1856
1472
816
176
-464
-1024
-1584
-128
-992
-1248
-1632
-128
0
0
0
96
960
816
736
176
1872
1488
848
208
-432
-1008
-1568
-112
-992
-1312
-1760
-160
0
0
0
80
896
816
784
176
1872
1520
864
224
-416
-1008
-1600
-144
-1008
-1376
-1856
-176
0
0
0
80
848
784
848
208
1904
1536
896
240
-400
-992
-1568
-80
-944
-1344
-1920
-192
0
0
0
80
784
736
864
224
1920
1584
928
288
-352
-944
-1536
-80
-960
-1440
-2048
-224
0
0
0
64
736
704
912
272
1936
1584
944
288
-352
-944
-1536
-48
-928
-1424
-64
-256
0
0
0
64
688
640
912
272
1920
1600
992
336
-304
-928
-1536
-64
-928
-1440
-128
-288
-16
0
0
48
640
576
944
288
1936
1616
1008
368
-256
-880
-1488
-32
-928
-1536
-320
-352
-16
0
0
48
592
544
1024
352
1968
1648
1008
368
-272
-880
-1488
-2048
-864
-1504
-368
-384
-16
0
0
48
560
480
1040
352
1968
1664
1056
384
-256
-864
-1472
-2032
-832
-1488
-416
-416
-16
0
0
48
512
432
1072
384
1984
1680
1072
416
-224
-832
-1456
-2016
-832
-1520
-512
-464
-16
0
0
32
480
352
1088
416
2016
1696
1104
432
-192
-800
-1424
-1984
-784
-1552
-640
-544
-16
0
0
32
448
288
1120
448
2016
1712
1120
464
-176
-800
-1424
-1968
-768
-1536
-704
-592
-16
0
0
32
416
208
1152
464
2032
1712
1152
480
-160
-784
-1392
-1952
-720
-1504
-736
-640
-16
0
0
32
384
144
1200
528
16
1760
1184
496
-128
-752
-1392
-1984
-736
-1552
-848
-704
-16
0
0
32
352
48
1184
528
16
1744
1184
512
-112
-736
-1344
-1936
-704
-1552
-928
-784
-16
0
0
16
320
2016
1184
560
48
1792
1232
544
-112
-736
-1360
-1936
-688
-1552
-1008
-848
-16
0
0
16
288
1936
1200
576
48
1776
1248
560
-80
-720
-1344
-1920
-672
-1536
-1056
-912
-16
0
0
16
272
1856
1216
624
80
1824
1280
576
-80
-720
-1328
-1920
-640
-1536
-1136
-992
-32
0
0
16
256
1776
1232
656
112
1840
1296
592
-64
-688
-1296
-1888
-576
-1488
-1184
-1072
-32
0
0
16
224
1696
1216
688
128
1856
1344
640
-32
-672
-1280
-1872
-576
-1488
-1248
-1136
-32
0
0
16
208
1616
1232
736
192
1888
1392
672
0
-656
-1264
-1840
-512
-1440
-1312
-1248
-48
0
0
16
192
1536
1232
768
192
1920
1408
688
16
-656
-1248
-1840
-496
-1392
-1312
-1296
-64
0
0
16
176
1472
1232
816
224
1936
1456
752
64
-608
-1216
-1792
-448
-1376
-1376
-1392
-64
0
0
16
160
1376
1216
864
288
1984
1504
784
80
-608
-1200
-1776
-416
-1328
-1392
-1456
-80
0
0
0
160
1312
1200
896
288
1984
1520
800
128
-560
-1168
-1744
-368
-1280
-1392
-1536
-96
0
0
0
144
1232
1168
928
320
2016
1568
848
144
-544
-1152
-1744
-368
-1280
-1440
-1616
-112
0
0
0
128
1168
1120
928
320
2016
1584
880
176
-512
-1136
-1712
-320
-1248
-1488
-1728
-128
0
0
0
112
1088
1072
960
336
2032
1616
912
208
-480
-1104
-1712
-320
-1232
-1504
-1792
-144
0
0
0
112
1024
1008
944
320
2032
1648
944
256
-432
-1072
-1696
-304
-1232
-1568
-1904
-176
0
0
0
96
960
960
976
336
2016
1648
960
288
-416
-1040
-1680
-288
-1216
-1600
-2000
-208
0
0
0
96
896
928
1008
368
2032
1664
992
304
-400
-1040
-1648
-224
-1136
-1584
-48
-240
0
0
0
80
832
864
1024
384
2032
1680
1008
336
-352
-1008
-1632
-192
-1104
-1600
-144
-272
0
0
0
80
784
800
1040
368
2016
1680
1024
368
-320
-960
-1584
-144
-1072
-1600
-192
-288
-16
0
0
64
736
752
1088
400
2032
1696
1040
384
-288
-928
-1552
-112
-1040
-1632
-320
-336
-16
0
0
64
672
688
1104
416
2032
1696
1056
384
-272
-912
-1552
-112
-1008
-1632
-400
-384
-16
0
0
64
624
608
1120
432
0
1728
1088
416
-240
-880
-1536
-80
-960
-1616
-464
-416
-16
0
0
48
576
528
1152
448
2032
1696
1088
416
-224
-848
-1504
-48
-944
-1632
-576
-480
-16
0
0
48
544
464
1184
480
16
1728
1120
432
-208
-848
-1472
-16
-880
-1616
-656
-544
-16
0
0
48
496
384
1200
496
16
1744
1136
448
-208
-832
-1456
-2048
-832
-1600
-704
-576
-16
0
0
48
464
320
1232
528
16
1744
1152
464
-176
-800
-1440
-2032
-848
-1616
-800
-640
-16
0
0
32
432
240
1264
560
48
1760
1168
480
-160
-800
-1424
-2016
-800
-1632
-896
-720
-16
0
0
32
400
144
1280
592
64
1792
1200
512
-144
-768
-1392
-1968
-736
-1568
-944
-784
-16
0
0
32
368
64
1312
640
112
1824
1248
544
-128
-768
-1376
-1936
-704
-1536
-976
-832
-16
0
0
32
336
2032
1328
688
144
1856
1296
576
-80
-736
-1344
-1920
-672
-1536
-1072
-912
-16
0
0
32
304
1952
1344
736
160
1872
1312
608
-64
-720
-1328
-1904
-624
-1504
-1104
-976
-32
0
0
16
288
1856
1328
752
192
1904
1360
640
-32
-704
-1312
-1904
-608
-1504
-1168
-1040
-32
0
0
16
256
1776
1328
800
224
1920
1392
672
0
-688
-1312
-1888
-592
-1488
-1248
-1136
-32
0
0
16
240
1680
1328
816
224
1920
1408
704
32
-656
-1264
-1872
-544
-1440
-1248
-1200
-48
0
0
16
224
1600
1296
848
256
1968
1456
736
64
-608
-1232
-1840
-528
-1456
-1360
-1296
-64
0
0
16
208
1520
1296
880
288
1984
1488
752
64
-624
-1232
-1840
-496
-1392
-1344
-1344
-64
0
0
16
192
1424
1248
880
288
1984
1520
800
112
-592
-1200
-1824
-448
-1360
-1360
-1424
-80
0
0
16
176
1344
1232
912
320
2016
1536
816
128
-560
-1184
-1808
-448
-1360
-1456
-1552
-96
0
0
16
160
1264
1168
912
320
2000
1552
832
144
-560
-1168
-1776
-384
-1296
-1424
-1600
-112
0
0
0
144
1184
1120
928
320
2016
1584
864
176
-512
-1136
-1760
-368
-1280
-1472
-1696
-128
0
0
0
128
1120
1088
960
336
2000
1584
880
208
-480
-1104
-1712
-304
-1216
-1472
-1760
-144
0
0
0
128
1056
1040
992
368
2032
1632
928
240
-448
-1088
-1712
-288
-1216
-1536
-1872
-176
0
0
0
112
976
976
992
352
2016
1648
944
256
-416
-1040
-1664
-256
-1184
-1584
-2000
-208
0
0
0
96
912
928
1040
400
0
1680
992
288
-400
-1040
-1664
-256
-1184
-1616
-48
-224
0
0
0
96
864
880
1056
400
0
1696
1008
304
-384
-1024
-1664
-240
-1152
-1648
-160
-272
0
0
0
80
800
816
1072
416
0
1696
1008
320
-352
-976
-1632
-208
-1136
-1664
-240
-304
0
0
0
80
752
768
1136
480
32
1712
1040
336
-336
-976
-1616
-176
-1088
-1680
-352
-352
-16
0
0
80
688
688
1120
448
32
1728
1072
368
-304
-944
-1584
-144
-1056
-1696
-464
-400
-16
0
0
64
640
640
1184
496
48
1744
1088
384
-304
-928
-1568
-128
-1024
-1664
-512
-432
-16
0
0
64
592
544
1168
480
32
1760
1104
400
-256
-896
-1536
-80
-976
-1664
-592
-480
-16
0
0
48
560
480
1200
496
32
1744
1120
432
-240
-896
-1520
-64
-944
-1648
-656
-528
-16
0
0
48
512
400
1216
512
48
1760
1136
448
-224
-864
-1488
-16
-880
-1632
-736
-592
-16
0
0
48
480
320
1248
544
48
1792
1168
480
-176
-832
-1456
-2048
-848
-1632
-832
-656
-16
0
0
48
432
240
1248
560
48
1776
1184
496
-160
-816
-1440
-2016
-816
-1632
-896
-720
-16
0
0
32
400
160
1280
608
96
1824
1232
528
-144
-784
-1424
-2016
-816
-1664
-1008
-800
-16
0
0
32
368
64
1296
624
96
1824
1248
544
-112
-784
-1408
-1984
-752
-1616
-1024
-848
-16
0
0
32
336
2032
1312
672
128
1856
1296
576
-80
-752
-1376
-1952
-704
-1584
-1088
-928
-16
0
0
32
320
1968
1376
720
144
1856
1296
592
-64
-736
-1360
-1936
-672
-1552
-1168
-1008
-32
0
0
32
288
1856
1328
720
144
1872
1344
624
-32
-704
-1344
-1936
-656
-1552
-1200
-1072
-32
0
0
16
272
1760
1312
736
160
1872
1344
640
-16
-688
-1312
-1936
-656
-1568
-1296
-1152
-48
0
0
16
240
1680
1312
768
192
1888
1376
656
-16
-688
-1312
-1920
-608
-1504
-1296
-1216
-48
0
0
16
224
1600
1296
816
224
1920
1424
704
32
-656
-1280
-1904
-576
-1488
-1360
-1312
-64
0
0
16
208
1520
1280
848
224
1936
1440
720
48
-640
-1264
-1872
-544
-1440
-1424
-1408
-64
0
0
16
192
1424
1248
864
240
1936
1456
752
64
-624
-1232
-1856
-496
-1408
-1424
-1472
-80
0
0
16
176
1344
1200
896
272
1968
1504
784
96
-592
-1216
-1856
-496
-1408
-1488
-1584
-96
0
0
16
160
1280
1184
928
304
1984
1520
816
128
-576
-1200
-1824
-448
-1344
-1472
-1648
-112
0
0
16
144
1200
1152
960
336
2000
1568
864
160
-544
-1168
-1776
-368
-1280
-1488
-1712
-128
0
0
16
144
1120
1120
1008
368
2016
1584
880
192
-496
-1120
-1728
-320
-1248
-1536
-1840
-160
0
0
0
128
1056
1072
1040
400
0
1648
928
240
-464
-1104
-1728
-320
-1232
-1536
-1904
-176
0
0
0
112
992
1008
1040
384
0
1648
960
272
-416
-1056
-1680
-272
-1200
-1584
-2016
-208
0
0
0
112
928
976
1088
432
16
1680
976
288
-400
-1040
-1680
-272
-1200
-1616
-48
-224
0
0
0
96
864
880
1088
448
32
1712
1024
320
-368
-1008
-1648
-224
-1152
-1632
-160
-272
0
0
0
96
800
832
1120
464
32
1728
1056
352
-320
-976
-1616
-192
-1120
-1664
-272
-304
0
0
0
80
752
784
1152
480
32
1728
1056
368
-320
-944
-1584
-160
-1072
-1664
-336
-352
-16
0
0
80
688
720
1184
496
64
1760
1088
384
-288
-944
-1584
-160
-1072
-1696
-432
-384
-16
0
0
64
640
624
1184
496
48
1760
1104
400
-272
-912
-1568
-144
-1056
-1696
-512
-432
-16
0
0
64
592
544
1200
528
64
1776
1136
416
-240
-880
-1536
-96
-992
-1696
-624
-496
-16
0
0
64
544
480
1232
544
64
1776
1152
448
-224
-864
-1504
-48
-944
-1696
-736
-560
-16
0
0
48
512
400
1264
560
80
1808
1184
464
-224
-864
-1504
-48
-912
-1664
-768
-608
-16
0
0
48
464
320
1280
576
80
1808
1200
496
-192
-832
-1472
-16
-880
-1680
-864
-672
-16
0
0
48
432
224
1280
608
96
1824
1232
512
-160
-816
-1440
-2048
-864
-1696
-960
-752
-16
0
0
32
400
160
1312
656
144
1856
1264
528
-144
-800
-1424
-2000
-784
-1648
-1024
-816
-16
0
0
32
368
80
1344
688
144
1856
1280
576
-112
-768
-1408
-1984
-736
-1616
-1104
-896
-16
0
0
32
336
2032
1376
736
192
1888
1312
592
-96
-768
-1392
-1968
-704
-1600
-1136
-960
-32
0
0
32
320
1952
1376
752
192
1904
1328
608
-64
-736
-1360
-1952
-688
-1568
-1200
-1024
-32
0
0
32
288
1856
1344
752
192
1904
1360
656
-32
-720
-1328
-1936
-656
-1552
-1232
-1088
-32
0
0
16
272
1760
1344
784
208
1936
1392
672
0
-688
-1312
-1888
-576
-1488
-1264
-1168
-48
0
0
16
240
1680
1344
832
256
1952
1424
704
32
-672
-1296
-1888
-576
-1488
-1344
-1280
-48
0
0
16
224
1584
1328
864
272
1968
1472
752
64
-624
-1248
-1856
-528
-1440
-1360
-1344
-64
0
0
16
208
1504
1296
896
304
2000
1504
784
96
-592
-1216
-1840
-496
-1440
-1440
-1456
-80
0
0
16
192
1424
1280
928
320
2016
1520
800
96
-608
-1232
-1840
-480
-1392
-1424
-1504
-80
0
0
16
176
1344
1232
928
320
2016
1552
832
144
-560
-1200
-1840
-480
-1392
-1472
-1584
-96
0
0
16
160
1264
1200
960
320
2016
1568
848
160
-528
-1168
-1776
-400
-1312
-1504
-1696
-128
0
0
16
144
1184
1168
1008
368
0
1600
880
192
-512
-1136
-1744
-352
-1280
-1520
-1760
-144
0
0
16
144
1104
1104
1008
368
0
1648
928
240
-448
-1088
-1744
-368
-1312
-1600
-1904
-160
0
0
0
128
1040
1072
1056
400
16
1664
960
256
-448
-1088
-1728
-352
-1280
-1632
-1984
-192
0
0
0
112
976
1024
1072
416
32
1696
992
288
-416
-1056
-1728
-336
-1280
-1664
-16
-224
0
0
0
112
912
960
1088
400
16
1680
992
288
-400
-1040
-1728
-352
-1280
-1712
-128
-256
0
0
0
96
848
880
1104
416
0
1680
1008
304
-368
-1024
-1680
-272
-1184
-1680
-208
-288
0
0
0
96
784
832
1136
448
32
1712
1040
336
-336
-976
-1648
-224
-1136
-1696
-320
-320
0
0
0
80
736
768
1184
480
32
1712
1056
352
-320
-960
-1616
-176
-1088
-1664
-384
-368
0
0
0
80
688
688
1184
496
48
1744
1104
384
-288
-928
-1584
-160
-1072
-1712
-496
-416
-16
0
0
64
640
624
1232
528
48
1760
1104
400
-272
-912
-1568
-128
-1008
-1696
-592
-464
-16
0
0
64
592
544
1248
544
64
1776
1136
432
-256
-896
-1552
-96
-976
-1664
-640
-512
-16
0
0
64
544
448
1264
560
80
1792
1168
464
-208
-848
-1504
-64
-944
-1712
-784
-592
-16
0
0
48
496
384
1296
592
96
1808
1184
480
-208
-864
-1504
-64
-928
-1696
-832
-640
-16
0
0
48
464
288
1296
608
112
1840
1232
512
-176
-832
-1488
-32
-880
-1664
-880
-688
-16
0
0
48
432
224
1328
624
96
1824
1232
528
-144
-800
-1440
-16
-864
-1712
-1024
-784
-16
0
0
32
400
128
1344
688
144
1840
1264
544
-128
-784
-1408
-2000
-784
-1648
-1056
-848
-16
0
0
32
368
48
1376
720
176
1888
1312
576
-112
-768
-1408
-2000
-752
-1632
-1120
-912
-16
0
0
32
336
2000
1376
736
192
1888
1328
608
-80
-752
-1376
-1968
-720
-1600
-1168
-992
-32
0
0
32
304
1920
1376
768
208
1920
1360
624
-48
-736
-1360
-1968
-688
-1584
-1200
-1056
-32
0
0
32
288
1824
1360
800
240
1936
1392
656
-16
-704
-1328
-1936
-656
-1568
-1296
-1152
-48
0
0
16
256
1728
1344
800
224
1936
1408
688
0
-672
-1296
-1888
-592
-1504
-1296
-1216
-48
0
0
16
240
1648
1360
880
272
1968
1440
720
32
-656
-1264
-1872
-544
-1472
-1360
-1312
-64
0
0
16
224
1568
1328
896
288
1984
1472
752
64
-624
-1248
-1856
-528
-1456
-1408
-1392
-64
0
0
16
208
1472
1312
928
320
2016
1520
784
80
-624
-1248
-1904
-576
-1488
-1472
-1488
-80
0
0
16
192
1392
1248
896
304
2000
1536
816
112
-576
-1216
-1856
-528
-1472
-1552
-1584
-96
0
0
16
176
1312
1248
960
336
2032
1568
816
128
-592
-1216
-1856
-512
-1440
-1568
-1680
-112
0
0
16
160
1232
1184
976
352
0
1600
864
176
-544
-1168
-1808
-448
-1392
-1600
-1792
-144
0
0
16
144
1152
1168
1008
352
2032
1600
880
192
-528
-1168
-1808
-432
-1360
-1600
-1840
-160
0
0
16
128
1088
1088
1008
368
0
1632
928
224
-496
-1136
-1792
-416
-1344
-1632
-1936
-176
0
0
0
128
1008
1040
1040
368
0
1648
928
256
-448
-1104
-1744
-368
-1280
-1648
-2032
-208
0
0
0
112
944
976
1072
400
16
1664
976
288
-416
-1056
-1712
-320
-1248
-1664
-80
-240
0
0
0
96
880
944
1120
448
48
1712
1008
304
-400
-1040
-1696
-272
-1200
-1696
-192
-272
0
0
0
96
832
880
1136
448
32
1728
1024
336
-352
-1008
-1632
-208
-1104
-1616
-208
-304
0
0
0
80
768
800
1168
480
48
1744
1072
368
-320
-960
-1600
-176
-1088
-1648
-320
-336
0
0
0
80
720
736
1184
512
64
1760
1088
384
-288
-928
-1584
-160
-1088
-1728
-496
-400
-16
0
0
80
656
672
1216
512
64
1776
1104
400
-272
-928
-1568
-112
-1024
-1664
-496
-432
-16
0
0
64
608
592
1232
528
64
1792
1152
448
-224
-864
-1520
-96
-1008
-1712
-640
-496
-16
0
0
64
576
528
1296
576
80
1792
1152
448
-224
-880
-1520
-48
-944
-1680
-688
-544
-16
0
0
48
528
432
1280
592
112
1824
1200
496
-176
-832
-1488
-32
-928
-1696
-784
-608
-16
0
0
48
480
352
1312
608
96
1824
1216
512
-160
-816
-1472
-16
-896
-1712
-896
-688
-16
0
0
48
448
272
1360
656
128
1840
1248
528
-160
-816
-1456
-2048
-848
-1680
-928
-736
-16
0
0
48
416
176
1344
656
144
1872
1264
544
-128
-784
-1424
-2016
-816
-1664
-1024
-800
-16
0
0
32
384
96
1360
688
144
1856
1280
576
-96
-768
-1392
-1984
-752
-1632
-1056
-880
-16
0
0
32
352
0
1376
736
176
1888
1328
592
-80
-768
-1392
-1984
-720
-1600
-1120
-960
-32
0
0
32
320
1952
1360
736
176
1904
1344
624
-48
-720
-1360
-1968
-704
-1584
-1200
-1024
-32
0
0
32
304
1872
1360
768
192
1904
1376
640
-32
-688
-1328
-1920
-656
-1584
-1264
-1120
-32
0
0
32
272
1792
1392
848
256
1952
1408
672
0
-672
-1296
-1904
-608
-1536
-1312
-1200
-48
0
0
16
256
1696
1360
848
256
1952
1424
704
32
-656
-1296
-1904
-592
-1520
-1344
-1264
-48
0
0
16
240
1616
1360
912
304
1984
1472
752
48
-640
-1264
-1872
-544
-1488
-1408
-1344
-64
0
0
16
208
1520
1344
944
320
2000
1504
784
80
-608
-1248
-1840
-512
-1456
-1456
-1456
-80
0
0
16
192
1440
1312
960
352
2016
1536
800
112
-592
-1216
-1840
-496
-1440
-1488
-1520
-96
0
0
16
176
1360
1280
976
352
2032
1568
848
144
-560
-1200
-1824
-480
-1408
-1536
-1616
-112
0
0
16
160
1280
1232
1008
368
0
1584
864
160
-544
-1184
-1808
-448
-1392
-1568
-1696
-128
0
0
16
160
1200
1168
1024
384
16
1632
896
192
-512
-1152
-1808
-432
-1376
-1600
-1808
-144
0
0
16
144
1120
1136
1056
400
0
1632
928
224
-496
-1136
-1776
-400
-1344
-1648
-1920
-160
0
0
16
128
1056
1104
1088
432
32
1648
944
240
-464
-1104
-1744
-352
-1296
-1648
-2000
-192
0
0
0
112
992
1024
1088
432
32
1680
976
272
-432
-1088
-1744
-352
-1296
-1696
-48
-224
0
0
0
112
912
976
1120
448
32
1696
992
288
-416
-1056
-1712
-304
-1216
-1664
-128
-256
0
0
0
96
864
912
1152
480
64
1728
1040
320
-368
-1024
-1696
-272
-1184
-1696
-240
-288
0
0
0
96
800
848
1168
496
64
1744
1056
352
-336
-992
-1648
-240
-1168
-1728
-368
-336
0
0
0
80
736
784
1200
528
80
1760
1088
368
-336
-992
-1632
-224
-1136
-1728
-432
-384
-16
0
0
80
688
704
1232
544
96
1792
1120
400
-288
-944
-1600
-176
-1088
-1744
-528
-432
-16
0
0
64
640
640
1264
560
96
1792
1136
416
-272
-928
-1568
-144
-1040
-1728
-592
-464
-16
0
0
64
592
560
1280
592
112
1824
1184
448
-240
-896
-1552
-112
-992
-1712
-672
-528
-16
0
0
64
544
480
1312
624
128
1840
1200
480
-192
-864
-1520
-80
-960
-1728
-800
-608
-16
0
0
48
512
384
1312
624
128
1856
1232
512
-176
-832
-1488
-32
-912
-1696
-848
-656
-16
0
0
48
464
304
1328
656
144
1872
1264
528
-144
-816
-1472
-32
-896
-1728
-944
-720
-16
0
0
48
432
224
1344
672
160
1888
1280
560
-128
-800
-1440
-2016
-832
-1680
-992
-784
-16
0
0
48
400
128
1360
720
192
1920
1328
592
-96
-768
-1424
-2016
-800
-1680
-1072
-864
-16
0
0
32
368
48
1360
720
176
1904
1344
624
-64
-752
-1392
-1984
-752
-1664
-1152
-944
-16
0
0
32
336
2000
1376
752
208
1936
1360
640
-48
-720
-1376
-1968
-736
-1648
-1200
-1008
-32
0
0
32
304
1920
1392
816
240
1952
1408
672
-16
-704
-1344
-1952
-704
-1632
-1280
-1088
-32
0
0
32
288
1824
1376
816
240
1952
1408
688
16
-672
-1312
-1904
-624
-1568
-1296
-1168
-48
0
0
32
256
1744
1392
880
272
1968
1456
720
48
-640
-1280
-1888
-608
-1552
-1360
-1248
-48
0
0
16
240
1648
1360
864
256
1952
1456
752
64
-624
-1264
-1888
-592
-1568
-1456
-1360
-64
0
0
16
224
1568
1344
896
288
1984
1488
768
80
-608
-1248
-1872
-560
-1520
-1472
-1424
-64
0
0
16
208
1472
1328
928
320
2000
1520
800
112
-592
-1232
-1856
-544
-1520
-1536
-1536
-80
0
0
16
192
1392
1296
960
320
2000
1520
816
128
-560
-1200
-1840
-496
-1456
-1536
-1600
-96
0
0
16
176
1312
1264
992
352
2000
1552
848
160
-528
-1168
-1808
-448
-1408
-1584
-1712
-128
0
0
16
160
1232
1232
1056
384
2032
1584
864
176
-512
-1152
-1792
-416
-1376
-1616
-1808
-144
0
0
16
144
1152
1184
1056
400
2032
1600
896
208
-496
-1136
-1776
-384
-1344
-1632
-1888
-160
0
0
16
128
1088
1152
1104
432
32
1648
928
224
-480
-1104
-1760
-368
-1296
-1664
-1984
-192
0
0
0
128
1008
1072
1104
432
16
1664
944
240
-448
-1088
-1744
-352
-1280
-1680
-16
-224
0
0
0
112
944
1024
1152
464
32
1680
976
272
-416
-1056
-1712
-320
-1232
-1712
-144
-256
0
0
0
112
880
976
1200
496
48
1696
1008
288
-400
-1056
-1712
-288
-1216
-1728
-240
-288
0
0
0
96
816
864
1184
496
64
1728
1040
320
-384
-1024
-1696
-288
-1216
-1760
-336
-336
0
0
0
80
768
800
1216
528
80
1760
1072
336
-352
-1008
-1664
-272
-1184
-1792
-448
-384
0
0
0
80
704
752
1264
576
96
1776
1088
368
-352
-992
-1648
-208
-1104
-1760
-512
-416
-16
0
0
80
656
672
1280
592
128
1808
1136
400
-304
-960
-1616
-176
-1056
-1744
-608
-464
-16
0
0
64
608
608
1344
656
144
1840
1168
432
-272
-928
-1584
-128
-992
-1744
-720
-528
-16
0
0
64
560
528
1360
672
176
1888
1216
464
-240
-912
-1552
-80
-960
-1696
-736
-576
-16
0
0
64
528
432
1360
672
160
1888
1248
496
-192
-864
-1520
-80
-960
-1744
-848
-624
-16
0
0
48
480
352
1360
704
176
1888
1264
528
-176
-864
-1504
-32
-880
-1696
-912
-704
-16
0
0
48
448
256
1392
736
224
1952
1344
576
-128
-816
-1488
-16
-864
-1696
-992
-768
-16
0
0
48
416
160
1392
720
208
1936
1344
608
-96
-768
-1440
-2032
-832
-1696
-1104
-864
-16
0
0
32
384
80
1424
784
240
1952
1376
624
-64
-752
-1408
-2000
-784
-1664
-1136
-928
-16
0
0
32
352
2032
1408
800
256
1984
1424
656
-48
-752
-1408
-2016
-784
-1696
-1232
-1008
-32
0
0
32
320
1936
1392
816
256
1968
1424
672
-16
-720
-1376
-1984
-736
-1664
-1280
-1072
-32
0
0
32
288
1840
1408
864
288
1984
1456
704
0
-704
-1344
-1936
-672
-1616
-1328
-1168
-32
0
0
32
272
1760
1392
864
288
1984
1472
720
32
-672
-1328
-1936
-640
-1584
-1392
-1248
-48
0
0
16
256
1664
1360
896
304
2000
1504
752
64
-640
-1296
-1904
-608
-1552
-1424
-1344
-64
0
0
16
224
1584
1360
912
304
2000
1520
784
80
-624
-1280
-1904
-592
-1552
-1504
-1440
-64
0
0
16
208
1488
1328
928
320
2000
1536
800
112
-592
-1248
-1872
-560
-1520
-1520
-1520
-80
0
0
16
192
1408
1280
944
320
2000
1552
832
144
-560
-1200
-1824
-496
-1456
-1552
-1600
-96
0
0
16
176
1328
1248
976
352
2016
1584
864
160
-544
-1184
-1824
-464
-1424
-1600
-1728
-128
0
0
16
160
1248
1232
1024
368
2016
1600
880
192
-512
-1152
-1792
-432
-1392
-1616
-1808
-144
0
0
16
144
1168
1184
1056
384
0
1616
912
208
-480
-1120
-1776
-400
-1344
-1632
-1888
-160
0
0
16
144
1088
1104
1040
384
0
1648
928
240
-464
-1104
-1760
-384
-1344
-1696
-2000
-192
0
0
16
128
1024
1088
1104
432
16
1680
976
272
-416
-1056
-1728
-336
-1280
-1680
-32
-224
0
0
0
112
960
1024
1136
448
16
1680
992
288
-400
-1040
-1696
-272
-1216
-1696
-144
-256
0
0
0
112
896
976
1184
512
64
1728
1024
304
-384
-1024
-1680
-256
-1184
-1712
-224
-288
0
0
0
96
832
912
1216
512
64
1744
1056
336
-352
-992
-1648
-224
-1152
-1728
-320
-320
0
0
0
96
768
848
1248
544
64
1744
1072
352
-336
-976
-1632
-208
-1136
-1744
-416
-368
-16
0
0
80
720
768
1280
576
112
1792
1120
384
-304
-944
-1616
-192
-1088
-1760
-512
-416
-16
0
0
80
672
704
1328
608
112
1808
1136
400
-272
-928
-1584
-144
-1040
-1744
-592
-464
-16
0
0
64
624
624
1344
640
144
1840
1184
432
-256
-912
-1568
-128
-1008
-1728
-656
-512
-16
0
0
64
576
544
1376
672
160
1872
1216
464
-224
-880
-1552
-128
-992
-1760
-784
-576
-16
0
0
64
528
448
1360
672
160
1872
1248
496
-208
-864
-1520
-64
-944
-1744
-848
-640
-16
0
0
48
480
368
1408
736
208
1904
1280
528
-176
-848
-1520
-80
-944
-1760
-928
-704
-16
0
0
48
448
272
1424
752
224
1920
1312
560
-144
-816
-1472
-16
-880
-1728
-1040
-784
-16
0
0
48
416
192
1440
784
256
1952
1360
592
-112
-800
-1456
-2048
-832
-1696
-1056
-832
-16
0
0
32
384
96
1440
816
256
1968
1376
608
-80
-784
-1440
-2048
-832
-1728
-1168
-928
-16
0
0
32
352
0
1424
816
256
1952
1392
624
-64
-768
-1408
-2016
-768
-1664
-1184
-976
-32
0
0
32
320
1936
1392
832
272
1968
1424
656
-32
-720
-1376
-1968
-720
-1632
-1248
-1072
-32
0
0
32
304
1856
1376
832
272
1968
1456
688
0
-720
-1360
-1984
-720
-1648
-1344
-1168
-32
0
0
32
272
1760
1376
864
272
1968
1472
720
32
-672
-1328
-1920
-656
-1600
-1376
-1248
-48
0
0
32
256
1680
1392
912
304
2000
1504
752
32
-656
-1312
-1936
-640
-1584
-1440
-1344
-64
0
0
16
240
1584
1360
912
304
1984
1504
768
64
-640
-1296
-1904
-592
-1552
-1472
-1408
-64
0
0
16
208
1488
1328
944
336
2016
1536
800
96
-608
-1264
-1904
-576
-1536
-1520
-1504
-80
0
0
16
192
1408
1296
960
336
2016
1552
832
112
-592
-1248
-1872
-544
-1504
-1600
-1632
-96
0
0
16
176
1328
1280
1008
352
2016
1568
848
144
-560
-1216
-1840
-480
-1440
-1600
-1712
-112
0
0
16
160
1248
1248
1040
384
2032
1600
880
176
-528
-1184
-1808
-448
-1392
-1648
-1808
-144
0
0
16
160
1168
1200
1072
416
0
1616
896
192
-512
-1168
-1808
-432
-1376
-1664
-1904
-160
0
0
16
144
1104
1136
1088
432
16
1648
944
224
-464
-1120
-1776
-384
-1344
-1696
-2016
-192
0
0
16
128
1024
1104
1120
448
32
1664
976
256
-448
-1120
-1776
-384
-1344
-1760
-80
-224
0
0
0
112
960
1040
1168
464
32
1680
976
272
-432
-1088
-1744
-352
-1296
-1744
-144
-256
0
0
0
112
896
992
1216
512
48
1712
1008
288
-400
-1056
-1712
-304
-1248
-1760
-256
-288
0
0
0
96
832
928
1248
528
64
1728
1040
320
-384
-1040
-1696
-256
-1184
-1744
-320
-320
0
0
0
96
768
848
1264
560
80
1760
1072
352
-352
-992
-1664
-256
-1184
-1776
-416
-368
0
0
0
80
720
768
1280
560
80
1760
1088
368
-336
-992
-1664
-256
-1168
-1824
-544
-416
-16
0
0
80
672
672
1264
576
80
1776
1120
384
-304
-960
-1632
-208
-1120
-1792
-608
-464
-16
0
0
64
624
608
1296
592
96
1808
1152
416
-288
-944
-1616
-192
-1072
-1808
-720
-528
-16
0
0
64
576
528
1312
608
112
1808
1184
432
-256
-928
-1600
-176
-1056
-1792
-784
-576
-16
0
0
64
528
432
1328
624
128
1840
1200
464
-224
-896
-1568
-176
-1040
-1824
-896
-656
-16
0
0
48
480
336
1328
640
128
1840
1232
496
-208
-880
-1552
-128
-976
-1792
-992
-720
-16
0
0
48
448
256
1360
688
160
1856
1264
528
-176
-864
-1520
-96
-944
-1776
-1040
-784
-16
0
0
48
416
160
1376
720
176
1888
1296
544
-144
-832
-1488
-48
-880
-1744
-1104
-848
-16
0
0
48
384
80
1392
752
192
1904
1312
592
-112
-800
-1456
-2048
-816
-1696
-1152
-928
-16
0
0
32
352
2032
1376
784
224
1936
1360
624
-80
-768
-1424
-2032
-800
-1712
-1248
-1008
-32
0
0
32
320
1936
1408
816
240
1936
1376
640
-48
-736
-1392
-1984
-736
-1664
-1312
-1104
-32
0
0
32
304
1856
1408
848
272
1968
1424
688
-16
-704
-1344
-1936
-656
-1600
-1312
-1168
-48
0
0
32
272
1760
1392
880
288
2000
1472
720
32
-672
-1328
-1952
-672
-1632
-1424
-1264
-48
0
0
32
256
1680
1392
912
304
2000
1488
752
48
-656
-1296
-1888
-592
-1568
-1440
-1344
-64
0
0
16
240
1584
1392
960
352
2016
1520
784
80
-624
-1264
-1888
-576
-1568
-1504
-1440
-80
0
0
16
208
1504
1360
992
352
2032
1552
800
112
-608
-1264
-1872
-544
-1536
-1584
-1568
-96
0
0
16
192
1424
1344
1024
384
0
1568
832
128
-592
-1232
-1872
-544
-1520
-1600
-1632
-112
0
0
16
176
1328
1312
1056
400
16
1616
864
160
-560
-1216
-1840
-496
-1472
-1664
-1744
-128
0
0
16
160
1248
1280
1088
416
16
1616
880
176
-544
-1184
-1840
-480
-1440
-1680
-1840
-144
0
0
16
160
1168
1232
1120
448
32
1664
928
208
-496
-1152
-1808
-416
-1392
-1712
-1936
-176
0
0
16
144
1104
1200
1152
480
48
1680
944
240
-464
-1136
-1792
-400
-1376
-1760
-16
-208
0
0
16
128
1024
1136
1200
512
64
1696
992
256
-448
-1104
-1760
-352
-1312
-1744
-80
-224
0
0
0
112
960
1088
1232
528
96
1728
1008
288
-432
-1088
-1744
-336
-1280
-1776
-192
-256
0
0
0
112
896
1024
1264
544
96
1728
1024
304
-400
-1056
-1712
-304
-1248
-1776
-288
-304
0
0
0
96
832
960
1296
576
112
1776
1088
336
-368
-1024
-1696
-304
-1232
-1824
-416
-352
0
0
0
96
768
880
1328
608
128
1792
1088
352
-352
-1024
-1696
-272
-1200
-1824
-512
-400
0
0
0
80
720
800
1344
624
144
1808
1136
384
-336
-992
-1664
-240
-1136
-1808
-560
-432
-16
0
0
80
672
720
1376
656
160
1840
1168
416
-288
-960
-1632
-208
-1104
-1824
-688
-496
-16
0
0
64
624
640
1408
688
176
1856
1184
448
-272
-944
-1616
-192
-1088
-1840
-784
-560
-16
0
0
64
576
544
1424
720
208
1888
1232
480
-240
-928
-1600
-176
-1056
-1840
-880
-624
-16
0
0
64
528
448
1424
736
192
1904
1248
512
-208
-896
-1568
-128
-992
-1808
-960
-688
-16
0
0
48
480
368
1456
784
240
1936
1296
544
-192
-880
-1552
-112
-976
-1792
-992
-736
-16
0
0
48
448
272
1456
784
240
1952
1328
576
-144
-848
-1504
-80
-928
-1792
-1088
-816
-16
0
0
48
416
176
1456
800
256
1952
1344
592
-128
-832
-1488
-48
-880
-1760
-1136
-880
-16
0
0
48
384
64
1440
832
272
1968
1376
624
-96
-800
-1456
-32
-848
-1728
-1200
-960
-16
0
0
32
352
2032
1440
832
272
1968
1392
656
-64
-768
-1424
-2016
-768
-1664
-1248
-1024
-32
0
0
32
320
1936
1424
864
288
1984
1424
672
-32
-736
-1392
-2000
-736
-1648
-1264
-1088
-32
0
0
32
304
1824
1392
864
288
2000
1456
720
16
-704
-1360
-1984
-720
-1648
-1376
-1200
-48
0
0
32
272
1744
1392
880
304
2000
1472
736
32
-672
-1328
-1968
-688
-1616
-1408
-1264
-48
0
0
32
256
1648
1344
880
288
2000
1488
768
64
-640
-1296
-1952
-672
-1616
-1472
-1360
-64
0
0
16
240
1568
1344
912
304
2000
1504
784
80
-624
-1280
-1888
-592
-1536
-1504
-1472
-80
0
0
16
208
1472
1296
928
336
2016
1552
816
112
-592
-1248
-1872
-544
-1504
-1520
-1536
-96
0
0
16
192
1392
1280
944
320
2016
1568
848
144
-560
-1216
-1856
-528
-1472
-1568
-1632
-96
0
0
16
176
1312
1232
992
352
2016
1568
864
176
-528
-1184
-1824
-464
-1424
-1584
-1712
-128
0
0
16
160
1232
1200
1008
368
2016
1600
880
192
-496
-1152
-1792
-416
-1376
-1616
-1824
-144
0
0
16
160
1152
1136
1008
352
2016
1584
912
224
-448
-1104
-1760
-384
-1328
-1648
-1920
-176
0
0
16
144
1072
1104
1072
416
0
1632
928
240
-448
-1088
-1728
-336
-1296
-1648
-1984
-192
0
0
16
128
1008
1024
1056
400
0
1648
960
256
-432
-1072
-1712
-320
-1264
-1696
-64
-224
0
0
0
112
944
992
1104
432
0
1648
976
288
-400
-1040
-1696
-288
-1216
-1680
-128
-256
0
0
0
112
880
928
1152
448
0
1664
976
288
-384
-1008
-1664
-256
-1200
-1728
-240
-288
0
0
0
96
816
864
1168
480
16
1680
1008
304
-368
-992
-1648
-208
-1120
-1696
-336
-336
0
0
0
96
752
784
1184
496
48
1728
1040
336
-336
-976
-1632
-208
-1104
-1712
-400
-368
0
0
0
80
704
720
1232
528
64
1744
1072
368
-304
-944
-1584
-160
-1056
-1728
-528
-416
-16
0
0
80
656
656
1264
560
80
1760
1104
384
-288
-928
-1584
-144
-1008
-1696
-576
-464
-16
0
0
64
608
560
1280
576
96
1792
1136
416
-272
-912
-1552
-112
-976
-1696
-656
-512
-16
0
0
64
560
496
1344
624
128
1808
1168
448
-240
-896
-1536
-96
-960
-1712
-768
-576
-16
0
0
64
512
400
1344
656
144
1840
1200
464
-224
-864
-1504
-48
-896
-1680
-816
-640
-16
0
0
48
480
320
1360
688
176
1872
1232
496
-208
-864
-1504
-32
-848
-1648
-864
-688
-16
0
0
48
448
208
1312
672
176
1888
1264
544
-160
-832
-1456
-2048
-832
-1664
-976
-768
-16
0
0
48
400
128
1344
704
176
1888
1296
560
-128
-800
-1424
-2032
-816
-1680
-1056
-848
-16
0
0
48
368
48
1344
720
192
1904
1328
592
-112
-800
-1456
-16
-800
-1648
-1120
-912
-16
0
0
32
352
2000
1344
736
192
1920
1344
608
-80
-784
-1408
-2016
-768
-1632
-1136
-976
-32
0
0
32
320
1904
1328
752
208
1920
1376
640
-48
-752
-1392
-2000
-736
-1616
-1248
-1072
-32
0
0
32
288
1808
1312
768
224
1936
1392
672
-16
-720
-1360
-1952
-672
-1568
-1264
-1136
-32
0
0
32
272
1728
1312
800
240
1952
1440
704
16
-672
-1312
-1936
-640
-1552
-1328
-1232
-48
0
0
32
256
1648
1312
832
240
1952
1440
736
48
-656
-1296
-1904
-608
-1536
-1424
-1328
-64
0
0
16
224
1552
1296
864
272
1984
1488
752
80
-640
-1264
-1888
-560
-1472
-1408
-1376
-64
0
0
16
208
1472
1264
848
256
1968
1504
800
112
-608
-1248
-1856
-528
-1440
-1440
-1456
-80
0
0
16
192
1392
1248
896
288
1984
1520
816
144
-560
-1200
-1824
-464
-1392
-1472
-1552
-96
0
0
16
176
1312
1216
928
320
2000
1552
848
176
-528
-1152
-1776
-416
-1376
-1520
-1664
-112
0
0
16
160
1232
1200
976
352
2016
1568
880
192
-512
-1152
-1792
-416
-1360
-1600
-1776
-128
0
0
16
144
1168
1152
1024
368
2032
1600
896
208
-480
-1120
-1760
-384
-1328
-1600
-1840
-160
0
0
16
144
1088
1104
1024
368
2032
1616
928
240
-448
-1088
-1744
-384
-1344
-1696
-1984
-192
0
0
16
128
1024
1056
1056
384
2032
1632
944
240
-448
-1072
-1744
-368
-1312
-1696
-16
-208
0
0
0
112
960
1008
1104
432
16
1680
976
272
-416
-1040
-1696
-288
-1216
-1680
-96
-240
0
0
0
112
896
960
1136
448
16
1680
1008
304
-368
-1008
-1648
-224
-1152
-1680
-192
-272
0
0
0
96
832
880
1168
496
48
1728
1040
336
-336
-976
-1616
-192
-1120
-1696
-304
-320
0
0
0
96
768
832
1232
528
80
1760
1088
368
-336
-976
-1616
-192
-1120
-1728
-384
-352
0
0
0
80
720
768
1248
560
80
1760
1104
384
-304
-944
-1600
-176
-1104
-1744
-480
-400
-16
0
0
80
672
704
1296
592
112
1792
1120
400
-288
-928
-1568
-128
-1056
-1744
-560
-448
-16
0
0
64
608
624
1312
608
112
1792
1136
432
-256
-912
-1552
-128
-1008
-1744
-688
-512
-16
0
0
64
576
544
1344
640
144
1840
1184
448
-256
-912
-1568
-128
-1008
-1760
-752
-560
-16
0
0
64
528
448
1328
640
144
1856
1216
480
-224
-880
-1536
-112
-976
-1776
-864
-640
-16
0
0
48
480
368
1376
688
176
1872
1248
512
-192
-864
-1504
-48
-928
-1760
-944
-720
-16
0
0
48
448
288
1392
736
208
1920
1296
544
-160
-832
-1488
-16
-864
-1728
-1008
-768
-16
0
0
48
416
192
1408
768
224
1920
1312
576
-128
-816
-1456
-2032
-816
-1696
-1088
-848
-16
0
0
32
384
96
1424
800
240
1952
1360
608
-96
-768
-1424
-2032
-816
-1712
-1168
-928
-16
0
0
32
352
16
1424
816
272
1984
1392
640
-64
-768
-1408
-2016
-768
-1696
-1248
-1008
-32
0
0
32
320
1968
1440
848
288
2000
1424
672
-32
-736
-1392
-2016
-752
-1680
-1280
-1072
-32
0
0
32
304
1872
1440
880
304
2000
1456
704
0
-704
-1360
-1984
-736
-1680
-1376
-1168
-32
0
0
32
272
1792
1424
912
320
2016
1472
736
32
-688
-1344
-1968
-688
-1632
-1440
-1280
-48
0
0
16
256
1696
1408
928
352
0
1520
768
64
-656
-1312
-1936
-640
-1584
-1456
-1344
-64
0
0
16
240
1616
1408
960
352
0
1536
800
96
-624
-1280
-1904
-608
-1568
-1520
-1424
-64
0
0
16
208
1520
1392
1008
384
32
1568
832
128
-608
-1248
-1872
-544
-1520
-1536
-1536
-80
0
0
16
192
1440
1360
1024
400
32
1600
880
160
-576
-1232
-1872
-528
-1504
-1600
-1616
-96
0
0
16
176
1344
1312
1040
400
32
1616
896
208
-528
-1184
-1808
-464
-1456
-1632
-1728
-112
0
0
16
160
1264
1280
1072
432
48
1648
928
240
-496
-1152
-1808
-448
-1424
-1648
-1808
-144
0
0
16
160
1200
1232
1104
448
64
1680
960
256
-464
-1120
-1776
-400
-1376
-1696
-1920
-160
0
0
16
144
1120
1216
1152
480
80
1696
976
288
-432
-1104
-1760
-384
-1360
-1696
-2000
-192
0
0
16
128
1040
1152
1152
464
64
1696
1008
304
-400
-1056
-1728
-352
-1312
-1712
-32
-224
0
0
0
112
976
1088
1184
496
80
1712
1024
320
-368
-1040
-1712
-336
-1280
-1760
-160
-256
0
0
0
112
912
1040
1248
544
112
1776
1072
352
-352
-1024
-1696
-304
-1264
-1792
-272
-288
0
0
0
96
848
992
1296
560
112
1776
1088
368
-336
-1008
-1680
-272
-1216
-1792
-352
-336
0
0
0
96
784
912
1328
592
128
1792
1088
384
-304
-976
-1664
-272
-1184
-1792
-432
-368
0
0
0
80
736
816
1344
624
144
1808
1136
400
-288
-960
-1632
-224
-1136
-1792
-544
-416
-16
0
0
80
672
736
1360
624
144
1824
1136
416
-288
-944
-1616
-192
-1088
-1792
-640
-480
-16
0
0
64
624
656
1392
672
176
1840
1168
432
-256
-912
-1568
-128
-1024
-1776
-704
-528
-16
0
0
64
576
576
1440
720
192
1872
1216
464
-240
-912
-1568
-144
-1024
-1808
-800
-576
-16
0
0
64
528
448
1392
704
192
1888
1232
496
-208
-864
-1520
-96
-976
-1776
-880
-656
-16
0
0
48
496
368
1440
768
224
1920
1280
528
-192
-864
-1520
-96
-960
-1792
-960
-720
-16
0
0
48
464
288
1456
800
240
1952
1312
560
-160
-848
-1504
-80
-928
-1792
-1088
-800
-16
0
0
48
416
192
1472
816
256
1952
1344
592
-128
-800
-1456
-32
-864
-1744
-1104
-864
-16
0
0
48
384
96
1472
864
304
1984
1392
624
-96
-800
-1456
-16
-832
-1744
-1232
-960
-16
0
0
32
352
16
1504
896
320
2016
1424
656
-64
-768
-1424
-2048
-800
-1712
-1248
-1024
-32
0
0
32
336
1968
1488
928
336
2016
1456
688
-32
-736
-1408
-2032
-784
-1712
-1344
-1120
-32
0
0
32
304
1872
1472
944
368
0
1472
720
0
-720
-1392
-2032
-784
-1712
-1456
-1232
-48
0
0
32
272
1776
1440
928
352
0
1504
752
32
-688
-1360
-2000
-736
-1680
-1472
-1296
-48
0
0
32
256
1680
1456
976
368
16
1536
768
48
-672
-1344
-2000
-720
-1680
-1552
-1392
-64
0
0
16
240
1584
1408
976
368
0
1536
800
80
-640
-1312
-1968
-688
-1648
-1584
-1504
-80
0
0
16
224
1504
1360
992
384
16
1568
816
112
-608
-1280
-1936
-624
-1600
-1616
-1584
-96
0
0
16
208
1408
1312
976
352
0
1584
864
160
-560
-1248
-1920
-624
-1616
-1744
-1728
-112
0
0
16
192
1328
1312
1056
416
16
1600
880
160
-576
-1232
-1904
-576
-1568
-1728
-1808
-128
0
0
16
176
1248
1264
1088
432
48
1632
896
192
-544
-1216
-1888
-560
-1552
-1808
-1920
-160
0
0
16
160
1168
1232
1136
448
48
1648
928
208
-512
-1168
-1824
-464
-1472
-1792
-2016
-192
0
0
16
144
1088
1168
1152
480
64
1680
960
240
-464
-1136
-1808
-448
-1456
-1856
-96
-224
0
0
16
128
1024
1136
1200
496
80
1712
992
288
-448
-1120
-1776
-400
-1392
-1840
-192
-256
0
0
0
128
960
1088
1248
544
96
1744
1040
304
-416
-1088
-1744
-352
-1344
-1840
-256
-288
0
0
0
112
896
1024
1312
592
128
1776
1072
336
-368
-1040
-1712
-304
-1264
-1840
-352
-320
0
0
0
96
832
944
1312
592
128
1776
1088
368
-336
-1008
-1680
-256
-1200
-1824
-448
-368
0
0
0
96
768
880
1360
624
144
1824
1136
400
-320
-976
-1664
-256
-1184
-1840
-528
-400
-16
0
0
80
720
768
1344
640
144
1824
1152
416
-288
-960
-1632
-208
-1152
-1856
-640
-464
-16
0
0
80
656
704
1392
672
176
1856
1184
448
-256
-928
-1600
-192
-1120
-1856
-720
-528
-16
0
0
64
608
608
1424
704
192
1888
1216
480
-240
-912
-1568
-160
-1072
-1856
-816
-576
-16
0
0
64
560
528
1456
752
208
1904
1248
512
-208
-896
-1552
-112
-992
-1808
-880
-640
-16
0
0
64
528
448
1488
800
256
1936
1296
544
-176
-864
-1536
-112
-992
-1808
-976
-704
-16
0
0
48
480
368
1520
832
272
1952
1312
576
-144
-848
-1520
-96
-960
-1808
-1072
-784
-16
0
0
48
448
272
1552
864
304
1984
1344
592
-128
-832
-1488
-64
-912
-1792
-1104
-848
-16
0
0
48
416
160
1520
880
320
2000
1376
624
-96
-800
-1456
-32
-880
-1776
-1216
-928
-16
0
0
48
384
64
1520
896
320
2000
1408
656
-64
-768
-1424
-16
-816
-1728
-1248
-1008
-32
0
0
32
352
2016
1520
928
352
2032
1456
688
-32
-752
-1424
-32
-832
-1760
-1360
-1120
-32
0
0
32
320
1920
1536
960
368
2032
1456
704
-16
-752
-1408
-2048
-784
-1712
-1424
-1200
-48
0
0
32
288
1824
1520
1008
400
16
1504
736
16
-720
-1376
-2032
-768
-1712
-1456
-1280
-48
0
0
32
272
1728
1504
1024
400
32
1536
768
48
-672
-1344
-1968
-672
-1632
-1504
-1376
-64
0
0
32
256
1632
1472
1040
416
48
1568
800
80
-640
-1312
-1936
-624
-1584
-1520
-1472
-80
0
0
16
224
1552
1472
1104
464
80
1616
848
112
-624
-1296
-1952
-640
-1616
-1632
-1568
-96
0
0
16
208
1456
1456
1136
480
80
1616
864
144
-592
-1280
-1952
-640
-1600
-1696
-1680
-112
0
0
16
192
1376
1392
1136
496
96
1648
880
176
-560
-1232
-1904
-576
-1552
-1712
-1776
-128
0
0
16
176
1280
1360
1184
512
112
1696
928
192
-544
-1216
-1888
-544
-1520
-1760
-1888
-144
0
0
16
160
1200
1328
1232
544
112
1712
944
224
-512
-1200
-1872
-512
-1488
-1776
-1968
-176
0
0
16
144
1120
1248
1232
544
112
1728
992
240
-496
-1168
-1840
-480
-1440
-1792
-16
-208
0
0
16
144
1056
1184
1264
560
128
1744
1008
288
-448
-1136
-1808
-432
-1392
-1840
-160
-240
0
0
16
128
976
1120
1280
592
144
1760
1040
304
-416
-1104
-1808
-432
-1408
-1888
-272
-288
0
0
16
112
912
1056
1312
608
160
1808
1072
320
-400
-1088
-1792
-432
-1392
-1952
-400
-320
0
0
0
112
848
976
1344
624
160
1808
1104
352
-384
-1072
-1760
-368
-1328
-1920
-480
-368
0
0
0
96
784
912
1376
656
160
1824
1136
384
-352
-1040
-1728
-320
-1280
-1920
-576
-416
-16
0
0
96
736
816
1408
672
176
1856
1152
400
-320
-992
-1680
-288
-1248
-1952
-704
-480
-16
0
0
80
672
720
1408
704
192
1872
1184
432
-288
-976
-1648
-240
-1200
-1952
-768
-528
-16
0
0
80
624
640
1440
720
208
1904
1216
464
-256
-944
-1632
-240
-1168
-1952
-880
-592
-16
0
0
64
576
544
1456
736
224
1904
1248
496
-240
-928
-1600
-176
-1088
-1888
-912
-640
-16
0
0
64
528
464
1504
784
240
1920
1264
512
-192
-896
-1584
-160
-1056
-1888
-1008
-720
-16
0
0
64
496
368
1504
800
256
1936
1296
544
-176
-880
-1552
-128
-1008
-1872
-1120
-800
-16
0
0
48
448
272
1472
800
256
1952
1328
592
-128
-832
-1520
-128
-992
-1872
-1168
-864
-16
0
0
48
416
176
1504
832
288
1984
1360
608
-112
-816
-1504
-112
-976
-1888
-1312
-960
-16
0
0
48
384
80
1536
880
304
2000
1392
640
-80
-800
-1472
-64
-896
-1808
-1328
-1040
-32
0
0
32
352
2032
1552
944
336
2032
1440
672
-48
-768
-1440
-48
-848
-1792
-1376
-1120
-32
0
0
32
320
1936
1552
960
352
2032
1456
704
-16
-736
-1408
-2048
-816
-1776
-1488
-1232
-48
0
0
32
304
1824
1520
992
384
0
1488
736
16
-704
-1376
-2016
-768
-1728
-1504
-1312
-48
0
0
32
272
1728
1504
1024
416
32
1536
768
32
-688
-1360
-2000
-736
-1712
-1568
-1392
-64
0
0
32
256
1648
1488
1040
416
32
1552
800
64
-672
-1328
-1984
-704
-1664
-1600
-1488
-80
0
0
32
240
1552
1456
1088
448
64
1600
832
96
-640
-1296
-1952
-656
-1632
-1648
-1584
-96
0
0
16
224
1456
1424
1104
464
48
1600
848
128
-608
-1280
-1920
-592
-1568
-1696
-1696
-112
0
0
16
192
1376
1376
1136
480
80
1648
880
144
-592
-1248
-1904
-576
-1568
-1728
-1792
-128
0
0
16
176
1280
1344
1168
496
96
1664
912
176
-560
-1232
-1904
-576
-1552
-1776
-1904
-160
0
0
16
176
1200
1296
1184
512
96
1680
928
208
-528
-1200
-1840
-464
-1424
-1728
-1968
-176
0
0
16
160
1136
1232
1216
528
112
1712
976
256
-480
-1152
-1840
-480
-1456
-1824
-48
-208
0
0
16
144
1056
1168
1248
544
96
1712
992
272
-448
-1136
-1840
-496
-1488
-1904
-192
-256
0
0
16
128
976
1120
1264
560
112
1728
1008
272
-448
-1120
-1808
-448
-1424
-1888
-256
-272
0
0
16
128
912
1024
1264
560
112
1760
1056
320
-400
-1088
-1792
-432
-1392
-1920
-368
-320
0
0
0
112
848
976
1328
608
128
1792
1072
336
-368
-1056
-1760
-384
-1360
-1936
-464
-368
0
0
0
96
784
896
1360
624
144
1808
1104
368
-368
-1040
-1744
-352
-1296
-1920
-560
-416
-16
0
0
96
736
816
1376
656
160
1824
1136
400
-320
-1008
-1712
-304
-1232
-1920
-672
-464
-16
0
0
80
672
736
1408
688
176
1856
1168
432
-288
-976
-1680
-288
-1216
-1936
-752
-528
-16
0
0
80
624
640
1440
704
192
1888
1216
464
-272
-960
-1648
-256
-1184
-1936
-880
-592
-16
0
0
64
576
544
1440
736
208
1888
1232
480
-224
-928
-1600
-176
-1072
-1872
-928
-656
-16
0
0
64
528
464
1488
800
240
1920
1280
512
-208
-896
-1568
-144
-1024
-1856
-1008
-720
-16
0
0
64
496
368
1520
816
256
1936
1296
544
-176
-880
-1552
-128
-992
-1856
-1088
-800
-16
0
0
48
448
272
1520
848
288
1952
1328
576
-144
-864
-1536
-128
-976
-1840
-1152
-864
-16
0
0
48
416
176
1504
864
304
2000
1376
608
-112
-816
-1504
-112
-944
-1840
-1264
-944
-16
0
0
48
384
80
1520
896
320
2000
1408
640
-96
-800
-1472
-48
-880
-1776
-1296
-1024
-32
0
0
48
352
2032
1536
944
368
0
1456
672
-64
-784
-1440
-16
-816
-1744
-1328
-1104
-32
0
0
32
336
1936
1520
976
368
0
1472
704
-16
-736
-1408
-2032
-784
-1728
-1424
-1200
-48
0
0
32
304
1840
1504
1008
400
32
1504
736
0
-720
-1376
-2016
-752
-1696
-1472
-1280
-48
0
0
32
272
1744
1504
1040
416
48
1552
784
32
-688
-1360
-2016
-752
-1712
-1568
-1392
-64
0
0
32
256
1648
1488
1056
432
48
1568
800
64
-672
-1328
-1968
-672
-1632
-1584
-1488
-80
0
0
32
240
1552
1440
1072
448
64
1616
848
112
-624
-1280
-1936
-624
-1616
-1632
-1568
-96
0
0
16
224
1472
1424
1104
464
64
1616
864
128
-608
-1264
-1904
-608
-1584
-1696
-1696
-112
0
0
16
208
1376
1392
1104
448
80
1648
896
160
-576
-1248
-1936
-640
-1616
-1776
-1808
-128
0
0
16
192
1296
1344
1136
464
96
1664
928
192
-560
-1232
-1936
-624
-1600
-1808
-1920
-160
0
0
16
176
1216
1280
1152
496
96
1680
944
224
-512
-1200
-1872
-528
-1504
-1792
-2016
-192
0
0
16
160
1136
1232
1216
544
128
1728
992
256
-480
-1168
-1824
-448
-1424
-1792
-48
-208
0
0
16
144
1056
1200
1264
560
128
1744
1008
288
-432
-1136
-1824
-464
-1440
-1872
-192
-240
0
0
16
128
992
1104
1248
544
112
1744
1024
288
-432
-1104
-1824
-496
-1472
-1936
-288
-288
0
0
16
128
912
1008
1232
512
96
1760
1040
304
-416
-1088
-1808
-464
-1456
-1984
-400
-336
0
0
0
112
848
944
1280
544
96
1744
1056
336
-384
-1056
-1744
-400
-1376
-1952
-480
-368
0
0
0
96
800
864
1296
576
112
1792
1088
352
-352
-1040
-1728
-368
-1344
-1984
-608
-416
-16
0
0
96
736
816
1376
624
144
1808
1120
384
-336
-1024
-1696
-288
-1248
-1936
-688
-480
-16
0
0
80
688
752
1424
672
160
1824
1168
432
-272
-960
-1648
-208
-1120
-1824
-704
-512
-16
0
0
80
624
672
1488
736
208
1888
1216
480
-240
-928
-1600
-176
-1088
-1856
-832
-576
-16
0
0
64
576
576
1488
768
240
1904
1248
512
-208
-896
-1568
-144
-1040
-1840
-912
-640
-16
0
0
64
544
480
1520
800
256
1936
1296
544
-176
-864
-1536
-112
-1008
-1824
-976
-704
-16
0
0
64
496
400
1552
832
256
1936
1312
576
-144
-848
-1504
-80
-960
-1808
-1072
-784
-16
0
0
48
464
304
1568
880
304
1984
1344
608
-128
-816
-1472
-48
-896
-1776
-1104
-848
-16
0
0
48
416
192
1552
896
304
2000
1392
640
-96
-800
-1456
-32
-864
-1776
-1232
-944
-16
0
0
48
384
96
1568
928
320
2000
1408
656
-64
-784
-1440
-16
-848
-1760
-1264
-1008
-32
0
0
48
352
0
1584
976
368
0
1456
688
-32
-752
-1408
-2048
-816
-1744
-1344
-1104
-32
0
0
32
336
1936
1552
992
384
0
1472
720
0
-720
-1392
-2016
-768
-1712
-1408
-1200
-48
0
0
32
304
1856
1552
1024
400
16
1504
752
32
-688
-1344
-2000
-736
-1696
-1456
-1264
-48
0
0
32
288
1760
1568
1088
448
48
1552
784
48
-672
-1328
-2000
-720
-1696
-1568
-1392
-64
0
0
32
256
1648
1504
1088
448
64
1568
800
80
-656
-1312
-1952
-672
-1632
-1568
-1456
-80
0
0
32
240
1568
1472
1120
480
80
1600
832
96
-624
-1280
-1936
-640
-1616
-1616
-1568
-96
0
0
16
224
1472
1440
1152
496
96
1632
864
128
-592
-1264
-1920
-608
-1600
-1696
-1696
-112
0
0
16
208
1392
1408
1200
528
112
1680
912
160
-576
-1232
-1888
-560
-1536
-1696
-1776
-128
0
0
16
192
1296
1376
1232
560
144
1712
944
192
-544
-1216
-1888
-560
-1536
-1792
-1888
-160
0
0
16
176
1216
1328
1232
560
144
1744
976
224
-512
-1184
-1872
-528
-1520
-1824
-2000
-176
0
0
16
160
1136
1264
1248
576
160
1776
1008
256
-496
-1168
-1872
-528
-1504
-1872
-80
-208
0
0
16
144
1072
1200
1280
592
160
1792
1056
304
-448
-1136
-1808
-448
-1440
-1888
-176
-240
0
0
16
128
992
1136
1328
640
176
1808
1072
320
-432
-1104
-1776
-416
-1408
-1920
-304
-288
0
0
16
128
928
1072
1376
672
224
1856
1120
352
-400
-1088
-1760
-384
-1376
-1952
-432
-336
0
0
16
112
864
1008
1392
688
208
1856
1152
400
-352
-1056
-1728
-352
-1328
-1936
-496
-368
0
0
0
96
800
912
1408
704
224
1888
1184
432
-320
-1008
-1696
-304
-1280
-1952
-624
-432
-16
0
0
96
736
832
1440
720
240
1904
1216
448
-288
-992
-1680
-288
-1248
-1968
-736
-480
-16
0
0
80
688
752
1472
736
240
1920
1232
480
-240
-944
-1648
-256
-1200
-1952
-800
-528
-16
0
0
80
640
688
1504
768
256
1936
1264
512
-224
-928
-1632
-240
-1168
-1968
-928
-608
-16
0
0
80
592
592
1536
800
272
1952
1280
528
-192
-912
-1616
-256
-1184
-1984
-1008
-672
-16
0
0
64
544
480
1520
784
272
1952
1312
544
-192
-896
-1616
-272
-1184
-2016
-1104
-752
-16
0
0
64
496
384
1536
816
272
1968
1312
560
-160
-880
-1584
-208
-1120
-2000
-1232
-848
-16
0
0
48
464
288
1552
864
304
1984
1344
592
-128
-848
-1536
-144
-1024
-1936
-1248
-912
-16
0
0
48
416
192
1584
912
336
2016
1392
624
-96
-832
-1520
-128
-976
-1904
-1344
-992
-32
0
0
48
384
96
1600
928
336
2016
1408
656
-64
-800
-1488
-112
-944
-1872
-1376
-1072
-32
0
0
48
368
2032
1584
960
352
2032
1456
688
-48
-768
-1456
-80
-912
-1872
-1472
-1168
-32
0
0
32
336
1936
1568
976
368
0
1472
704
-16
-752
-1424
-48
-864
-1824
-1536
-1264
-48
0
0
32
304
1840
1584
1040
416
32
1504
752
16
-720
-1392
-2048
-784
-1760
-1552
-1344
-48
0
0
32
288
1744
1584
1088
448
48
1536
784
48
-688
-1360
-2016
-736
-1712
-1616
-1440
-64
0
0
32
256
1648
1552
1136
480
64
1568
816
64
-672
-1328
-1984
-688
-1664
-1648
-1536
-80
0
0
32
240
1552
1520
1168
496
96
1616
848
112
-624
-1296
-1968
-672
-1664
-1712
-1632
-96
0
0
16
224
1456
1488
1200
528
112
1648
896
160
-592
-1264
-1920
-624
-1632
-1760
-1760
-112
0
0
16
208
1376
1440
1216
544
112
1680
912
176
-576
-1232
-1920
-592
-1600
-1792
-1840
-144
0
0
16
192
1280
1392
1264
576
128
1696
960
208
-528
-1200
-1888
-544
-1552
-1840
-1952
-160
0
0
16
176
1200
1344
1312
608
160
1744
976
240
-512
-1184
-1872
-528
-1520
-1872
-32
-192
0
0
16
160
1120
1280
1344
640
176
1776
1024
288
-464
-1152
-1824
-464
-1456
-1872
-128
-224
0
0
16
144
1056
1232
1392
672
208
1808
1056
304
-432
-1120
-1808
-448
-1440
-1936
-272
-272
0
0
16
128
976
1152
1424
704
224
1840
1088
336
-416
-1104
-1792
-432
-1424
-1952
-352
-304
0
0
16
128
912
1088
1472
736
256
1872
1136
368
-384
-1072
-1776
-400
-1376
-1968
-480
-352
0
0
16
112
848
1008
1488
752
256
1888
1168
384
-352
-1056
-1744
-352
-1312
-1952
-560
-400
0
0
0
96
784
944
1536
800
288
1936
1200
416
-320
-1024
-1728
-352
-1296
-1952
-656
-448
-16
0
0
96
720
848
1552
816
288
1952
1232
464
-288
-992
-1696
-288
-1232
-1952
-768
-512
-16
0
0
80
672
752
1568
832
304
1968
1264
480
-256
-976
-1664
-272
-1200
-1952
-832
-560
-16
0
0
80
624
656
1568
848
320
2000
1312
528
-224
-944
-1632
-240
-1168
-1968
-976
-640
-16
0
0
80
576
576
1616
880
336
2000
1328
544
-208
-928
-1632
-256
-1136
-1968
-1040
-720
-16
0
0
64
528
464
1600
896
352
2032
1376
576
-176
-896
-1600
-208
-1088
-1952
-1136
-800
-16
0
0
64
496
352
1616
912
352
2032
1392
608
-144
-880
-1568
-176
-1040
-1936
-1232
-880
-16
0
0
48
448
256
1616
944
368
16
1424
640
-112
-848
-1536
-144
-1024
-1920
-1296
-960
-16
0
0
48
416
160
1616
976
400
32
1472
672
-80
-816
-1520
-144
-1008
-1952
-1408
-1056
-32
0
0
48
384
48
1616
992
400
32
1472
704
-48
-784
-1488
-96
-944
-1904
-1472
-1152
-32
0
0
48
352
2000
1632
1040
432
48
1520
736
-16
-768
-1456
-80
-896
-1872
-1552
-1248
-48
0
0
32
320
1888
1616
1056
448
64
1536
752
16
-736
-1424
-48
-864
-1856
-1616
-1344
-48
0
0
32
304
1792
1584
1072
448
64
1552
784
48
-704
-1392
-2048
-800
-1808
-1648
-1424
-64
0
0
32
272
1696
1552
1104
464
96
1600
816
80
-672
-1360
-2048
-784
-1792
-1728
-1552
-80
0
0
32
256
1600
1552
1152
496
80
1600
848
96
-640
-1328
-2000
-720
-1728
-1744
-1632
-96
0
0
32
240
1504
1520
1200
528
112
1648
864
128
-624
-1312
-2000
-704
-1712
-1792
-1744
-112
0
0
16
208
1408
1472
1216
528
112
1648
896
160
-592
-1280
-1968
-656
-1664
-1840
-1872
-144
0
0
16
192
1328
1440
1248
560
144
1696
928
176
-576
-1248
-1952
-640
-1632
-1856
-1952
-160
0
0
16
176
1248
1376
1280
576
144
1712
960
208
-544
-1232
-1936
-608
-1584
-1904
-2048
-192
0
0
16
160
1168
1328
1328
608
160
1744
992
240
-496
-1184
-1888
-544
-1520
-1888
-96
-224
0
0
16
160
1088
1264
1344
624
176
1776
1024
272
-464
-1152
-1856
-496
-1472
-1904
-208
-256
0
0
16
144
1008
1200
1392
640
176
1792
1040
304
-432
-1136
-1840
-480
-1456
-1936
-320
-304
0
0
16
128
944
1088
1392
656
192
1808
1088
320
-416
-1088
-1792
-432
-1408
-1936
-416
-336
0
0
16
112
864
1024
1440
704
224
1856
1120
352
-400
-1088
-1776
-416
-1376
-1984
-544
-384
0
0
16
112
800
944
1472
720
224
1872
1152
384
-368
-1056
-1744
-336
-1280
-1920
-592
-432
0
0
0
96
752
864
1504
752
240
1904
1200
416
-320
-1024
-1728
-336
-1280
-1968
-720
-496
-16
0
0
96
688
768
1536
784
256
1920
1216
448
-288
-992
-1696
-320
-1248
-1984
-848
-560
-16
0
0
80
640
672
1536
784
272
1936
1248
464
-272
-992
-1696
-336
-1248
-2000
-912
-608
-16
0
0
80
592
576
1536
800
272
1952
1280
496
-240
-960
-1664
-304
-1216
-2016
-1040
-688
-16
0
0
64
544
480
1568
848
288
1968
1296
512
-224
-944
-1632
-256
-1152
-2000
-1120
-768
-16
0
0
64
496
368
1568
864
304
2000
1360
560
-192
-912
-1600
-192
-1072
-1936
-1184
-832
-16
0
0
64
464
288
1616
928
336
2016
1376
592
-144
-864
-1552
-144
-1008
-1904
-1280
-928
-16
0
0
48
432
176
1616
960
368
0
1424
640
-112
-848
-1520
-128
-976
-1888
-1328
-1008
-32
0
0
48
400
80
1616
976
400
32
1472
672
-80
-816
-1504
-112
-944
-1872
-1424
-1104
-32
0
0
48
368
2016
1600
992
400
32
1488
704
-48
-784
-1472
-96
-928
-1856
-1472
-1184
-32
0
0
48
336
1920
1616
1040
416
32
1520
736
-16
-752
-1456
-80
-880
-1840
-1568
-1296
-48
0
0
32
304
1824
1584
1072
432
48
1536
768
16
-736
-1424
-32
-816
-1792
-1632
-1408
-64
0
0
32
288
1728
1584
1104
464
64
1568
800
48
-688
-1376
-16
-816
-1792
-1680
-1504
-80
0
0
32
256
1632
1536
1120
480
80
1600
832
80
-672
-1360
-48
-848
-1840
-1808
-1632
-96
0
0
32
240
1536
1504
1136
480
80
1616
848
112
-640
-1328
-2032
-768
-1760
-1824
-1728
-112
0
0
32
224
1440
1456
1168
512
112
1664
880
128
-640
-1312
-2048
-768
-1744
-1856
-1824
-128
0
0
16
208
1344
1424
1216
512
96
1664
912
160
-592
-1280
-1984
-688
-1680
-1888
-1952
-160
0
0
16
192
1264
1392
1280
576
128
1696
928
192
-560
-1248
-1952
-624
-1632
-1904
-2048
-192
0
0
16
176
1184
1328
1296
592
160
1744
992
224
-544
-1232
-1936
-608
-1600
-1936
-96
-208
0
0
16
160
1104
1264
1312
592
160
1760
1008
256
-496
-1200
-1904
-560
-1552
-1952
-192
-240
0
0
16
144
1024
1200
1360
624
176
1776
1040
272
-464
-1152
-1856
-496
-1488
-1968
-304
-288
0
0
16
128
960
1136
1408
688
208
1824
1088
320
-432
-1120
-1808
-432
-1408
-1952
-432
-336
0
0
16
128
896
1056
1440
704
208
1840
1120
352
-400
-1088
-1776
-400
-1376
-1952
-480
-368
0
0
16
112
832
976
1472
736
256
1888
1152
384
-368
-1072
-1776
-416
-1376
-2000
-624
-432
0
0
0
96
768
896
1488
752
240
1888
1184
416
-336
-1040
-1744
-368
-1328
-2000
-720
-480
-16
0
0
96
704
816
1536
784
272
1936
1232
448
-304
-1008
-1712
-336
-1280
-1984
-800
-544
-16
0
0
80
656
720
1552
800
272
1936
1248
480
-256
-960
-1664
-288
-1216
-1984
-912
-608
-16
0
0
80
608
640
1616
880
320
1984
1296
528
-224
-928
-1632
-256
-1184
-2000
-1008
-672
-16
0
0
80
560
544
1616
896
352
2016
1344
560
-192
-912
-1600
-224
-1152
-1984
-1120
-768
-16
0
0
64
512
432
1632
912
352
0
1376
592
-160
-880
-1584
-208
-1120
-1968
-1184
-832
-16
0
0
64
480
336
1664
944
384
0
1408
624
-128
-848
-1536
-160
-1072
-1968
-1280
-928
-16
0
0
48
432
224
1664
992
400
16
1424
640
-96
-832
-1504
-112
-992
-1936
-1392
-1024
-32
0
0
48
400
128
1680
1024
416
48
1488
688
-64
-800
-1472
-80
-944
-1888
-1392
-1088
-32
0
0
48
368
32
1680
1072
448
64
1520
720
-32
-784
-1456
-96
-944
-1904
-1504
-1184
-32
0
0
48
352
1968
1664
1088
464
80
1536
752
0
-752
-1424
-48
-896
-1872
-1568
-1280
-48
0
0
32
320
1872
1648
1104
496
112
1584
784
32
-720
-1408
-48
-864
-1856
-1648
-1392
-64
0
0
32
288
1776
1632
1152
496
96
1600
816
64
-688
-1376
-2048
-800
-1808
-1712
-1504
-80
0
0
32
272
1664
1616
1200
544
128
1648
864
112
-656
-1344
-2032
-768
-1776
-1744
-1600
-96
0
0
32
240
1568
1600
1248
560
160
1680
896
128
-640
-1328
-2016
-736
-1728
-1792
-1696
-112
0
0
32
224
1472
1552
1264
576
160
1712
928
176
-592
-1280
-1984
-688
-1696
-1824
-1808
-128
0
0
16
208
1392
1520
1312
608
176
1728
960
192
-560
-1264
-1968
-672
-1680
-1888
-1936
-160
0
0
16
192
1296
1456
1328
624
192
1760
992
240
-528
-1232
-1936
-624
-1632
-1936
-2048
-192
0
0
16
176
1216
1408
1392
656
192
1776
1008
256
-512
-1200
-1904
-576
-1584
-1936
-96
-208
0
0
16
160
1136
1344
1424
688
224
1824
1056
288
-480
-1168
-1888
-560
-1568
-1984
-224
-256
0
0
16
144
1056
1280
1456
720
240
1840
1088
320
-448
-1152
-1872
-528
-1536
-2000
-336
-288
0
0
16
144
976
1200
1488
736
256
1872
1120
336
-416
-1120
-1840
-512
-1504
-2032
-448
-336
0
0
16
128
912
1120
1520
752
272
1888
1152
368
-384
-1104
-1808
-464
-1440
-2048
-576
-384
0
0
16
112
848
1040
1552
800
304
1936
1184
400
-368
-1072
-1792
-416
-1392
-2032
-656
-432
0
0
16
112
784
960
1600
832
320
1952
1232
432
-320
-1040
-1744
-384
-1344
-2032
-768
-496
-16
0
0
96
720
864
1632
864
336
1984
1264
480
-288
-1008
-1728
-368
-1328
-2048
-864
-560
-16
0
0
96
672
752
1632
896
352
2016
1312
512
-256
-992
-1712
-352
-1296
-16
-976
-624
-16
0
0
80
624
656
1664
912
368
2032
1328
528
-224
-960
-1696
-352
-1296
-32
-1104
-720
-16
0
0
80
576
560
1680
944
384
0
1376
576
-192
-928
-1648
-288
-1216
-16
-1168
-784
-16
0
0
64
528
464
1712
992
432
48
1424
608
-160
-912
-1632
-272
-1184
-16
-1296
-864
-16
0
0
64
480
352
1728
1008
432
48
1440
640
-128
-880
-1584
-240
-1136
-2032
-1344
-944
-16
0
0
64
448
256
1712
1040
448
80
1488
688
-96
-848
-1568
-224
-1120
-2032
-1440
-1040
-32
0
0
48
416
144
1712
1056
448
64
1504
704
-48
-800
-1520
-160
-1056
-2016
-1536
-1152
-32
0
0
48
384
32
1712
1104
480
96
1536
736
-32
-800
-1488
-128
-1008
-1952
-1536
-1216
-48
0
0
48
352
1984
1712
1136
512
112
1568
768
0
-752
-1456
-96
-944
-1920
-1632
-1328
-48
0
0
32
320
1872
1680
1152
512
112
1584
800
32
-720
-1408
-64
-912
-1904
-1696
-1408
-64
0
0
32
304
1760
1648
1168
528
112
1616
816
64
-688
-1392
-48
-880
-1888
-1760
-1536
-80
0
0
32
272
1664
1616
1216
544
144
1648
848
96
-672
-1376
-16
-832
-1840
-1824
-1664
-96
0
0
32
256
1568
1616
1264
576
160
1664
896
112
-656
-1344
-2048
-784
-1792
-1856
-1744
-112
0
0
32
240
1472
1568
1312
608
176
1712
928
144
-624
-1312
-2016
-736
-1760
-1920
-1872
-144
0
0
16
208
1392
1536
1360
640
192
1728
960
176
-592
-1296
-1984
-688
-1712
-1936
-1984
-160
0
0
16
192
1296
1488
1376
656
208
1776
992
208
-560
-1264
-2000
-704
-1712
-2000
-64
-192
0
0
16
176
1216
1424
1424
672
208
1776
1008
240
-528
-1232
-1968
-656
-1680
-16
-208
-240
0
0
16
160
1120
1344
1456
704
224
1808
1024
256
-512
-1216
-1936
-608
-1616
-2048
-288
-272
0
0
16
160
1056
1296
1520
752
256
1856
1104
304
-464
-1184
-1888
-528
-1536
-2032
-400
-304
0
0
16
144
976
1232
1568
784
272
1888
1120
336
-432
-1152
-1872
-512
-1520
-16
-512
-352
0
0
16
128
912
1136
1584
816
304
1920
1168
368
-416
-1136
-1856
-512
-1504
-48
-624
-416
0
0
16
112
848
1040
1600
816
288
1936
1184
400
-368
-1104
-1840
-496
-1472
-64
-720
-464
-16
0
16
112
784
928
1600
816
288
1936
1216
432
-352
-1072
-1792
-448
-1408
-32
-784
-512
-16
0
0
96
720
832
1616
848
320
1968
1248
464
-304
-1056
-1776
-416
-1360
-48
-912
-576
-16
0
0
96
672
736
1648
864
320
1968
1280
480
-288
-1024
-1744
-384
-1328
-32
-992
-640
-16
0
0
80
608
624
1648
896
336
2000
1312
512
-240
-992
-1728
-368
-1312
-64
-1120
-720
-16
0
0
80
560
512
1632
896
320
2000
1328
544
-208
-960
-1680
-320
-1248
-32
-1216
-800
-16
0
0
64
528
416
1632
912
352
2032
1376
576
-176
-928
-1648
-288
-1200
-32
-1296
-896
-16
0
0
64
480
320
1680
976
384
0
1424
608
-144
-912
-1616
-256
-1152
-2048
-1408
-976
-16
0
0
64
448
208
1712
1040
416
32
1440
640
-96
-864
-1568
-192
-1072
-1984
-1456
-1072
-32
0
0
48
416
96
1712
1072
464
48
1488
688
-64
-832
-1536
-176
-1024
-1984
-1536
-1184
-32
0
0
48
384
0
1712
1088
464
64
1520
720
-32
-800
-1504
-144
-992
-1952
-1632
-1280
-48
0
0
48
352
1936
1712
1136
496
96
1552
752
-16
-768
-1472
-128
-960
-1936
-1680
-1376
-64
0
0
48
320
1840
1696
1184
528
112
1584
784
16
-736
-1424
-96
-912
-1904
-1760
-1488
-64
0
0
32
288
1744
1680
1216
544
128
1600
816
32
-704
-1392
-48
-864
-1856
-1792
-1600
-80
0
0
32
272
1632
1632
1264
576
160
1648
848
80
-688
-1376
-32
-832
-1840
-1856
-1712
-112
0
0
32
256
1536
1616
1312
608
176
1680
896
112
-656
-1344
-2048
-784
-1808
-1920
-1840
-128
0
0
32
224
1440
1568
1344
640
192
1712
928
144
-640
-1328
-2048
-784
-1792
-1968
-1936
-144
0
0
32
208
1360
1520
1392
672
224
1760
976
176
-608
-1296
-2016
-720
-1760
-2016
-16
-176
0
0
16
192
1264
1488
1456
704
256
1808
1008
208
-576
-1264
-1968
-672
-1696
-2032
-144
-208
0
0
16
176
1184
1424
1488
752
272
1840
1056
256
-544
-1248
-1936
-608
-1632
-2032
-240
-256
0
0
16
160
1104
1360
1520
768
288
1872
1088
304
-480
-1200
-1920
-576
-1600
-32
-352
-288
0
0
16
144
1024
1280
1568
816
304
1904
1136
336
-464
-1184
-1904
-576
-1600
-48
-464
-336
0
0
16
144
960
1200
1584
816
336
1952
1184
368
-416
-1152
-1872
-528
-1536
-80
-592
-384
0
0
16
128
880
1120
1632
848
336
1952
1216
400
-384
-1120
-1840
-496
-1488
-64
-688
-432
0
0
16
112
816
1024
1648
880
352
2000
1248
448
-336
-1088
-1808
-464
-1456
-80
-784
-496
-16
0
16
112
752
928
1680
896
352
2000
1280
480
-304
-1056
-1792
-432
-1424
-96
-928
-560
-16
0
0
96
704
816
1696
912
368
2032
1312
512
-272
-1024
-1760
-416
-1392
-96
-1008
-624
-16
0
0
96
656
720
1712
944
400
0
1360
560
-224
-992
-1728
-368
-1328
-96
-1136
-704
-16
0
0
80
592
624
1760
992
416
16
1392
592
-192
-960
-1680
-320
-1264
-64
-1200
-784
-16
0
0
80
544
512
1776
1024
432
32
1408
608
-176
-928
-1664
-304
-1232
-64
-1296
-864
-16
0
0
64
512
400
1760
1024
432
48
1440
640
-128
-896
-1632
-272
-1184
-48
-1408
-960
-16
0
0
64
464
288
1760
1072
464
64
1472
672
-112
-880
-1584
-240
-1152
-16
-1456
-1056
-32
0
0
64
432
176
1760
1104
480
80
1504
704
-64
-832
-1552
-208
-1088
-2032
-1552
-1152
-32
0
0
48
400
64
1760
1120
496
96
1520
720
-48
-800
-1520
-176
-1040
-2000
-1600
-1232
-48
0
0
48
368
2016
1760
1184
528
112
1568
768
-16
-784
-1504
-160
-1008
-2000
-1696
-1360
-48
0
0
48
336
1904
1744
1216
544
128
1600
784
16
-736
-1456
-128
-976
-1968
-1776
-1472
-64
0
0
48
304
1792
1728
1264
576
160
1632
832
64
-720
-1424
-96
-928
-1952
-1840
-1584
-80
0
0
32
288
1696
1696
1296
624
192
1680
880
96
-688
-1392
-48
-864
-1888
-1888
-1696
-96
0
0
32
272
1600
1664
1344
640
208
1712
912
112
-656
-1360
-32
-832
-1856
-1936
-1824
-128
0
0
32
240
1504
1632
1392
688
240
1760
944
144
-624
-1344
-32
-800
-1840
-2016
-1952
-144
0
0
32
224
1408
1584
1424
704
240
1792
992
192
-592
-1312
-2032
-752
-1792
-16
-32
-176
0
0
32
208
1312
1536
1472
736
272
1824
1024
224
-560
-1280
-2016
-736
-1776
-32
-128
-208
0
0
16
192
1232
1472
1504
768
288
1856
1056
256
-528
-1264
-1984
-688
-1744
-80
-272
-256
0
0
16
176
1136
1408
1552
784
304
1872
1088
288
-496
-1216
-1952
-640
-1680
-96
-368
-288
0
0
16
160
1072
1344
1616
848
336
1920
1136
320
-464
-1200
-1936
-608
-1648
-128
-512
-336
0
0
16
144
992
1264
1664
880
352
1952
1168
352
-432
-1184
-1936
-608
-1632
-176
-640
-384
0
0
16
128
912
1168
1680
896
368
1968
1200
400
-400
-1136
-1888
-576
-1616
-208
-768
-448
0
0
16
128
848
1088
1712
928
400
2016
1264
432
-384
-1120
-1856
-512
-1520
-176
-896
-512
-16
0
16
112
784
1008
1760
976
416
0
1296
464
-336
-1088
-1824
-496
-1488
-192
-992
-592
-16
0
16
112
720
912
1824
1024
464
32
1344
512
-304
-1072
-1808
-448
-1440
-192
-1104
-656
-16
0
0
96
672
800
1840
1056
480
64
1376
544
-256
-1040
-1776
-416
-1376
-160
-1216
-736
-16
0
0
96
624
688
1840
1072
496
80
1424
592
-224
-992
-1744
-400
-1360
-176
-1296
-816
-16
0
0
80
576
576
1888
1120
528
112
1472
624
-192
-976
-1712
-384
-1328
-160
-1408
-912
-16
0
0
80
528
464
1888
1152
544
144
1504
672
-144
-928
-1680
-336
-1248
-112
-1456
-992
-16
0
0
64
480
352
1888
1184
560
160
1536
704
-96
-896
-1648
-304
-1216
-112
-1568
-1088
-32
0
0
64
448
224
1888
1232
592
176
1584
752
-64
-848
-1600
-272
-1184
-96
-1664
-1216
-32
0
0
64
416
112
1888
1264
608
192
1616
784
-32
-832
-1584
-256
-1152
-80
-1728
-1296
-48
0
0
48
384
0
1856
1280
624
208
1648
816
0
-800
-1536
-224
-1104
-64
-1808
-1424
-64
0
0
48
352
1936
1840
1328
640
224
1680
848
48
-768
-1504
-208
-1072
-32
-1888
-1520
-80
0
0
48
320
1824
1808
1344
656
240
1712
880
80
-736
-1488
-208
-1088
-64
-1984
-1664
-96
0
0
32
304
1712
1776
1376
656
240
1728
912
112
-704
-1440
-144
-976
-2016
-2016
-1792
-112
0
0
32
272
1616
1728
1424
704
256
1760
944
144
-672
-1408
-128
-944
-2000
-32
-1904
-144
0
0
32
256
1504
1664
1440
720
272
1808
992
176
-624
-1376
-112
-944
-1984
-112
-2048
-160
0
0
32
240
1424
1632
1504
752
288
1840
1008
192
-608
-1344
-64
-880
-1952
-144
-128
-208
0
0
32
208
1328
1568
1536
768
304
1856
1040
224
-576
-1312
-32
-832
-1888
-176
-256
-240
0
0
16
192
1232
1520
1584
800
304
1872
1072
256
-544
-1280
-2048
-800
-1856
-224
-400
-272
0
0
16
176
1152
1456
1632
832
320
1904
1104
288
-512
-1248
-2000
-720
-1760
-176
-464
-320
0
0
16
160
1072
1360
1680
880
368
1952
1152
320
-480
-1216
-1968
-672
-1712
-192
-576
-368
0
0
16
160
992
1280
1696
896
368
1952
1184
368
-432
-1168
-1904
-592
-1632
-176
-688
-416
0
0
16
144
912
1184
1760
944
400
2000
1232
400
-400
-1152
-1888
-544
-1568
-176
-800
-480
-16
0
16
128
848
1104
1792
976
416
2016
1264
448
-352
-1104
-1856
-528
-1536
-192
-928
-544
-16
0
16
112
784
992
1824
1024
448
0
1296
480
-320
-1088
-1824
-496
-1504
-208
-1024
-608
-16
0
16
112
720
880
1840
1040
464
32
1344
512
-304
-1056
-1792
-448
-1440
-176
-1152
-688
-16
0
16
96
672
768
1856
1072
480
48
1376
544
-256
-1024
-1776
-448
-1408
-192
-1248
-768
-16
0
0
96
624
656
1872
1104
512
96
1424
592
-224
-1008
-1728
-384
-1344
-160
-1312
-848
-16
0
0
80
576
544
1872
1120
528
112
1472
624
-176
-960
-1696
-352
-1280
-128
-1424
-944
-16
0
0
80
528
432
1888
1168
544
128
1504
672
-144
-928
-1664
-320
-1248
-128
-1520
-1040
-32
0
0
64
480
304
1872
1200
576
160
1552
704
-112
-912
-1648
-320
-1232
-128
-1632
-1152
-32
0
0
64
448
192
1872
1216
592
176
1584
752
-64
-864
-1600
-256
-1152
-64
-1648
-1232
-48
0
0
64
416
80
1856
1264
624
208
1632
784
-32
-832
-1568
-240
-1120
-48
-1728
-1344
-48
0
0
48
384
2016
1856
1296
624
208
1648
816
16
-784
-1536
-192
-1056
-16
-1824
-1472
-64
0
0
48
352
1904
1840
1344
656
240
1696
864
48
-768
-1504
-176
-1024
-2032
-1872
-1568
-80
0
0
48
320
1792
1792
1360
688
272
1744
912
96
-720
-1472
-160
-992
-2016
-1952
-1696
-96
0
0
48
304
1680
1760
1392
704
272
1760
928
128
-672
-1424
-112
-928
-1968
-1984
-1808
-128
0
0
32
272
1584
1728
1440
736
288
1808
992
160
-656
-1392
-80
-896
-1936
-16
-1936
-144
0
0
32
256
1488
1680
1488
752
304
1840
1008
208
-592
-1344
-32
-816
-1872
-48
-16
-176
0
0
32
240
1392
1648
1552
784
320
1840
1040
240
-576
-1312
-16
-816
-1856
-96
-128
-208
0
0
32
208
1296
1552
1568
800
336
1888
1072
272
-544
-1296
-16
-800
-1840
-144
-272
-240
0
0
32
192
1200
1472
1584
800
320
1904
1120
304
-496
-1248
-2016
-736
-1776
-160
-384
-288
0
0
16
176
1120
1408
1616
832
352
1936
1152
336
-480
-1216
-2000
-720
-1760
-192
-528
-336
0
0
16
160
1040
1344
1680
880
352
1952
1184
352
-448
-1200
-1952
-656
-1696
-208
-656
-400
0
0
16
160
960
1248
1728
896
368
1968
1184
384
-432
-1168
-1936
-624
-1648
-208
-752
-448
0
0
16
144
896
1152
1760
944
400
2000
1248
416
-384
-1136
-1904
-592
-1600
-208
-880
-512
-16
0
16
128
832
1056
1776
944
384
2000
1248
448
-352
-1104
-1856
-544
-1552
-224
-992
-592
-16
0
16
112
768
944
1808
992
416
2032
1296
480
-320
-1072
-1840
-512
-1504
-224
-1088
-656
-16
0
16
112
704
832
1824
1008
432
16
1328
512
-288
-1040
-1792
-464
-1456
-224
-1232
-736
-16
0
16
96
656
720
1856
1072
464
48
1376
544
-256
-1024
-1776
-464
-1440
-224
-1328
-832
-16
0
0
96
608
624
1872
1104
496
80
1424
576
-224
-1008
-1744
-432
-1392
-224
-1424
-928
-16
0
0
80
560
496
1888
1152
512
80
1440
608
-192
-976
-1712
-384
-1312
-192
-1504
-1008
-32
0
0
80
512
384
1920
1216
560
128
1504
640
-160
-944
-1680
-368
-1280
-176
-1600
-1120
-32
0
0
64
480
272
1904
1216
560
144
1536
688
-112
-896
-1648
-304
-1200
-112
-1664
-1200
-32
0
0
64
432
160
1920
1280
608
176
1584
736
-64
-864
-1600
-256
-1136
-64
-1712
-1296
-48
0
0
64
400
48
1904
1328
656
208
1632
784
-32
-848
-1568
-256
-1088
-32
-1792
-1408
-64
0
0
48
368
1968
1888
1360
672
240
1680
832
16
-800
-1520
-208
-1072
-32
-1872
-1536
-80
0
0
48
336
1856
1856
1392
704
272
1728
880
48
-768
-1504
-192
-1040
-16
-1952
-1648
-96
0
0
48
320
1744
1792
1408
720
272
1760
928
112
-720
-1456
-144
-976
-2016
-2016
-1792
-112
0
0
48
288
1648
1792
1472
752
304
1792
960
144
-688
-1424
-128
-928
-1968
-2048
-1888
-128
0
0
32
272
1536
1744
1520
784
336
1840
1008
176
-656
-1392
-96
-896
-1936
-64
-2016
-160
0
0
32
240
1440
1680
1568
816
336
1872
1040
208
-608
-1360
-48
-832
-1888
-80
-80
-192
0
0
32
224
1344
1616
1584
832
368
1920
1088
256
-576
-1328
-32
-800
-1856
-112
-208
-224
0
0
32
208
1264
1568
1632
864
368
1936
1120
288
-528
-1280
-2032
-752
-1808
-144
-320
-272
0
0
32
192
1168
1472
1664
880
384
1968
1152
320
-496
-1264
-2016
-736
-1792
-192
-448
-304
0
0
16
176
1088
1392
1696
912
416
2000
1216
352
-464
-1216
-1968
-672
-1696
-176
-560
-352
0
0
16
160
1008
1296
1728
944
416
2016
1248
400
-416
-1184
-1952
-640
-1696
-240
-704
-416
0
0
16
144
944
1216
1760
960
432
2032
1280
432
-384
-1152
-1920
-608
-1648
-240
-832
-480
0
0
16
144
864
1104
1776
976
432
0
1296
464
-336
-1104
-1872
-560
-1600
-256
-960
-560
-16
0
16
128
800
1008
1808
1008
448
32
1344
496
-320
-1088
-1856
-560
-1568
-256
-1056
-624
-16
0
16
112
736
880
1808
992
448
64
1376
528
-288
-1056
-1824
-544
-1552
-304
-1216
-704
-16
0
16
112
688
784
1840
1040
464
64
1408
544
-256
-1024
-1792
-480
-1472
-272
-1328
-800
-16
0
16
96
624
672
1872
1072
480
80
1440
576
-224
-992
-1760
-448
-1424
-256
-1424
-896
-16
0
0
96
576
576
1904
1120
496
96
1456
608
-192
-976
-1728
-416
-1392
-256
-1536
-992
-16
0
0
80
544
448
1920
1152
528
112
1488
640
-160
-944
-1696
-400
-1360
-240
-1616
-1088
-32
0
0
80
496
336
1920
1200
560
144
1536
672
-128
-928
-1664
-352
-1280
-208
-1712
-1200
-32
0
0
64
464
224
1920
1232
560
144
1552
704
-96
-880
-1616
-320
-1232
-176
-1776
-1312
-48
0
0
64
416
96
1936
1296
608
192
1600
736
-64
-848
-1584
-288
-1184
-144
-1856
-1408
-64
0
0
64
384
2032
1904
1328
640
192
1632
784
-16
-800
-1536
-192
-1056
-16
-1856
-1504
-64
0
0
48
352
1920
1888
1392
688
240
1696
832
32
-768
-1504
-192
-1056
-48
-1936
-1616
-80
0
0
48
336
1808
1872
1440
720
256
1728
880
64
-752
-1472
-160
-1008
-2032
-2000
-1760
-112
0
0
48
304
1696
1840
1488
752
288
1776
928
96
-720
-1440
-128
-944
-1968
-2032
-1856
-128
0
0
32
272
1600
1792
1536
784
304
1824
976
144
-672
-1424
-112
-912
-1952
-32
-1984
-160
0
0
32
256
1488
1728
1568
816
336
1856
1024
192
-624
-1376
-80
-848
-1904
-80
-64
-192
0
0
32
240
1392
1680
1616
848
352
1904
1072
224
-608
-1360
-64
-848
-1888
-112
-160
-208
0
0
32
224
1296
1584
1632
864
368
1936
1104
272
-560
-1312
-32
-800
-1840
-160
-304
-256
0
0
32
208
1216
1536
1696
896
368
1952
1136
304
-528
-1280
-2016
-736
-1760
-144
-416
-304
0
0
16
192
1120
1440
1728
944
416
2000
1200
336
-480
-1248
-2000
-688
-1712
-160
-528
-336
0
0
16
176
1040
1360
1760
960
416
2016
1232
384
-432
-1200
-1968
-656
-1696
-208
-656
-400
0
0
16
160
976
1264
1808
992
448
0
1264
416
-416
-1184
-1952
-656
-1680
-224
-768
-448
0
0
16
144
896
1152
1808
1008
464
32
1328
464
-352
-1136
-1936
-624
-1632
-256
-912
-528
-16
0
16
128
832
1072
1872
1056
480
48
1344
496
-320
-1104
-1888
-608
-1616
-288
-1040
-608
-16
0
16
128
768
944
1856
1056
480
64
1376
512
-304
-1072
-1856
-576
-1568
-288
-1152
-688
-16
0
16
112
704
832
1856
1072
496
80
1424
544
-256
-1040
-1808
-496
-1488
-256
-1264
-768
-16
0
16
96
656
720
1904
1136
528
112
1472
592
-224
-1008
-1776
-464
-1440
-256
-1360
-848
-16
0
16
96
608
608
1920
1168
560
144
1520
624
-176
-976
-1744
-416
-1376
-224
-1472
-944
-16
0
0
80
560
496
1920
1184
560
144
1536
656
-144
-928
-1696
-368
-1312
-208
-1568
-1056
-32
0
0
80
512
384
1968
1264
624
192
1584
704
-128
-912
-1680
-384
-1312
-224
-1696
-1168
-32
0
0
64
480
256
1952
1280
624
192
1616
736
-96
-880
-1648
-320
-1248
-176
-1760
-1280
-48
0
0
64
432
144
1952
1328
656
224
1648
784
-48
-864
-1600
-304
-1216
-176
-1840
-1376
-48
0
0
64
400
32
1904
1344
672
240
1696
816
-16
-816
-1568
-288
-1184
-176
-1968
-1536
-64
0
0
48
368
1968
1920
1392
688
256
1712
848
16
-816
-1552
-240
-1104
-96
-1984
-1632
-80
0
0
48
336
1856
1888
1440
720
272
1744
880
48
-768
-1520
-208
-1056
-64
-16
-1760
-112
0
0
48
320
1744
1856
1488
752
288
1792
928
96
-720
-1472
-160
-1008
-16
-48
-1872
-128
0
0
48
288
1632
1792
1488
752
288
1808
960
128
-688
-1424
-112
-944
-2000
-64
-2000
-160
0
0
32
272
1520
1744
1536
784
320
1856
1024
176
-640
-1392
-112
-944
-2016
-160
-96
-192
0
0
32
240
1424
1696
1600
816
336
1888
1056
208
-608
-1360
-48
-832
-1920
-176
-208
-224
0
0
32
224
1328
1632
1632
864
352
1936
1104
256
-560
-1312
-32
-816
-1888
-208
-336
-256
0
0
32
208
1248
1568
1696
880
368
1952
1152
304
-528
-1280
-2048
-784
-1856
-256
-480
-304
0
0
32
192
1152
1504
1760
944
416
2000
1184
336
-480
-1248
-2032
-752
-1824
-272
-576
-352
0
0
16
176
1072
1392
1776
960
416
2016
1232
384
-448
-1216
-2000
-688
-1744
-272
-704
-400
0
0
16
160
992
1312
1824
992
448
0
1264
416
-416
-1184
-1968
-688
-1728
-304
-832
-464
0
0
16
144
928
1232
1872
1024
448
16
1296
432
-384
-1168
-1936
-656
-1680
-304
-944
-544
-16
0
16
144
848
1120
1904
1072
480
48
1344
480
-352
-1120
-1888
-576
-1584
-272
-1056
-608
-16
0
16
128
784
1008
1920
1088
496
64
1376
512
-304
-1088
-1872
-560
-1552
-272
-1152
-672
-16
0
16
112
720
896
1952
1136
544
112
1424
560
-272
-1056
-1824
-512
-1504
-256
-1264
-752
-16
0
16
112
672
768
1952
1152
544
112
1456
592
-224
-1008
-1776
-464
-1440
-240
-1360
-848
-16
0
16
96
624
656
1984
1216
576
160
1504
624
-192
-992
-1760
-448
-1392
-240
-1456
-944
-16
0
16
96
576
544
2000
1248
608
176
1568
672
-160
-960
-1728
-416
-1360
-224
-1568
-1040
-32
0
0
80
528
416
2000
1280
624
208
1600
704
-112
-928
-1680
-384
-1328
-224
-1648
-1136
-32
0
0
80
480
288
1984
1312
640
208
1632
752
-80
-896
-1648
-368
-1296
-224
-1760
-1264
-48
0
0
64
448
176
1984
1344
672
240
1680
784
-48
-864
-1616
-320
-1232
-176
-1824
-1376
-48
0
0
64
416
48
1968
1392
688
256
1712
832
0
-816
-1568
-272
-1152
-128
-1888
-1472
-64
0
0
64
384
1984
1952
1440
736
272
1744
880
48
-768
-1536
-240
-1104
-80
-1968
-1616
-80
0
0
48
352
1872
1920
1488
752
288
1792
912
80
-752
-1504
-224
-1088
-80
-2032
-1728
-96
0
0
48
320
1760
1872
1504
768
304
1824
944
112
-704
-1456
-192
-1040
-32
-32
-1856
-128
0
0
48
304
1648
1824
1536
784
304
1840
992
144
-672
-1424
-128
-960
-2016
-80
-1984
-144
0
0
32
272
1536
1760
1584
832
336
1872
1024
176
-640
-1392
-112
-928
-1984
-112
-48
-176
0
0
32
256
1440
1712
1632
864
352
1904
1072
224
-592
-1360
-96
-912
-1984
-224
-224
-224
0
0
32
224
1344
1648
1664
880
368
1936
1088
240
-592
-1344
-80
-896
-1952
-256
-336
-256
0
0
32
208
1248
1552
1680
896
384
1952
1136
272
-544
-1312
-64
-880
-1952
-320
-496
-304
0
0
32
192
1168
1472
1728
928
400
1984
1168
304
-512
-1280
-16
-800
-1872
-320
-640
-368
0
0
16
176
1088
1392
1776
960
416
2016
1216
352
-480
-1248
-2032
-752
-1824
-336
-736
-416
0
0
16
160
1008
1312
1808
992
432
0
1248
400
-432
-1216
-1984
-704
-1760
-352
-880
-480
0
0
16
160
928
1216
1872
1040
464
16
1280
416
-416
-1184
-1968
-672
-1712
-352
-976
-544
-16
0
16
144
864
1104
1888
1056
496
64
1344
464
-368
-1152
-1936
-656
-1696
-368
-1120
-624
-16
0
16
128
800
1008
1904
1088
496
64
1376
496
-336
-1120
-1888
-576
-1584
-336
-1216
-704
-16
0
16
112
736
896
1952
1152
560
112
1440
544
-288
-1088
-1840
-528
-1536
-320
-1328
-800
-16
0
16
112
672
784
1984
1184
560
144
1488
592
-240
-1040
-1808
-464
-1440
-272
-1424
-880
-16
0
16
96
624
672
2016
1232
592
160
1520
640
-192
-1008
-1776
-448
-1424
-272
-1504
-960
-16
0
16
96
576
544
2016
1248
624
192
1568
672
-160
-976
-1744
-448
-1424
-304
-1648
-1088
-32
0
0
80
528
432
2016
1280
624
208
1600
704
-128
-944
-1712
-416
-1376
-288
-1728
-1200
-32
0
0
80
496
304
2032
1328
656
224
1632
752
-80
-912
-1680
-384
-1312
-256
-1808
-1296
-48
0
0
64
448
176
2016
1376
672
240
1664
784
-32
-864
-1632
-320
-1232
-208
-1904
-1424
-64
0
0
64
416
64
2016
1424
720
256
1712
832
-16
-832
-1584
-288
-1168
-144
-1936
-1520
-64
0
0
64
384
2000
1984
1472
752
304
1760
880
32
-784
-1552
-256
-1136
-128
-2032
-1648
-80
0
0
48
352
1872
1952
1504
768
320
1792
912
64
-768
-1520
-224
-1104
-112
-32
-1792
-112
0
0
48
320
1760
1904
1536
784
320
1824
960
112
-720
-1472
-192
-1040
-64
-96
-1904
-128
0
0
48
304
1648
1872
1600
832
336
1856
992
144
-688
-1440
-144
-976
-2048
-128
-2032
-160
0
0
48
272
1552
1824
1648
864
368
1904
1040
192
-656
-1408
-128
-944
-2016
-160
-96
-192
0
0
32
256
1440
1760
1680
896
400
1936
1088
224
-608
-1376
-112
-912
-1968
-208
-240
-224
0
0
32
240
1344
1680
1728
912
400
1968
1120
256
-576
-1328
-80
-880
-1952
-272
-384
-272
0
0
32
208
1248
1600
1776
960
416
2000
1168
288
-544
-1312
-48
-832
-1904
-304
-512
-320
0
0
32
192
1168
1504
1792
976
448
2032
1216
336
-496
-1280
-16
-768
-1840
-304
-656
-368
0
0
32
176
1088
1424
1856
1008
448
0
1248
368
-480
-1248
-2032
-736
-1776
-304
-736
-416
0
0
16
160
1008
1328
1872
1056
480
32
1296
416
-432
-1216
-1984
-688
-1728
-304
-880
-496
0
0
16
160
928
1216
1904
1072
496
64
1344
464
-384
-1168
-1952
-640
-1664
-288
-976
-560
-16
0
16
144
864
1120
1936
1104
528
80
1392
512
-336
-1136
-1920
-624
-1648
-336
-1120
-640
-16
0
16
128
800
1008
1968
1152
544
112
1424
544
-288
-1088
-1872
-560
-1568
-320
-1232
-720
-16
0
16
112
736
880
2000
1184
560
128
1456
592
-240
-1056
-1840
-528
-1520
-304
-1312
-800
-16
0
16
112
672
768
2032
1232
608
160
1504
624
-208
-1024
-1808
-528
-1504
-320
-1440
-896
-16
0
16
96
624
640
2016
1248
608
176
1536
656
-176
-992
-1776
-480
-1456
-320
-1568
-1008
-16
0
16
96
576
528
2032
1280
624
192
1568
688
-144
-960
-1744
-464
-1424
-304
-1648
-1104
-32
0
0
80
528
400
2032
1312
640
208
1616
720
-112
-928
-1712
-416
-1360
-272
-1760
-1232
-32
0
0
80
480
288
0
1376
688
240
1648
752
-64
-896
-1664
-384
-1312
-256
-1840
-1328
-48
0
0
64
448
160
0
1424
720
256
1680
784
-48
-864
-1632
-336
-1232
-192
-1904
-1440
-64
0
0
64
416
32
2000
1440
720
272
1712
832
-16
-832
-1600
-320
-1200
-160
-1952
-1568
-80
0
0
64
384
1968
1968
1472
752
288
1744
864
32
-800
-1568
-288
-1152
-160
-2048
-1696
-96
0
0
48
352
1856
1936
1520
784
304
1776
912
48
-752
-1520
-240
-1088
-112
-80
-1840
-112
0
0
48
320
1744
1904
1568
816
336
1824
944
96
-736
-1472
-192
-1040
-64
-128
-1952
-144
0
0
48
304
1632
1872
1632
880
368
1872
1008
128
-704
-1456
-192
-1008
-16
-176
-32
-176
0
0
48
272
1520
1808
1664
880
384
1888
1040
176
-656
-1424
-144
-960
-2032
-208
-160
-208
0
0
32
256
1424
1728
1696
912
400
1920
1072
208
-640
-1392
-128
-944
-2016
-272
-304
-240
0
0
32
240
1328
1648
1712
928
416
1952
1120
240
-592
-1344
-80
-880
-1936
-288
-448
-288
0
0
32
208
1232
1584
1776
976
448
1984
1168
288
-560
-1328
-48
-832
-1888
-288
-544
-336
0
0
32
192
1152
1504
1824
1008
464
2032
1216
336
-528
-1296
-16
-768
-1824
-320
-688
-384
0
0
32
176
1056
1424
1872
1056
496
16
1264
384
-480
-1264
-2048
-768
-1808
-352
-816
-464
0
0
16
160
992
1312
1920
1088
528
64
1312
432
-432
-1232
-2016
-736
-1792
-400
-976
-528
-16
0
16
160
912
1200
1952
1120
544
96
1376
480
-384
-1200
-1984
-688
-1728
-400
-1104
-608
-16
0
16
144
848
1104
1984
1152
560
128
1408
528
-336
-1152
-1968
-688
-1728
-432
-1232
-688
-16
0
16
128
784
992
2032
1216
608
176
1472
592
-272
-1104
-1920
-640
-1664
-448
-1392
-800
-16
0
16
112
720
896
64
1280
640
208
1504
608
-240
-1072
-1872
-592
-1600
-432
-1488
-896
-16
0
16
112
656
768
48
1312
672
240
1568
672
-208
-1056
-1856
-608
-1616
-464
-1616
-992
-16
0
16
96
608
640
80
1344
672
240
1600
704
-160
-1008
-1824
-576
-1584
-496
-1776
-1120
-32
0
16
96
560
512
96
1392
720
272
1632
736
-128
-976
-1776
-512
-1504
-448
-1856
-1232
-32
0
0
80
512
400
112
1456
768
320
1680
784
-80
-928
-1728
-464
-1424
-400
-1968
-1360
-48
0
0
80
480
272
144
1536
816
352
1728
832
-32
-896
-1712
-448
-1408
-384
-2016
-1472
-64
0
0
64
448
144
112
1552
816
368
1808
912
48
-816
-1632
-432
-1392
-432
-144
-1664
-80
0
0
64
400
16
80
1584
848
400
1840
944
80
-784
-1600
-384
-1328
-384
-240
-1792
-96
0
0
64
368
1936
16
1616
864
400
1840
976
112
-752
-1552
-352
-1264
-320
-272
-1904
-128
0
0
48
352
1824
2032
1664
896
432
1904
1024
160
-704
-1520
-304
-1216
-288
-336
-16
-160
0
0
48
320
1712
2016
1744
928
448
1920
1056
192
-672
-1488
-272
-1168
-240
-384
-176
-192
0
0
48
288
1600
1952
1808
992
480
1984
1104
224
-656
-1456
-240
-1120
-192
-432
-288
-224
0
0
48
272
1488
1888
1856
1024
480
2000
1136
256
-592
-1408
-208
-1056
-144
-464
-432
-272
0
0
32
256
1392
1808
1920
1072
528
0
1184
304
-576
-1376
-160
-992
-80
-464
-528
-304
0
0
32
224
1296
1728
1952
1120
560
48
1248
352
-512
-1328
-96
-928
-2032
-496
-704
-368
0
0
32
208
1200
1664
0
1184
608
96
1280
384
-480
-1296
-64
-864
-1968
-480
-816
-432
0
0
32
192
1104
1568
64
1232
624
112
1328
416
-464
-1280
-32
-832
-1904
-480
-928
-480
0
0
32
176
1024
1456
96
1264
656
160
1360
464
-416
-1232
-2048
-784
-1856
-496
-1056
-560
-16
0
16
160
944
1328
112
1296
672
176
1392
496
-384
-1200
-1984
-720
-1776
-480
-1168
-640
-16
0
16
144
880
1200
128
1328
704
224
1456
544
-336
-1168
-1984
-720
-1776
-528
-1344
-720
-16
0
16
144
816
1088
176
1376
720
240
1488
576
-304
-1136
-1936
-672
-1712
-496
-1456
-832
-16
0
16
128
752
960
192
1408
752
272
1536
608
-272
-1120
-1920
-672
-1696
-528
-1584
-928
-16
0
16
112
688
816
192
1440
768
304
1600
672
-224
-1072
-1872
-592
-1600
-496
-1712
-1056
-32
0
16
112
640
688
224
1504
816
352
1632
704
-192
-1056
-1856
-608
-1600
-512
-1808
-1168
-32
0
16
96
592
544
224
1536
848
368
1696
752
-144
-1024
-1808
-544
-1504
-448
-1904
-1280
-48
0
16
96
544
416
208
1568
880
416
1744
800
-96
-976
-1776
-512
-1472
-448
-2016
-1424
-48
0
0
80
496
288
208
1632
912
432
1792
848
-48
-944
-1744
-496
-1440
-432
-48
-1552
-64
0
0
80
464
144
160
1664
928
464
1856
912
0
-880
-1696
-464
-1408
-416
-176
-1712
-96
0
0
64
416
16
160
1712
960
464
1872
944
48
-864
-1664
-432
-1344
-368
-208
-1824
-112
0
0
64
384
1936
96
1760
1008
512
1936
1008
80
-816
-1632
-400
-1296
-336
-288
-1968
-128
0
0
64
352
1824
48
1792
1008
512
1968
1056
144
-768
-1584
-368
-1248
-304
-352
-80
-176
0
0
48
336
1696
0
1856
1056
544
2016
1104
192
-736
-1552
-336
-1216
-272
-432
-224
-208
0
0
48
304
1584
1968
1888
1072
544
0
1152
240
-672
-1504
-288
-1152
-208
-464
-368
-240
0
0
48
288
1472
1888
1904
1088
560
32
1184
288
-624
-1456
-240
-1104
-192
-528
-512
-288
0
0
32
256
1376
1824
2000
1152
608
64
1248
336
-576
-1424
-208
-1056
-144
-576
-688
-352
0
0
32
240
1280
1728
2016
1168
608
112
1280
368
-528
-1376
-160
-992
-64
-576
-816
-416
0
0
32
224
1184
1632
48
1216
624
128
1328
416
-480
-1328
-128
-976
-48
-624
-960
-480
0
0
32
208
1104
1520
80
1232
640
160
1360
448
-432
-1280
-80
-896
-2016
-624
-1120
-560
0
0
32
192
1008
1408
112
1264
656
176
1408
496
-384
-1232
-48
-864
-1952
-624
-1216
-640
-16
0
16
176
944
1280
128
1312
688
208
1456
544
-336
-1184
-2032
-816
-1904
-640
-1392
-736
-16
0
16
160
864
1152
160
1328
704
224
1488
576
-304
-1152
-2000
-768
-1856
-656
-1520
-848
-16
0
16
144
800
1024
208
1376
720
256
1536
608
-272
-1120
-1952
-720
-1776
-608
-1616
-928
-16
0
16
128
736
896
240
1424
736
272
1568
656
-224
-1072
-1904
-672
-1728
-592
-1728
-1040
-16
0
16
128
672
768
256
1488
784
304
1600
688
-192
-1040
-1856
-624
-1648
-576
-1840
-1152
-32
0
16
112
624
624
272
1536
832
336
1664
736
-144
-1008
-1824
-592
-1584
-528
-1936
-1280
-32
0
16
96
576
496
272
1584
864
368
1712
784
-112
-960
-1776
-544
-1520
-512
-2032
-1408
-48
0
16
96
528
352
288
1680
912
400
1760
832
-64
-944
-1744
-512
-1456
-464
-48
-1520
-64
0
16
80
496
224
272
1728
944
448
1808
880
-32
-896
-1712
-480
-1424
-448
-176
-1664
-80
0
0
80
448
96
240
1760
976
464
1856
928
16
-864
-1680
-464
-1392
-432
-256
-1808
-112
0
0
80
416
2000
176
1808
1008
496
1904
976
64
-832
-1632
-432
-1344
-400
-336
-1968
-128
0
0
64
384
1872
144
1872
1072
544
1968
1040
112
-800
-1616
-384
-1280
-336
-384
-80
-160
0
0
64
352
1760
80
1936
1104
560
2016
1088
160
-752
-1568
-352
-1216
-288
-432
-208
-192
0
0
48
320
1648
32
1984
1136
592
0
1152
208
-704
-1520
-320
-1168
-240
-496
-368
-240
0
0
48
304
1520
1984
2032
1168
624
64
1184
256
-672
-1504
-304
-1152
-208
-544
-496
-288
0
0
48
272
1424
1872
0
1200
656
96
1248
320
-608
-1440
-256
-1104
-176
-576
-672
-336
0
0
48
256
1328
1792
64
1248
672
144
1312
368
-560
-1408
-224
-1056
-128
-624
-832
-416
0
0
32
240
1216
1696
112
1296
704
176
1344
400
-512
-1376
-176
-1008
-64
-624
-960
-480
0
0
32
224
1136
1584
160
1328
720
208
1408
448
-464
-1328
-128
-976
-32
-672
-1120
-544
0
0
32
192
1040
1456
176
1344
736
240
1440
496
-416
-1280
-80
-912
-2016
-656
-1232
-640
-16
0
32
176
976
1328
192
1376
768
272
1488
544
-368
-1232
-48
-864
-1952
-656
-1376
-720
-16
0
32
176
896
1200
224
1408
768
288
1520
576
-336
-1216
-16
-832
-1920
-672
-1520
-832
-16
0
16
160
832
1072
256
1440
784
320
1568
624
-288
-1168
-2000
-768
-1824
-624
-1616
-912
-16
0
16
144
768
928
256
1472
800
352
1616
688
-224
-1104
-1952
-736
-1776
-640
-1760
-1040
-16
0
16
128
704
800
304
1552
848
368
1664
720
-176
-1072
-1904
-672
-1712
-608
-1872
-1152
-32
0
16
112
640
656
288
1568
864
400
1712
768
-144
-1040
-1888
-704
-1728
-656
-2016
-1312
-48
0
16
112
592
512
272
1600
880
416
1744
800
-112
-1008
-1856
-640
-1648
-624
-64
-1440
-48
0
16
96
544
384
256
1648
912
432
1792
848
-64
-960
-1792
-608
-1584
-592
-144
-1568
-64
0
16
96
512
240
256
1712
944
464
1824
880
-32
-928
-1760
-560
-1520
-560
-256
-1728
-96
0
16
80
464
112
224
1744
960
464
1856
928
16
-880
-1712
-512
-1456
-496
-288
-1840
-112
0
16
80
432
2032
176
1792
992
496
1904
976
64
-832
-1648
-464
-1392
-464
-384
-2016
-144
0
0
64
400
1904
128
1840
1024
512
1952
1024
112
-784
-1632
-432
-1344
-448
-480
-144
-176
0
0
64
368
1776
80
1904
1072
544
1984
1056
128
-784
-1600
-400
-1312
-384
-496
-240
-208
0
0
64
336
1664
16
1936
1072
544
2016
1120
192
-720
-1552
-336
-1216
-304
-544
-384
-240
0
0
48
304
1552
2000
2016
1136
560
0
1152
240
-672
-1504
-288
-1136
-224
-560
-528
-288
0
0
48
288
1440
1904
32
1200
624
64
1216
288
-624
-1456
-240
-1088
-176
-592
-688
-352
0
0
48
256
1328
1808
48
1216
640
96
1264
336
-576
-1408
-192
-1040
-128
-624
-848
-416
0
0
48
240
1232
1712
112
1280
672
144
1328
384
-528
-1376
-160
-976
-64
-624
-944
-480
0
0
32
224
1152
1584
144
1296
688
176
1376
432
-464
-1312
-112
-944
-2048
-672
-1120
-560
0
0
32
208
1056
1488
208
1360
720
224
1408
480
-432
-1280
-80
-896
-2000
-672
-1248
-640
-16
0
32
192
976
1360
224
1408
752
272
1488
544
-368
-1232
-32
-848
-1936
-672
-1408
-736
-16
0
32
176
912
1232
272
1456
784
304
1536
592
-320
-1200
-16
-832
-1904
-704
-1552
-848
-16
0
32
160
832
1088
304
1504
832
336
1584
640
-288
-1168
-2016
-784
-1856
-688
-1664
-944
-16
0
16
144
768
960
336
1536
848
368
1648
688
-224
-1104
-1968
-768
-1808
-672
-1792
-1056
-16
0
16
128
704
816
336
1584
864
384
1664
720
-192
-1072
-1920
-704
-1728
-656
-1904
-1184
-32
0
16
128
656
688
368
1664
944
448
1744
784
-144
-1056
-1888
-688
-1680
-624
-2016
-1312
-48
0
16
112
608
544
336
1664
944
464
1792
832
-80
-1008
-1856
-656
-1648
-640
-96
-1472
-64
0
16
112
560
400
336
1744
992
496
1824
880
-48
-976
-1808
-608
-1584
-592
-160
-1568
-64
0
16
96
512
256
288
1760
992
496
1872
928
0
-912
-1744
-512
-1488
-560
-288
-1744
-96
0
16
80
480
128
288
1840
1056
544
1920
960
32
-896
-1728
-528
-1472
-528
-336
-1872
-112
0
16
80
432
2032
240
1872
1072
560
1952
1024
96
-832
-1680
-480
-1392
-464
-400
-2016
-144
0
0
80
400
1904
192
1936
1104
576
2000
1056
144
-784
-1632
-432
-1344
-432
-480
-144
-176
0
0
64
368
1776
128
2000
1152
608
0
1104
176
-752
-1584
-400
-1296
-384
-528
-272
-208
0
0
64
336
1664
64
0
1184
640
48
1168
208
-704
-1536
-368
-1248
-352
-608
-448
-256
0
0
64
320
1552
2016
32
1200
640
64
1200
256
-656
-1504
-304
-1168
-240
-592
-576
-304
0
0
48
288
1440
1920
96
1264
672
112
1248
304
-608
-1456
-256
-1104
-176
-608
-720
-368
0
0
48
272
1328
1824
144
1296
704
144
1296
336
-560
-1424
-224
-1056
-128
-656
-896
-432
0
0
48
240
1232
1712
160
1328
720
208
1360
384
-528
-1376
-192
-1024
-80
-672
-1024
-496
0
0
32
224
1152
1600
208
1360
736
224
1408
448
-464
-1312
-112
-944
-2048
-688
-1184
-576
0
0
32
208
1056
1472
240
1408
768
272
1456
496
-432
-1296
-96
-896
-2000
-672
-1296
-672
-16
0
32
192
976
1360
288
1472
816
320
1520
560
-368
-1248
-48
-880
-1968
-720
-1472
-768
-16
0
32
176
896
1232
352
1536
848
352
1552
592
-336
-1216
-16
-816
-1888
-688
-1600
-880
-16
0
32
160
832
1072
320
1536
864
384
1632
656
-272
-1168
-2016
-784
-1856
-704
-1696
-992
-16
0
16
144
768
944
368
1600
896
416
1664
704
-224
-1120
-1984
-768
-1824
-720
-1856
-1104
-32
0
16
144
704
800
368
1632
912
432
1712
752
-176
-1072
-1920
-704
-1744
-688
-1952
-1232
-32
0
16
128
656
656
368
1680
960
480
1776
800
-128
-1040
-1888
-672
-1680
-640
-2048
-1360
-48
0
16
112
608
528
384
1728
976
480
1808
864
-64
-992
-1840
-624
-1616
-624
-112
-1504
-64
0
16
112
560
384
352
1760
1008
512
1856
896
-16
-944
-1808
-608
-1584
-576
-176
-1616
-80
0
16
96
512
240
304
1776
1024
528
1904
960
32
-896
-1760
-576
-1552
-608
-320
-1776
-96
0
16
96
480
96
272
1824
1040
528
1936
992
80
-864
-1712
-528
-1472
-528
-368
-1920
-128
0
16
80
432
2016
224
1872
1072
544
1968
1040
128
-800
-1664
-480
-1392
-464
-432
-32
-160
0
16
80
400
1888
176
1936
1120
592
2000
1072
160
-752
-1616
-432
-1328
-432
-528
-224
-192
0
0
64
368
1760
112
2000
1168
624
16
1136
208
-736
-1584
-384
-1280
-368
-544
-320
-224
0
0
64
336
1648
32
2032
1184
624
64
1184
256
-656
-1536
-368
-1248
-368
-624
-496
-272
0
0
64
320
1520
2000
32
1200
640
64
1216
288
-624
-1488
-320
-1216
-320
-688
-656
-336
0
0
48
288
1424
1904
96
1264
688
128
1264
336
-592
-1440
-272
-1120
-192
-656
-768
-384
0
0
48
272
1312
1808
160
1296
688
144
1312
384
-528
-1408
-224
-1088
-176
-720
-944
-448
0
0
48
240
1216
1696
208
1360
736
192
1360
416
-496
-1360
-192
-1024
-112
-720
-1088
-528
0
0
32
224
1120
1584
240
1392
752
240
1424
464
-448
-1312
-128
-960
-48
-752
-1248
-624
0
0
32
208
1040
1456
272
1440
784
288
1456
512
-416
-1280
-112
-960
-32
-800
-1408
-704
-16
0
32
192
960
1312
320
1488
816
320
1520
544
-384
-1248
-80
-944
-2032
-816
-1552
-816
-16
0
32
176
880
1184
352
1520
832
352
1568
592
-336
-1216
-32
-880
-1952
-784
-1696
-928
-16
0
32
160
816
1056
384
1600
880
368
1616
640
-288
-1168
-2016
-784
-1824
-720
-1760
-1024
-16
0
16
144
752
912
384
1632
928
432
1680
688
-240
-1136
-1984
-784
-1824
-752
-1936
-1152
-32
0
16
144
704
752
368
1648
912
432
1712
736
-208
-1104
-1952
-784
-1824
-768
-2048
-1280
-32
0
16
128
640
608
352
1680
944
464
1760
784
-144
-1056
-1904
-736
-1760
-752
-128
-1424
-48
0
16
112
592
480
368
1744
976
480
1792
832
-112
-1024
-1872
-672
-1664
-704
-256
-1600
-64
0
16
112
544
336
352
1808
1024
528
1856
880
-64
-992
-1824
-640
-1616
-656
-320
-1728
-80
0
16
96
496
192
304
1840
1056
544
1920
944
0
-944
-1792
-592
-1552
-624
-416
-1888
-112
0
16
96
464
64
272
1872
1072
560
1952
992
48
-896
-1760
-560
-1520
-576
-464
-2032
-144
0
16
80
432
1968
240
1936
1120
592
2000
1040
96
-848
-1712
-528
-1456
-544
-560
-144
-176
0
16
80
400
1840
176
1984
1136
608
2032
1088
144
-784
-1648
-448
-1376
-480
-608
-320
-224
0
0
64
368
1728
112
16
1216
640
32
1152
208
-736
-1600
-400
-1280
-384
-624
-448
-256
0
0
64
336
1600
32
64
1232
672
96
1216
256
-672
-1552
-352
-1216
-336
-672
-624
-304
0
0
64
304
1488
1984
96
1264
688
128
1264
320
-624
-1504
-320
-1184
-288
-704
-752
-368
0
0
48
288
1376
1888
128
1296
704
160
1312
368
-560
-1440
-272
-1136
-240
-752
-912
-432
0
0
48
256
1280
1776
192
1344
736
192
1360
416
-512
-1408
-208
-1040
-128
-736
-1072
-512
0
0
48
240
1184
1680
256
1408
768
240
1408
464
-464
-1344
-160
-976
-48
-704
-1184
-592
0
0
32
224
1104
1568
320
1440
784
272
1472
512
-416
-1312
-128
-960
-16
-768
-1328
-672
-16
0
32
208
1008
1424
336
1488
816
304
1504
560
-368
-1264
-80
-896
-2000
-736
-1440
-768
-16
0
32
192
944
1280
352
1520
848
352
1568
608
-320
-1216
-48
-864
-1936
-736
-1584
-864
-16
0
32
176
864
1152
384
1568
864
368
1600
656
-272
-1184
-2032
-816
-1872
-736
-1728
-992
-16
0
32
160
800
1008
432
1632
912
400
1648
688
-240
-1152
-2000
-784
-1808
-688
-1808
-1072
-32
0
16
144
736
848
416
1664
928
448
1712
736
-176
-1088
-1936
-720
-1744
-672
-1936
-1216
-32
0
16
128
672
704
416
1712
976
480
1760
784
-144
-1056
-1920
-720
-1744
-704
-16
-1344
-48
0
16
128
624
560
384
1728
992
496
1808
832
-96
-1008
-1872
-688
-1680
-672
-128
-1488
-64
0
16
112
576
416
400
1808
1024
528
1856
880
-48
-960
-1824
-624
-1600
-608
-224
-1632
-80
0
16
96
528
272
384
1872
1072
544
1904
928
0
-928
-1776
-560
-1504
-544
-256
-1744
-96
0
16
96
496
128
336
1920
1104
576
1952
992
48
-864
-1712
-528
-1472
-528
-384
-1920
-112
0
16
80
448
0
272
1968
1152
608
2000
1040
96
-832
-1680
-496
-1408
-496
-432
-2048
-144
0
16
80
416
1920
208
1984
1168
640
16
1104
144
-784
-1632
-448
-1376
-464
-512
-176
-176
0
16
80
384
1792
160
16
1216
656
48
1136
192
-736
-1600
-400
-1296
-400
-576
-352
-224
0
0
64
352
1664
80
64
1248
672
80
1184
240
-688
-1552
-384
-1280
-368
-624
-480
-272
0
0
64
320
1552
2032
80
1264
688
128
1248
288
-640
-1504
-320
-1184
-288
-672
-640
-320
0
0
48
304
1440
1936
112
1280
688
144
1280
320
-608
-1472
-288
-1152
-256
-704
-800
-384
0
0
48
272
1328
1824
160
1344
736
192
1344
368
-560
-1424
-240
-1104
-192
-736
-960
-464
0
0
48
256
1232
1712
224
1376
752
224
1392
432
-496
-1376
-192
-1040
-128
-768
-1136
-544
0
0
48
240
1152
1600
272
1424
784
272
1440
480
-448
-1344
-144
-976
-64
-768
-1264
-624
0
0
32
208
1056
1472
304
1472
816
304
1504
528
-400
-1296
-112
-944
-16
-784
-1440
-720
-16
0
32
192
976
1360
352
1504
832
336
1552
576
-352
-1248
-64
-896
-2016
-784
-1568
-832
-16
0
32
176
896
1216
384
1552
880
368
1600
624
-304
-1200
-32
-848
-1952
-784
-1712
-928
-16
0
32
160
832
1072
384
1584
896
400
1632
672
-256
-1152
-2032
-816
-1904
-784
-1872
-1072
-16
0
32
160
768
928
416
1632
928
432
1680
704
-224
-1136
-2000
-784
-1840
-752
-1936
-1168
-32
0
16
144
704
784
416
1664
928
432
1728
768
-176
-1088
-1936
-736
-1760
-752
-48
-1312
-48
0
16
128
656
640
432
1728
976
480
1776
800
-128
-1056
-1904
-688
-1696
-704
-96
-1440
-48
0
16
112
608
480
384
1744
992
496
1824
864
-64
-976
-1840
-624
-1632
-672
-224
-1600
-64
0
16
112
560
336
384
1824
1040
528
1872
912
-16
-960
-1808
-592
-1568
-624
-304
-1728
-96
0
16
96
512
208
352
1872
1072
560
1920
976
32
-912
-1760
-560
-1504
-560
-352
-1856
-112
0
16
96
464
64
320
1920
1104
576
1968
1024
80
-848
-1712
-528
-1472
-544
-464
-2032
-144
0
16
80
432
1984
272
1984
1136
592
1984
1056
128
-816
-1664
-480
-1408
-480
-480
-96
-176
0
16
80
400
1840
192
2016
1184
624
0
1104
176
-752
-1616
-432
-1328
-400
-528
-256
-208
0
16
64
368
1728
128
16
1200
640
32
1152
224
-704
-1568
-400
-1280
-368
-608
-416
-256
0
0
64
336
1600
48
96
1264
672
80
1200
256
-672
-1520
-352
-1216
-288
-592
-544
-304
0
0
64
320
1488
2000
128
1280
704
128
1248
304
-608
-1472
-304
-1168
-240
-656
-704
-352
0
0
48
288
1376
1872
160
1328
720
160
1296
352
-576
-1440
-272
-1136
-208
-704
-864
-416
0
0
48
272
1280
1760
208
1360
752
208
1360
400
-528
-1392
-240
-1104
-160
-720
-1008
-496
0
0
48
240
1184
1648
240
1392
768
240
1392
432
-480
-1360
-176
-1024
-80
-720
-1152
-560
0
0
48
224
1088
1520
272
1440
784
272
1456
480
-448
-1312
-128
-960
-16
-720
-1280
-656
-16
0
32
208
1008
1376
288
1472
832
320
1520
528
-400
-1280
-96
-928
-2000
-720
-1440
-752
-16
0
32
192
928
1264
336
1520
848
352
1568
592
-352
-1232
-32
-880
-1952
-720
-1552
-848
-16
0
32
176
864
1104
352
1568
896
400
1632
640
-288
-1184
-16
-848
-1904
-752
-1712
-976
-16
0
32
160
800
976
352
1600
896
400
1648
672
-256
-1152
-2016
-800
-1840
-720
-1856
-1104
-32
0
32
144
736
832
384
1664
944
448
1712
736
-208
-1120
-1984
-768
-1808
-720
-1936
-1200
-32
0
16
144
672
688
368
1664
928
448
1744
784
-160
-1056
-1936
-736
-1760
-720
-64
-1344
-48
0
16
128
624
544
352
1728
976
496
1792
816
-128
-1040
-1904
-704
-1712
-720
-144
-1488
-64
0
16
112
576
400
320
1744
992
496
1840
864
-64
-992
-1856
-656
-1648
-672
-256
-1632
-80
0
16
112
528
256
304
1792
1024
512
1872
912
-16
-944
-1792
-592
-1568
-624
-352
-1792
-96
0
16
96
496
128
272
1840
1056
528
1904
960
32
-896
-1744
-560
