288
192
80
-48
-128
-192
-256
-320
-400
-416
-352
-240
-96
80
288
528
656
624
480
400
336
240
128
16
-80
-192
-272
-352
-432
-432
-336
-224
-128
16
208
432
608
608
448
352
320
240
160
64
-48
-176
-272
-352
-400
-368
-272
-176
-96
48
240
464
608
576
416
320
288
256
160
48
-80
-240
-352
-400
-432
-416
-352
-240
-128
32
256
480
624
592
416
352
352
336
240
96
-48
-192
-304
-384
-448
-464
-384
-272
-128
32
240
432
544
496
352
304
304
272
176
80
-48
-160
-256
-336
-432
-464
-400
-256
-96
64
240
432
576
576
400
304
272
224
144
64
-48
-160
-304
-432
-544
-560
-448
-304
-144
16
208
432
576
608
448
320
272
240
192
144
32
-96
-240
-368
-464
-512
-448
-320
-192
-32
192
432
592
608
400
240
192
192
144
96
-16
-144
-240
-352
-416
-464
-432
-336
-208
-16
224
496
656
640
448
288
240
224
160
80
-32
-144
-240
-320
-416
-496
-480
-384
-240
-48
192
432
608
656
480
336
304
256
176
96
16
-64
-112
-208
-336
-432
-432
-336
-192
-32
176
400
576
640
496
352
288
208
112
48
0
-80
-160
-272
-368
-432
-416
-304
-176
-48
160
400
608
720
592
416
336
272
176
112
16
-80
-192
-288
-384
-448
-416
-336
-240
-144
80
352
576
688
544
384
320
272
208
144
16
-96
-192
-272
-320
-368
-368
-320
-240
-112
96
336
544
640
512
352
304
272
192
80
-64
-192
-272
-320
-384
-432
-432
-336
-224
-96
128
352
544
640
544
400
384
336
240
128
0
-112
-208
-304
-384
-448
-448
-336
-208
-80
96
272
464
576
512
384
336
304
224
144
32
-64
-176
-288
-368
-432
-400
-256
-128
-16
144
336
528
640
544
384
320
272
208
144
48
-80
-224
-336
-416
-448
-416
-288
-160
-48
144
352
560
672
576
384
320
320
288
240
128
-16
-144
-256
-336
-400
-384
-304
-192
-64
128
352
544
624
512
320
272
288
256
192
112
0
-112
-208
-288
-384
-400
-336
-192
-16
192
400
576
688
608
432
336
320
272
192
96
-16
-112
-208
-336
-448
-496
-400
-240
-64
128
352
576
704
640
464
368
320
256
192
128
64
-32
-176
-304
-416
-448
-384
-256
-112
64
288
528
672
656
432
304
224
176
144
80
0
-128
-240
-336
-416
-448
-368
-256
-128
64
320
592
752
704
464
320
256
208
144
64
-32
-144
-240
-320
-400
-448
-432
-368
-240
-48
224
480
656
640
448
336
288
240
160
64
-32
-112
-176
-240
-320
-400
-384
-288
-160
16
256
496
656
672
496
368
336
256
128
16
-80
-144
-208
-272
-368
-432
-384
-272
-144
16
240
464
656
720
560
448
368
288
176
64
-32
-128
-208
-304
-384
-416
-352
-240
-144
-32
160
384
608
688
528
400
336
288
208
112
16
-112
-208
-288
-336
-352
-304
-208
-144
-32
160
384
576
640
480
352
304
272
208
96
-32
-176
-288
-352
-400
-416
-368
-288
-176
-48
160
384
576
640
496
384
368
352
288
160
0
-128
-240
-320
-384
-432
-416
-304
-176
-32
160
352
512
576
464
368
352
336
256
160
32
-96
-192
-288
-368
-448
-400
-256
-112
48
208
400
576
640
512
368
320
288
208
128
32
-80
-224
-352
-448
-512
-432
-288
-128
0
192
400
592
672
544
384
320
304
256
224
128
0
-160
-272
-368
-432
-400
-288
-160
-16
176
400
608
672
512
320
256
272
240
192
96
-32
-160
-272
-336
-400
-384
-288
-160
16
240
480
672
720
576
384
336
320
256
192
96
-16
-144
-240
-336
-416
-448
-352
-208
-16
192
432
640
736
624
448
400
368
288
208
128
48
-48
-144
-272
-368
-384
-288
-160
0
192
416
608
720
640
448
352
288
192
128
80
0
-80
-176
-288
-368
-368
-272
-160
-32
160
400
640
784
736
528
400
336
256
176
96
-16
-128
-224
-320
-384
-384
-304
-224
-112
64
320
560
704
656
464
368
336
272
192
80
-32
-144
-208
-272
-320
-336
-320
-224
-96
96
336
560
688
640
448
352
336
256
144
16
-112
-192
-256
-320
-384
-400
-336
-224
-80
112
336
544
688
672
512
432
416
320
192
64
-48
-144
-240
-320
-400
-432
-368
-224
-80
64
256
448
608
640
464
384
352
288
192
96
-16
-112
-224
-320
-384
-384
-288
-144
-32
96
288
496
656
640
464
352
320
272
208
112
-16
-160
-288
-384
-416
-432
-336
-208
-96
64
288
512
672
656
464
352
352
336
288
192
32
-112
-240
-320
-384
-416
-368
-272
-128
48
272
480
624
592
400
304
304
288
224
144
16
-96
-208
-304
-384
-448
-400
-256
-96
96
320
512
656
640
464
352
304
272
208
112
16
-80
-208
-336
-464
-544
-480
-320
-160
16
240
464
640
672
496
368
304
272
208
160
96
0
-160
-304
-432
-496
-448
-320
-192
-48
176
416
608
656
480
304
224
176
160
112
32
-64
-192
-304
-416
-480
-448
-352
-224
-64
192
448
672
720
512
336
272
224
176
96
0
-112
-224
-320
-416
-480
-496
-432
-320
-144
112
384
592
656
496
336
288
256
176
96
-16
-80
-160
-224
-320
-432
-432
-368
-256
-112
112
352
544
624
496
336
272
208
112
16
-64
-112
-192
-256
-336
-432
-432
-352
-224
-80
112
336
560
688
592
448
352
272
176
80
0
-80
-176
-256
-336
-416
-400
-320
-224
-112
48
288
560
688
592
432
352
304
224
160
64
-48
-160
-240
-288
-336
-320
-256
-176
-64
112
352
592
720
624
448
368
336
272
160
16
-112
-240
-288
-336
-384
-368
-288
-176
-48
144
384
624
720
624
464
416
416
336
208
64
-80
-192
-272
-352
-416
-400
-320
-192
-48
128
336
528
624
-352
-432
-432
-352
-224
-96
80
304
528
656
592
368
272
272
256
208
112
-16
-128
-224
-320
-384
-416
-368
-240
-80
112
368
592
688
640
432
336
320
272
192
80
-32
-128
-224
-336
-448
-512
-448
-320
-128
64
304
528
656
640
448
336
304
240
176
96
16
-64
-160
-288
-416
-480
-432
-304
-160
16
240
464
640
656
464
336
256
176
96
64
-32
-112
-240
-352
-432
-464
-400
-272
-160
0
224
480
672
704
496
336
272
208
144
64
-32
-144
-256
-352
-432
-464
-432
-352
-272
-112
144
400
592
640
448
320
272
224
160
64
-48
-160
-224
-288
-336
-400
-400
-336
-224
-80
144
368
544
592
416
304
272
224
112
0
-128
-208
-240
-304
-368
-432
-416
-320
-192
-48
160
368
528
608
480
384
352
272
160
64
-48
-144
-224
-304
-384
-464
-432
-320
-208
-96
80
288
480
592
480
368
320
272
192
96
0
-112
-224
-320
-384
-416
-352
-240
-160
-64
96
304
512
608
480
336
288
256
208
128
0
-144
-304
-416
-464
-512
-464
-352
-240
-112
96
336
560
640
496
352
336
336
288
192
32
-112
-272
-368
-448
-512
-480
-384
-272
-128
96
320
528
592
448
320
288
288
240
144
32
-96
-224
-320
-416
-496
-480
-352
-192
-16
208
400
592
672
528
368
304
272
208
112
16
-80
-208
-336
-448
-544
-512
-352
-192
-32
176
400
608
688
576
416
320
288
240
176
112
16
-128
-256
-384
-464
-448
-336
-208
-64
112
352
560
672
544
352
240
192
176
128
64
-32
-160
-272
-368
-432
-432
-336
-224
-80
144
400
624
720
592
384
288
256
208
144
48
-64
-176
-256
-352
-432
-464
-432
-320
-144
96
352
592
688
608
416
320
288
224
144
48
-32
-112
-160
-256
-368
-400
-352
-240
-96
96
336
544
656
608
432
320
272
160
64
0
-64
-144
-208
-288
-384
-416
-352
-224
-80
80
304
544
704
688
528
400
336
240
144
64
-32
-144
-240
-336
-416
-432
-384
-288
-192
-48
176
464
640
656
464
352
304
240
160
64
-48
-160
-256
-320
-368
-384
-336
-272
-160
-16
208
448
608
608
432
320
288
240
144
16
-128
-256
-304
-368
-416
-432
-384
-288
-160
0
240
480
624
624
464
368
352
304
176
64
-80
-176
-256
-336
-400
-432
-384
-256
-144
16
208
384
528
560
432
352
320
272
176
80
-32
-128
-208
-320
-400
-416
-336
-192
-48
80
256
448
592
624
464
352
320
272
208
112
0
-128
-256
-384
-464
-464
-384
-256
-128
16
224
464
640
672
496
352
320
304
272
208
80
-80
-224
-352
-432
-464
-416
-288
-176
-32
208
416
592
624
416
288
272
272
224
144
16
-96
-224
-336
-416
-464
-448
-336
-176
0
256
480
624
640
464
320
288
256
176
96
-16
-128
-240
-352
-464
-560
-544
-400
-240
-64
176
400
576
640
480
336
288
240
160
112
32
-48
-160
-288
-416
-528
-496
-368
-240
-96
128
352
560
640
496
320
224
160
96
64
-16
-96
-208
-320
-416
-480
-464
-336
-224
-96
128
400
640
736
576
368
288
224
160
96
0
-96
-208
-304
-368
-448
-448
-368
-288
-160
80
352
592
704
560
384
320
288
224
128
16
-80
-176
-240
-288
-368
-400
-336
-224
-96
128
352
576
672
560
400
336
288
192
80
-48
-128
-192
-256
-320
-416
-416
-336
-208
-48
144
352
560
688
624
480
416
336
240
128
16
-80
-176
-272
-352
-432
-432
-336
-208
-96
64
256
480
640
592
432
352
304
240
144
48
-48
-176
-288
-368
-416
-384
-272
-160
-64
80
288
496
624
560
400
320
288
240
160
32
-96
-256
-352
-416
-448
-432
-336
-224
-96
80
304
528
640
576
400
352
352
320
240
96
-48
-192
-304
-384
-464
-464
-384
-272
-128
48
272
464
576
512
352
320
320
272
192
80
-32
-160
-256
-352
-448
-464
-368
-208
-48
144
336
528
640
592
416
336
304
256
176
80
-16
-144
-272
-400
-512
-528
-416
-272
-96
64
288
528
672
656
464
336
304
272
224
160
64
-80
-240
-368
-464
-480
-400
-272
-128
32
272
512
672
640
416
272
224
224
176
112
16
-112
-224
-336
-416
-464
-400
-288
-144
48
320
592
736
688
464
304
272
240
160
80
-32
-144
-224
-320
-400
-480
-464
-368
-208
-16
240
480
640
656
448
320
288
240
160
64
-16
-80
-144
-224
-352
-432
-432
-320
-176
-16
192
416
592
640
464
336
256
176
80
16
-48
-112
-176
-256
-352
-448
-432
-320
-192
-48
160
400
624
720
560
384
304
224
128
64
-32
-128
-208
-304
-384
-432
-416
-336
-240
-144
64
352
560
656
512
368
304
256
192
112
0
-112
-208
-272
-320
-368
-352
-304
-224
-96
128
368
576
672
528
368
320
288
192
80
-64
-176
-256
-304
-368
-416
-400
-320
-208
-64
160
400
592
688
560
432
416
368
240
128
-16
-128
-224
-304
-368
-432
-400
-304
-176
-48
144
320
496
592
512
384
336
304
208
128
16
-80
-192
-288
-368
-432
-400
-272
-128
-16
144
336
528
640
528
384
320
272
208
128
16
-128
-272
-400
-464
-480
-432
-304
-192
-64
128
352
560
656
544
368
320
320
288
224
96
-64
-208
-320
-400
-464
-448
-352
-240
-112
96
336
544
624
496
304
272
288
240
176
48
-64
-192
-304
-368
-448
-448
-352
-208
-48
176
400
560
640
528
352
304
272
224
128
32
-80
-192
-288
-400
-512
-528
-416
-240
-80
128
336
544
640
576
400
320
272
208
160
96
16
-80
-208
-336
-448
-464
-368
-240
-96
80
304
528
656
592
384
272
208
144
128
48
-32
-128
-240
-320
-400
-400
-320
-224
-96
80
320
576
720
672
448
336
288
240
176
80
-16
-128
-240
-320
-416
-448
-384
-304
-192
16
272
512
672
656
448
352
320
272
192
80
-32
-96
-160
-240
-336
-416
-384
-304
-160
16
240
480
624
608
432
336
304
224
112
0
-96
-176
-256
-336
-416
-448
-400
-288
-160
16
224
464
640
672
512
400
320
240
128
48
-64
-176
-272
-384
-480
-512
-448
-304
-208
-64
144
384
592
624
464
336
272
208
128
48
-64
-192
-288
-368
-416
-432
-368
-256
-176
-32
176
432
608
640
464
336
288
256
176
64
-80
-240
-352
-400
-448
-448
-384
-272
-160
0
208
448
608
624
464
368
352
336
240
112
-32
-160
-272
-336
-416
-448
-416
-288
-144
16
224
416
560
576
432
352
336
304
224
128
16
-96
-192
-272
-352
-416
-352
-208
-48
112
288
464
608
624
480
352
320
272
192
128
32
-80
-208
-336
-432
-480
-400
-256
-112
48
240
448
624
672
512
352
304
272
224
192
112
-16
-160
-288
-384
-432
-400
-272
-144
-16
192
416
592
640
464
288
240
240
208
160
64
-48
-160
-272
-368
-432
-416
-304
-192
-16
224
448
640
656
496
320
272
256
192
128
16
-80
-192
-288
-384
-496
-512
-432
-288
-112
112
352
560
656
528
368
320
288
208
128
48
-32
-112
-224
-368
-496
-528
-416
-272
-112
128
368
576
688
576
400
288
224
128
48
0
-80
-160
-272
-368
-464
-480
-384
-256
-112
96
352
624
768
672
464
352
272
192
128
32
-64
-192
-304
-400
-464
-464
-384
-288
-192
16
320
576
736
640
448
368
320
256
176
64
-64
-160
-224
-288
-352
-368
-320
-224
-128
80
336
560
688
608
416
352
320
240
128
-32
-144
-224
-288
-336
-400
-416
-352
-240
-112
80
304
512
656
608
448
400
368
272
144
16
-96
-208
-288
-368
-448
-464
-368
-240
-112
32
224
416
560
560
400
336
304
224
144
32
-64
-176
-272
-368
-432
-432
-336
-208
-96
32
224
448
608
592
400
304
272
208
144
48
-96
-240
-368
-432
-464
-464
-368
-240
-128
16
224
480
624
592
400
304
304
288
224
128
-32
-176
-288
-368
-432
-480
-416
-304
-192
-16
208
416
560
528
336
272
272
256
192
80
-32
-160
-256
-352
-432
-496
-448
-304
-144
48
272
480
624
592
416
320
288
240
160
64
-48
-144
-256
-384
-512
-560
-496
-320
-176
16
240
448
624
640
464
336
288
256
192
128
48
-48
-192
-320
-432
-496
-432
-288
-160
0
224
448
640
656
448
304
224
176
144
96
16
-96
-208
-304
-384
-432
-384
-272
-144
16
256
512
688
704
480
336
272
224
176
96
0
-112
-208
-288
-368
-448
-432
-352
-240
-48
192
448
624
672
496
352
320
288
208
112
0
-80
-144
-224
-304
-400
-416
-336
-224
-48
176
400
592
656
512
368
320
256
144
32
-64
-128
-208
-288
-368
-448
-432
-320
-192
-48
160
384
608
736
608
464
384
304
192
96
0
-112
-208
-304
-384
-448
-416
-320
-224
-112
80
304
560
672
576
416
352
304
224
144
48
-80
-192
-272
-320
-336
-304
-224
-144
-32
128
368
576
672
560
400
336
320
240
144
16
-128
-240
-304
-336
-384
-368
-272
-160
-16
176
400
592
688
576
416
400
384
320
192
64
-64
-176
-272
-336
-400
-400
-304
-176
-32
144
336
496
592
512
384
352
352
272
176
64
-48
-144
-240
-336
-400
-384
-272
-112
32
192
368
544
656
560
400
336
288
224
160
64
-48
-192
-320
-432
-496
-448
-320
-176
-48
128
336
544
656
592
400
320
288
256
224
144
16
-160
-272
-384
-448
-448
-352
-224
-96
80
304
512
624
528
320
224
224
208
160
80
-32
-160
-272
-352
-432
-448
-368
-256
-96
128
384
592
672
592
368
288
256
208
144
48
-64
-160
-256
-368
-464
-528
-480
-320
-160
48
288
496
624
576
400
320
288
224
144
64
0
-80
-192
-320
-432
-480
-432
-304
-160
16
240
448
608
592
400
288
224
144
64
32
-48
-128
-240
-336
-448
-480
-416
-288
-160
0
240
496
672
688
464
320
256
192
112
48
-48
-160
-272
-368
-432
-464
-416
-336
-256
-96
176
432
608
624
432
320
272
208
144
48
-64
-160
-224
-288
-336
-384
-384
-288
-192
-32
208
432
592
608
432
336
288
224
112
-16
-144
-208
-272
-336
-384
-432
-400
-288
-176
-16
208
432
592
640
496
400
368
272
160
32
-80
-160
-256
-336
-400
-448
-400
-288
-176
-48
128
320
512
592
464
368
320
256
176
80
-32
-144
-240
-352
-400
-432
-352
-224
-144
-32
144
352
560
608
448
320
288
240
176
96
-48
-192
-320
-432
-464
-496
-416
-304
-192
-64
144
368
560
624
464
336
320
320
256
160
0
-128
-272
-368
-432
-496
-448
-336
-224
-64
144
352
528
576
416
320
304
304
240
144
16
-96
-208
-304
-384
-464
-448
-320
-160
16
224
400
576
624
480
352
304
272
208
112
16
-96
-208
-336
-448
-528
-480
-320
-176
-16
192
400
592
672
528
368
304
272
224
176
96
0
-128
-256
-368
-448
-432
-320
-192
-32
160
384
592
672
512
320
224
192
176
128
48
-48
-160
-272
-352
-400
-384
-288
-176
-32
192
448
672
720
544
368
272
256
208
144
48
-64
-176
-256
-336
-416
-432
-368
-256
-96
128
384
608
704
576
400
336
320
240
160
64
-16
-96
-144
-240
-352
-400
-336
-224
-80
96
320
528
624
560
384
320
256
160
64
-16
-64
-128
-208
-304
-400
-432
-368
-240
-96
64
272
512
672
656
480
368
304
208
128
32
-64
-160
-272
-384
-464
-480
-416
-304
-192
-32
208
496
656
624
432
320
288
224
144
64
-64
-176
-272
-352
-400
-384
-336
-256
-144
32
272
512
656
624
416
320
304
240
144
32
-128
-256
-320
-384
-432
-432
-368
-240
-112
64
320
528
672
640
464
400
400
336
208
80
-48
-160
-256
-336
-400
-432
-368
-240
-112
48
240
432
560
576
432
352
336
288
192
96
-16
-112
-208
-320
-400
-416
-320
-160
-32
96
288
480
624
640
448
352
320
256
176
96
-16
-144
-288
-416
-480
-464
-400
-256
-112
32
256
464
624
640
432
320
288
272
224
160
32
-128
-256
-368
-448
-464
-416
-288
-176
-16
224
448
592
592
368
240
240
-336
-208
-48
176
384
592
672
496
336
256
176
112
80
0
-80
-176
-272
-368
-448
-432
-320
-208
-48
176
432
672
752
576
384
304
240
176
96
0
-96
-208
-304
-368
-448
-448
-384
-288
-160
96
368
608
704
544
384
320
272
208
112
0
-96
-176
-240
-288
-368
-400
-336
-240
-96
128
352
560
656
512
368
320
256
160
32
-96
-160
-224
-304
-352
-432
-432
-336
-224
-80
128
336
544
656
560
432
384
288
192
80
-32
-128
-224
-304
-368
-432
-416
-320
-208
-112
48
240
448
592
512
368
304
256
192
112
0
-96
-208
-304
-368
-416
-368
-272
-176
-96
64
256
480
592
512
368
288
256
208
128
0
-144
-288
-384
-416
-464
-432
-336
-224
-112
64
304
528
624
544
368
336
336
304
208
48
-80
-224
-320
-384
-448
-448
-368
-240
-112
64
272
480
560
480
352
320
320
272
176
48
-80
-192
-304
-400
-480
-480
-368
-208
-32
160
352
544
640
576
400
336
304
240
160
64
-48
-176
-320
-448
-544
-528
-400
-240
-80
112
320
544
672
624
432
336
304
256
208
144
48
-112
-256
-384
-480
-480
-400
-256
-112
64
304
544
672
624
384
272
224
224
176
96
-16
-144
-240
-352
-432
-448
-384
-272
-128
64
320
560
672
608
400
288
256
224
144
64
-48
-160
-256
-336
-432
-496
-464
-352
-192
0
240
480
608
592
400
288
272
208
128
48
-32
-112
-192
-288
-416
-464
-448
-320
-176
-16
208
416
560
576
400
288
224
144
48
-16
-64
-144
-240
-336
-416
-448
-400
-272
-144
0
224
464
640
704
512
368
288
208
128
64
-32
-128
-224
-320
-400
-432
-384
-288
-192
-80
160
416
624
672
496
368
320
256
176
112
0
-112
-192
-256
-288
-320
-304
-240
-144
-16
208
448
624
672
496
368
336
288
192
80
-64
-176
-240
-288
-336
-384
-352
-256
-128
16
240
448
640
688
528
432
416
368
240
128
0
-112
-208
-288
-368
-432
-400
-272
-144
0
192
384
560
640
512
400
368
320
240
144
32
-80
-176
-288
-368
-400
-352
-208
-64
48
224
400
592
656
512
368
320
272
208
128
32
-112
-240
-368
-448
-464
-432
-288
-176
-32
160
368
560
656
496
336
304
288
256
192
64
-80
-224
-352
-432
-480
-448
-336
-224
-96
112
336
512
560
400
256
224
240
192
128
16
-96
-224
-320
-400
-480
-480
-368
-224
-48
176
400
544
608
464
304
272
240
176
112
16
-96
-208
-320
-448
-560
-560
-432
-256
-96
128
368
576
672
560
384
336
288
224
160
96
16
-80
-224
-352
-464
-464
-368
-224
-80
112
336
560
688
576
384
272
208
160
128
64
-16
-112
-208
-320
-416
-416
-336
-224
-80
128
384
640
784
672
448
336
272
224
144
64
-32
-144
-224
-304
-400
-416
-384
-288
-160
48
320
560
688
608
416
320
288
224
144
48
-48
-128
-192
-256
-352
-416
-368
-272
-128
64
288
528
656
592
400
320
272
176
64
-48
-128
-192
-256
-336
-416
-448
-400
-272
-144
32
256
496
672
672
496
416
336
240
128
16
-80
-192
-272
-368
-448
-464
-384
-272
-176
-32
160
400
592
608
432
352
288
224
144
48
-64
-176
-272
-352
-400
-384
-320
-208
-128
0
224
448
624
624
432
336
288
240
160
48
-96
-240
-336
-368
-400
-400
-336
-224
-112
32
240
464
608
624
432
368
368
336
256
112
-32
-160
-256
-336
-400
-432
-384
-256
-112
48
272
464
576
560
416
352
336
304
224
112
0
-128
-240
-320
-400
-432
-352
-208
-32
112
288
480
624
640
480
384
352
320
224
144
16
-96
-256
-384
-496
-512
-400
-240
-96
64
272
480
640
672
496
368
320
288
240
192
96
-48
-208
-336
-432
-464
-416
-272
-144
0
224
448
624
640
448
272
224
240
192
144
32
-96
-208
-304
-384
-432
-400
-288
-160
16
272
512
672
672
480
320
272
240
176
112
0
-112
-208
-304
-400
-480
-496
-368
-208
-32
208
448
624
672
496
352
320
272
192
128
48
-32
-112
-208
-336
-432
-448
-352
-208
-48
176
400
592
688
544
384
304
240
144
80
16
-64
-160
-256
-368
-432
-400
-288
-160
-16
192
432
672
784
656
448
368
288
208
144
48
-48
-160
-256
-336
-416
-400
-320
-224
-96
112
384
624
752
624
432
368
320
256
192
64
-32
-144
-208
-256
-320
-320
-272
-176
-48
160
400
624
736
608
432
368
336
256
144
0
-128
-192
-240
-288
-352
-368
-288
-176
-32
176
400
608
704
624
464
432
400
288
176
48
-64
-160
-240
-320
-400
-416
-320
-192
-64
96
288
480
624
576
432
368
336
256
176
80
-32
-128
-240
-336
-400
-384
-272
-128
-32
128
320
512
656
592
416
336
304
240
176
80
-64
-192
-320
-416
-448
-432
-336
-208
-80
80
304
528
672
608
416
352
336
320
272
144
0
-144
-256
-352
-416
-432
-352
-240
-112
80
304
512
624
560
368
304
304
288
208
112
-16
-144
-240
-336
-416
-448
-384
-224
-64
144
384
560
672
624
416
336
304
256
176
80
-16
-128
-240
-368
-480
-528
-432
-272
-112
96
320
528
672
640
448
352
304
240
192
128
64
-32
-176
-304
-432
-464
-400
-272
-128
32
256
480
640
640
432
288
224
176
144
96
16
-96
-208
-304
-400
-448
-384
-288
-160
16
288
544
720
720
480
336
272
224
160
80
-16
-128
-224
-304
-384
-448
-432
-352
-240
-48
208
464
640
656
480
336
304
256
160
64
-32
-112
-176
-240
-320
-432
-416
-320
-208
-32
208
448
624
656
480
352
288
208
96
-16
-96
-160
-224
-304
-384
-448
-416
-304
-192
-32
192
432
640
720
576
432
352
256
144
48
-48
-144
-224
-320
-416
-464
-416
-304
-208
-96
96
352
592
688
544
400
336
272
192
96
0
-112
-224
-304
-336
-368
-320
-240
-160
-48
160
384
592
672
528
368
336
288
224
112
-32
-176
-288
-336
-368
-400
-352
-256
-144
-16
192
416
592
672
528
416
400
384
288
160
16
-112
-224
-288
-368
-416
-400
-304
-176
-32
160
336
496
576
480
368
352
320
240
144
16
-96
-192
-288
-368
-432
-384
-256
-96
32
176
352
528
608
512
368
320
288
208
128
32
-80
-224
-352
-464
-528
-464
-336
-192
-48
144
352
560
672
560
384
320
304
256
224
112
-16
-176
-320
-416
-464
-448
-352
-224
-96
112
336
544
640
512
304
240
256
224
176
64
-64
-192
-304
-384
-432
-432
-352
-224
-64
160
400
592
656
528
352
288
272
224
144
48
-64
-176
-272
-384
-480
-528
-448
-288
-112
96
336
544
656
576
384
320
288
224
144
64
-16
-96
-192
-320
-432
-464
-384
-256
-112
80
288
496
624
560
384
288
224
144
80
48
-32
-128
-240
-352
-432
-448
-352
-224
-96
80
336
592
752
704
480
368
288
224
144
64
-32
-144
-240
-336
-400
-432
-384
-288
-192
-16
256
512
672
640
448
352
320
256
192
80
-32
-144
-208
-272
-336
-368
-352
-256
-160
16
256
496
656
624
432
352
304
240
128
0
-112
-192
-256
-320
-384
-416
-368
-256
-128
32
256
464
624
640
480
416
368
288
176
48
-48
-144
-240
-336
-416
-464
-400
-272
-144
-16
176
368
544
592
432
352
320
256
176
96
-16
-128
-224
-336
-384
-400
-320
-192
-96
16
208
432
608
640
464
352
304
272
208
112
-32
-176
-304
-400
-432
-448
-368
-240
-128
16
224
432
592
608
432
336
320
320
272
160
16
-128
-240
-336
-400
-432
-400
-288
-160
-16
192
400
528
528
352
272
272
272
208
128
16
-112
-208
-304
-400
-448
-416
-272
-112
64
272
432
576
608
432
304
272
240
176
96
0
-96
-208
-336
-448
-528
-480
-320
-160
0
208
416
576
640
464
336
272
224
192
144
96
0
-144
-288
-400
-448
-416
-320
-192
-32
160
384
576
640
464
304
224
192
176
128
48
-48
-176
-272
-368
-432
-416
-320
-192
-48
192
464
672
720
512
336
256
224
176
96
0
-96
-192
-272
-336
-416
-432
-368
-272
-96
128
368
560
624
496
336
288
256
192
112
16
-48
-128
-192
-272
-400
-432
-352
-240
-96
112
336
544
640
528
368
288
208
96
16
-48
-96
-160
-224
-320
-400
-416
-320
-208
-80
112
320
544
672
608
432
336
272
176
96
16
-64
-176
-256
-352
-416
-432
-352
-256
-160
16
256
512
672
592
416
336
304
224
144
48
-64
-176
-256
-304
-336
-320
-256
-192
-112
64
288
512
640
560
384
320
288
208
112
-16
-144
-256
-288
-336
-368
-368
-288
-192
-80
96
320
512
608
544
416
384
368
288
160
48
-80
-192
-256
-336
-400
-416
-336
-224
-96
64
240
416
528
512
384
336
304
240
160
48
-64
-160
-256
-352
-416
-416
-320
-176
-48
80
256
448
576
560
400
320
288
224
160
64
-48
-192
-320
-432
-496
-464
-368
-224
-112
48
256
464
608
592
416
320
320
288
240
160
16
-144
-272
-368
-448
-448
-384
-256
-144
16
256
480
592
560
368
272
288
256
208
96
-16
-144
-240
-320
-384
-416
-368
-224
-80
96
336
544
624
592
400
304
288
240
176
80
-32
-128
-224
-336
-416
-496
-432
-272
-128
64
288
496
624
624
432
336
304
240
160
96
16
-48
-144
-272
-368
-432
-400
-256
-128
32
256
464
624
624
432
288
208
144
80
64
-16
-96
-192
-288
-368
-400
-352
-224
-128
16
224
464
656
688
480
336
256
192
144
80
-16
-112
-208
-304
-368
-416
-384
-288
-224
-64
176
400
576
608
448
320
288
256
192
96
-16
-112
-176
-256
-304
-368
-384
-304
-208
-64
144
368
544
576
432
336
304
256
160
32
-80
-160
-240
-304
-384
-448
-416
-304
-192
-48
144
352
544
624
512
416
384
304
192
80
-32
-128
-224
-336
-416
-480
-448
-320
-224
-96
80
272
496
608
480
368
320
288
208
112
16
-96
-224
-336
-400
-432
-368
-256
-160
-48
128
336
544
640
496
352
288
272
208
112
-16
-160
-304
-400
-416
-448
-400
-288
-176
-48
160
384
576
640
496
352
336
336
288
192
32
-96
-224
-304
-384
-432
-400
-304
-176
-32
160
352
496
560
416
304
288
288
240
160
48
-64
-176
-256
-336
-416
-400
-272
-128
32
224
368
528
592
480
336
288
272
208
128
48
-48
-144
-272
-400
-496
-480
-352
-208
-48
128
320
528
640
544
384
320
288
256
208
144
48
-96
-224
-352
-432
-432
-336
-224
-80
96
320
544
656
544
336
240
208
208
160
96
0
-128
-224
-336
-416
-416
-352
-240
-80
144
400
624
720
592
384
288
256
208
144
64
-48
-160
-240
-320
-416
-448
-400
-288
-128
96
352
560
672
592
400
304
272
208
144
64
0
-80
-128
-224
-352
-416
-368
-256
-112
64
288
496
608
576
384
288
208
112
32
-16
-64
-144
-224
-320
-416
-448
-384
-256
-128
16
240
464
640
640
448
320
240
160
80
16
-80
-160
-256
-352
-416
-448
-400
-304
-224
-96
144
400
576
576
384
288
240
176
112
32
-80
-192
-272
-320
-352
-368
-336
-272
-192
-48
192
416
544
544
368
272
256
192
112
-16
-144
-240
-288
-336
-384
-400
-368
-256
-160
0
224
432
576
592
432
368
368
288
176
64
-64
-160
-224
-288
-352
-400
-352
-224
-112
16
192
368
496
544
416
352
320
272
192
96
0
-96
-176
-272
-336
-368
-304
-160
-48
48
224
400
560
608
448
352
304
256
192
112
0
-112
-256
-368
-416
-416
-352
-208
-96
32
224
432
608
640
464
336
320
288
256
192
48
-80
-208
-320
-384
-416
-384
-256
-144
-16
208
416
560
576
400
272
272
272
224
144
16
-96
-208
-288
-368
-416
-400
-288
-144
16
240
432
560
592
432
304
272
256
176
96
-16
-96
-208
-320
-432
-528
-496
-352
-208
-32
176
368
544
608
464
336
288
240
176
112
48
-32
-128
-272
-384
-480
-464
-336
-208
-64
144
352
544
624
480
304
208
160
96
64
0
384
576
656
528
400
336
288
192
64
-32
-96
-160
-208
-272
-336
-352
-272
-160
-32
144
336
544
672
592
464
416
336
224
128
16
-64
-160
-256
-336
-416
-416
-320
-208
-96
48
240
480
624
560
416
336
288
224
144
48
-48
-176
-256
-320
-352
-320
-240
-160
-64
80
272
496
608
528
368
288
272
208
144
16
-112
-240
-320
-368
-416
-400
-320
-208
-96
64
272
480
608
544
400
368
384
352
240
96
-48
-192
-272
-368
-416
-416
-336
-224
-80
96
304
480
560
496
368
320
336
288
192
96
-16
-128
-224
-320
-400
-416
-304
-160
0
144
304
480
592
544
384
320
304
256
176
96
-16
-144
-272
-400
-496
-480
-368
-208
-64
96
304
496
640
608
416
320
288
256
224
176
80
-80
-208
-336
-416
-432
-352
-224
-96
48
272
480
624
560
352
224
192
208
160
112
16
-112
-208
-320
-400
-416
-368
-256
-112
80
336
560
672
624
400
288
256
224
160
80
-16
-128
-208
-304
-416
-480
-464
-336
-176
16
272
480
624
608
416
320
288
224
160
80
16
-64
-128
-240
-368
-432
-416
-304
-160
0
208
416
576
608
432
304
240
160
80
32
-32
-96
-176
-272
-368
-432
-400
-272
-160
-16
192
432
640
704
512
352
272
208
128
80
-16
-112
-208
-304
-368
-416
-384
-304
-224
-112
128
384
592
656
480
352
288
240
176
96
-16
-112
-208
-256
-288
-336
-320
-272
-176
-48
176
384
576
624
464
336
304
256
160
48
-80
-176
-224
-288
-320
-368
-368
-272
-176
-32
176
384
560
624
496
400
384
336
208
96
-32
-112
-208
-288
-368
-432
-416
-304
-192
-64
112
288
464
576
464
368
336
272
192
96
0
-96
-192
-304
-368
-416
-368
-240
-128
-32
128
320
512
608
480
336
288
240
176
96
-16
-128
-272
-368
-432
-448
-416
-288
-192
-64
112
320
512
608
480
336
288
272
240
176
48
-96
-224
-320
-384
-448
-416
-320
-224
-96
96
304
480
528
400
256
240
240
208
128
16
-96
-208
-288
-352
-432
-416
-320
-176
-16
176
384
528
576
464
320
272
256
192
112
16
-80
-176
-288
-400
-512
-512
-384
-240
-80
112
320
512
608
512
368
304
256
208
144
80
0
-112
-240
-352
-448
-448
-352
-240
-96
80
304
528
640
528
336
224
176
144
112
48
-48
-160
-256
-352
-416
-416
-336
-224
-96
96
336
576
704
576
384
272
224
176
128
32
-64
-176
-256
-336
-416
-448
-400
-320
-192
32
272
528
640
576
384
304
272
224
144
48
-48
-128
-176
-240
-336
-400
-352
-256
-128
48
256
480
608
560
400
320
272
192
80
-16
-80
-160
-208
-288
-368
-400
-336
-224
-96
48
240
464
624
640
480
400
320
240
144
48
-48
-144
-224
-336
-416
-416
-352
-240
-144
-32
160
400
576
592
432
336
304
240
160
80
-32
-144
-240
-320
-352
-352
-288
-208
-112
16
224
448
592
576
400
304
272
224
144
32
-96
-240
-320
-368
-400
-400
-352
-240
-128
32
240
448
576
560
400
336
320
288
208
80
-64
-176
-256
-336
-384
-416
-368
-256
-128
16
208
384
496
496
368
304
288
256
176
80
-32
-128
-208
-304
-368
-400
-320
-176
-32
112
256
432
544
576
416
320
288
240
176
96
0
-112
-224
-352
-432
-432
-352
-208
-80
48
224
416
576
608
448
336
304
288
256
208
112
-32
-176
-304
-400
-432
-384
-272
-144
0
208
416
592
608
416
272
240
256
208
160
48
-64
-192
-288
-384
-432
-400
-272
-144
32
288
512
656
656
464
320
288
256
192
128
16
-80
-176
-288
-384
-480
-480
-368
-208
-32
224
448
608
656
496
368
320
272
192
112
48
-16
-96
-208
-336
-432
-432
-320
-192
-48
160
384
560
640
496
336
256
176
96
64
0
-64
-160
-256
-352
-432
-416
-304
-192
-64
144
368
576
688
560
368
288
224
160
96
0
-80
-192
-288
-352
-416
-416
-336
-256
-144
64
320
528
640
496
352
288
240
192
128
16
-80
-176
-224
-272
-336
-368
-320
-224
-112
96
320
512
624
496
352
304
272
176
80
-48
-144
-208
-272
-320
-384
-384
-304
-192
-64
128
352
544
672
608
480
432
384
272
144
16
-64
-160
-224
-304
-384
-400
-304
-176
-64
96
288
480
608
560
416
352
320
240
160
48
-48
-144
-240
-304
-336
-320
-224
-112
-48
96
288
496
624
560
384
320
288
224
160
64
-80
-208
-320
-384
-400
-384
-272
-176
-64
96
304
512
624
544
368
304
304
272
208
96
-48
-176
-256
-336
-400
-416
-352
-240
-112
48
240
416
512
432
272
256
256
224
160
64
-48
-160
-240
-320
-416
-432
-368
-224
-64
112
304
480
592
544
384
320
288
240
160
64
-32
-144
-256
-384
-496
-512
-416
-240
-96
80
272
480
608
592
416
320
272
224
176
128
48
-64
-208
-320
-432
-464
-384
-256
-128
32
256
480
640
608
400
256
192
176
144
80
0
-112
-224
-320
-384
-400
-352
-240
-112
64
304
544
688
640
416
288
240
192
144
80
-32
-144
-224
-304
-384
-432
-432
-336
-208
0
240
464
608
608
416
304
272
224
144
64
-32
-96
-160
-224
-320
-384
-368
-272
-160
-16
208
416
544
560
416
320
272
208
80
0
-64
-128
-208
-288
-368
-416
-384
-272
-160
-16
192
400
592
640
496
384
288
224
128
48
-48
-128
-224
-304
-384
-416
-384
-288
-208
-112
80
320
528
592
448
336
288
240
160
80
-16
-128
-208
-272
-320
-336
-320
-240
-160
-64
144
368
544
608
448
320
272
240
160
64
-80
-208
-272
-304
-352
-384
-368
-272
-160
-16
176
400
560
608
464
368
352
336
240
128
-16
-128
-208
-288
-336
-384
-368
-256
-144
-16
160
336
480
544
432
336
320
288
224
128
32
-80
-176
-272
-352
-384
-336
-208
-64
48
176
352
496
576
464
352
304
272
192
128
32
-80
-208
-352
-448
-480
-416
-288
-160
-32
160
336
528
608
480
336
288
272
240
208
112
-32
-176
-304
-384
-432
-416
-320
-208
-96
96
320
512
576
432
272
208
224
192
144
32
-80
-192
-304
-384
-448
-448
-352
-224
-64
176
384
544
608
464
304
256
240
176
112
0
-96
-192
-288
-400
-512
-528
-432
-288
-112
112
336
528
624
512
352
288
256
192
128
48
-16
-112
-224
-352
-448
-464
-368
-240
-112
80
288
496
624
528
352
256
176
112
80
32
-48
-128
-240
-336
-432
-432
-336
-224
-112
80
320
560
704
624
416
304
240
176
128
32
-48
-160
-240
-320
-400
-416
-368
-272
-192
16
272
512
656
576
400
304
272
208
144
32
-64
-128
-192
-224
-304
-352
-336
-256
-144
32
256
464
608
560
384
320
272
192
80
-48
-144
-192
-256
-320
-384
-416
-352
-240
-128
48
256
448
592
592
448
384
336
224
128
16
-80
-176
-256
-320
-400
-432
-368
-240
-144
-32
144
352
528
544
400
320
288
224
144
48
-48
-160
-256
-336
-384
-384
-304
-192
-112
0
176
384
544
544
384
288
256
208
144
48
-80
-224
-336
-400
-416
-416
-352
-240
-128
0
192
400
544
544
368
304
288
288
224
96
-48
-176
-272
-352
-416
-448
-400
-288
-160
-16
192
352
464
448
288
240
240
224
160
64
-48
-144
-240
-320
-400
-432
-384
-240
-96
64
240
400
512
512
352
256
240
208
128
48
-48
-144
-272
-384
-480
-512
-432
-272
-128
16
192
384
512
544
384
272
240
208
160
128
48
-48
-208
-320
-432
-480
-432
-304
-192
-48
144
368
544
576
384
240
176
160
144
96
16
-96
-208
-320
-400
-432
-416
-304
-192
-32
208
448
624
640
448
304
256
224
176
112
0
-112
-192
-272
-352
-448
-464
-384
-240
-64
176
416
608
672
496
352
304
272
208
128
32
-32
-96
-176
-272
-384
-384
-288
-176
-16
192
416
592
656
512
384
304
240
128
48
0
-64
-128
-208
-304
-368
-352
-240
-96
32
224
448
640
752
624
464
368
288
208
128
48
-48
-144
-224
-304
-352
-320
-240
-144
-48
128
368
592
688
560
416
352
304
240
160
64
-32
-128
-192
-240
-272
-240
-192
-112
-16
160
384
576
672
560
400
352
304
240
128
0
-128
-208
-240
-288
-320
-320
-240
-128
0
192
384
560
640
544
432
400
384
288
176
64
-48
-144
-224
-288
-368
-368
-272
-144
-16
144
320
480
576
528
400
368
336
256
176
64
-32
-128
-224
-304
-368
-336
-224
-80
32
160
352
528
624
560
400
336
304
240
176
80
-48
-192
-320
-416
-448
-400
-304
-176
-64
96
304
512
608
544
368
304
288
272
224
144
-16
-160
-288
-384
-432
-416
-336
-224
-112
48
272
464
560
464
288
224
240
208
160
80
-48
-160
-256
-352
-416
-432
-368
-224
-80
128
336
512
592
528
336
272
256
208
144
48
-48
-144
-224
-336
-448
-496
-432
-256
-112
80
304
480
608
576
384
320
272
208
144
96
32
-32
-128
-272
-368
-416
-368
-224
-112
48
256
464
608
592
416
304
240
176
128
80
0
-80
-192
-288
-384
-416
-352
-224
-128
48
272
528
688
672
448
320
256
208
144
64
-16
-128
-208
-304
-368
-400
-384
-304
-208
-32
208
448
608
592
416
320
272
240
160
80
-32
-112
-160
-224
-288
-368
-384
-288
-192
-32
192
416
576
592
416
320
272
192
96
-16
-112
-176
-240
-304
-368
-416
-384
-288
-176
-16
176
384
544
592
464
368
320
224
128
16
-64
-160
-256
-336
-432
-464
-416
-304
-208
-96
80
288
480
560
432
336
288
240
160
64
-32
-144
-256
-352
-400
-416
-336
-240
-160
-48
128
352
528
576
416
288
240
208
144
64
-80
-208
-336
-400
-416
-432
-368
-272
-160
-32
160
368
544
576
432
336
320
304
240
128
-16
-144
-240
-320
-368
-416
-400
-288
-160
-32
176
336
480
496
368
288
272
256
192
112
0
-112
-208
-288
-368
-416
-384
-240
-96
48
208
368
512
560
416
304
256
224
160
96
0
-96
-224
-336
-448
-512
-448
-320
-176
-48
128
320
480
560
448
304
256
240
208
160
80
-32
-176
-320
-416
-480
-464
-352
-224
-96
80
304
480
560
400
224
160
160
144
112
32
-80
-176
-288
-384
-448
-448
-368
-256
-112
96
352
544
592
464
288
224
208
160
96
0
-96
-192
-272
-368
-480
-512
-448
-320
-144
64
304
496
592
496
336
272
240
160
96
16
-48
-112
-176
-288
-416
-464
-400
-288
-144
48
272
464
576
496
336
240
176
80
0
-48
-112
-176
-256
-352
-448
-464
-400
-272
-160
0
224
464
624
560
368
256
192
112
48
-48
-128
-224
-320
-400
-464
-480
-416
-336
-272
-112
128
384
528
464
288
208
176
112
48
-48
-160
-256
-320
-368
-400
-416
-400
-304
-240
-80
144
352
480
432
256
192
160
96
0
-112
-240
-336
-368
-416
-448
-464
-416
-304
-208
-32
176
384
496
480
336
288
272
192
80
-32
-128
-224
-288
-368
-416
-448
-384
-256
-144
-16
160
336
464
480
352
288
272
192
112
16
-80
-176
-272
-352
-416
-400
-304
-160
-48
64
240
416
544
544
368
288
256
208
144
64
-64
-192
-320
-416
-448
-432
-352
-208
-96
48
240
448
592
576
384
304
288
272
224
128
-16
-160
-272
-368
-416
-432
-368
-224
-112
48
256
464
560
528
320
240
240
224
176
80
-32
-128
-224
-304
-384
-416
-368
-224
-64
112
320
480
592
576
384
304
272
240
176
96
0
-96
-192
-320
-416
-480
-432
-272
-112
64
272
464
624
640
464
368
320
272
208
160
96
16
-112
-256
-352
-400
-352
-224
-80
64
272
480
640
656
464
336
256
208
176
144
80
-16
-128
-224
-304
-352
-320
-224
-112
32
256
512
720
752
544
400
336
304
256
192
96
0
-96
-192
-256
-320
-336
-256
-176
-16
224
464
640
704
528
416
368
336
256
176
80
0
-64
-112
-192
-320
-352
-304
-208
-80
112
320
496
576
448
336
288
224
128
16
-80
-128
-208
-288
-384
112
48
32
-32
-112
-256
-384
-512
-576
-608
-656
-640
-576
-448
-368
-192
32
224
320
224
96
64
64
0
-112
-256
-400
-512
-592
-672
-736
-752
-688
-560
-448
-288
-128
48
128
64
-48
-80
-80
-144
-240
-352
-464
-576
-656
-752
-848
-864
-768
-624
-496
-384
-224
-64
48
0
-160
-208
-224
-288
-352
-448
-544
-688
-800
-928
-992
-976
-896
-736
-608
-496
-304
-112
16
-16
-176
-240
-256
-272
-288
-352
-464
-624
-752
-864
-960
-976
-912
-800
-640
-512
-320
-96
48
-16
-208
-272
-272
-272
-304
-384
-496
-608
-720
-816
-896
-928
-896
-800
-624
-448
-240
-32
96
32
-160
-240
-240
-272
-336
-432
-544
-656
-752
-864
-976
-1056
-1056
-960
-768
-544
-336
-144
48
0
-176
-240
-256
-304
-368
-448
-512
-576
-656
-784
-896
-976
-960
-864
-736
-528
-304
-96
48
16
-144
-240
-288
-352
-416
-448
-528
-592
-672
-768
-848
-896
-864
-768
-672
-480
-240
0
176
160
0
-128
-176
-240
-288
-352
-432
-528
-624
-704
-752
-784
-768
-688
-608
-448
-160
112
256
256
112
16
-16
-64
-112
-208
-320
-416
-480
-528
-560
-592
-592
-528
-432
-288
-48
176
320
320
160
80
48
0
-96
-224
-352
-448
-480
-544
-576
-608
-592
-496
-384
-224
-16
192
352
400
272
192
160
80
-16
-128
-240
-336
-416
-496
-560
-592
-544
-448
-320
-192
-16
160
320
400
272
192
144
96
16
-64
-160
-256
-368
-448
-512
-512
-448
-304
-208
-112
64
256
416
464
320
208
144
112
48
-32
-144
-288
-432
-528
-544
-544
-480
-368
-240
-112
80
288
464
496
336
224
192
192
144
64
-96
-224
-352
-448
-480
-512
-480
-384
-272
-128
80
288
416
416
240
144
128
128
80
0
-112
-224
-320
-400
-448
-496
-464
-352
-192
-32
176
336
464
480
336
208
176
144
80
0
-96
-176
-272
-368
-464
-528
-496
-352
-208
-48
128
320
480
544
416
288
208
176
112
80
32
-32
-144
-288
-384
-448
-416
-304
-176
-32
144
352
528
608
464
288
176
128
112
80
16
-64
-176
-288
-368
-416
-384
-304
-192
-48
160
384
608
688
512
336
256
224
160
96
0
-96
-208
-288
-352
-416
-416
-368
-272
-128
112
352
544
640
512
352
256
224
160
80
-16
-96
-160
-208
-272
-352
-384
-336
-224
-96
80
288
464
544
448
304
240
176
80
-16
-96
-144
-224
-272
-352
-416
-416
-336
-240
-112
48
240
448
576
528
384
288
192
96
16
-80
-144
-240
-320
-384
-464
-464
-384
-288
-208
-96
96
320
464
432
304
208
160
96
16
-64
-176
-288
-384
-432
-464
-448
-384
-320
-208
-64
144
368
480
432
272
208
176
128
48
-80
-208
-336
-400
-432
-448
-432
-368
-256
-128
32
256
480
592
544
400
352
352
304
192
64
-80
-208
-288
-352
-400
-400
-336
-208
-64
96
272
432
528
496
384
320
320
272
176
80
-32
-144
-224
-320
-384
-384
-288
-128
16
144
320
496
624
592
448
352
320
272
208
128
16
-112
-224
-352
-416
-400
-320
-176
-64
64
240
416
544
544
384
288
256
240
208
144
32
-128
-272
-400
-480
-496
-448
-352
-224
-64
144
368
512
480
288
176
176
176
128
64
-48
-160
-272
-384
-448
-480
-448
-336
-192
-16
224
432
544
528
352
256
240
208
144
80
-32
-128
-224
-336
-448
-528
-512
-384
-208
-32
192
400
544
560
384
288
256
208
144
80
0
-64
-160
-288
-416
-496
-464
-352
-224
-64
144
352
528
576
432
304
240
176
128
96
32
-48
-144
-256
-352
-400
-352
-240
-128
16
240
480
688
752
576
416
352
304
240
176
80
-16
-128
-224
-304
-352
-336
-256
-176
-32
208
464
672
736
576
432
384
336
272
192
80
-32
-128
-192
-256
-320
-352
-288
-208
-64
144
368
560
640
496
400
352
320
240
128
0
-96
-144
-208
-272
-352
-352
-288
-192
-64
112
272
448
544
432
352
304
240
128
32
-80
-176
-272
-368
-448
-512
-496
-416
-304
-192
-48
144
336
480
384
304
256
224
160
80
-16
-112
-224
-320
-368
-400
-368
-256
-160
-80
80
272
464
560
448
304
256
224
176
96
-16
-144
-288
-384
-416
-432
-400
-304
-192
-64
112
336
560
640
512
384
336
336
304
224
80
-48
-192
-288
-352
-400
-400
-336
-208
-64
112
320
496
560
448
320
304
288
256
176
64
-32
-144
-240
-336
-416
-432
-352
-208
-48
128
304
464
544
448
320
256
240
176
112
16
-80
-192
-320
-432
-544
-544
-448
-320
-160
0
192
384
496
448
304
224
192
144
112
64
-16
-160
-304
-432
-528
-528
-464
-352
-224
-64
144
368
496
432
240
128
96
80
64
0
-80
-208
-304
-400
-464
-480
-448
-352
-208
-16
224
464
576
480
288
192
160
128
80
0
-96
-208
-288
-368
-432
-480
-464
-368
-208
0
240
464
576
528
352
272
240
192
128
48
-16
-80
-128
-208
-320
-368
-336
-240
-96
80
304
496
608
592
432
336
272
176
96
16
-16
-96
-144
-224
-304
-320
-272
-144
-16
128
320
544
688
704
544
432
336
256
176
96
16
-80
-160
-240
-288
-288
-224
-128
-48
80
272
496
672
704
528
416
352
288
208
144
32
-64
-144
-192
-224
-208
-160
-96
0
128
320
496
656
672
496
384
336
288
192
96
-48
-160
-208
-240
-256
-272
-224
-128
-16
128
304
480
624
672
528
432
416
368
256
144
0
-96
-192
-256
-304
-336
-288
-176
-48
96
240
384
512
560
448
352
336
288
192
112
0
-96
-176
-272
-336
-352
-304
-160
-32
80
208
352
496
544
416
320
272
224
144
80
-16
-144
-272
-400
-464
-448
-384
-256
-144
-32
160
336
496
544
400
288
240
224
192
144
32
-112
-256
-368
-432
-464
-432
-320
-208
-80
128
320
464
480
304
176
176
176
144
80
-32
-144
-240
-336
-400
-448
-432
-336
-208
-48
160
368
512
544
384
272
240
208
144
64
-48
-144
-240
-352
-448
-544
-544
-432
-272
-112
112
304
464
528
400
288
240
192
128
64
0
-64
-160
-288
-416
-512
-512
-416
-288
-160
48
256
448
512
384
240
160
96
32
0
-64
-144
-256
-352
-448
-512
-496
-416
-304
-176
32
272
480
576
448
272
192
128
80
32
-64
-160
-272
-368
-416
-480
-496
-448
-384
-256
-16
240
448
528
400
272
192
176
128
48
-48
-144
-224
-288
-336
-400
-448
-400
-320
-192
0
256
432
512
416
288
240
208
128
16
-112
-192
-240
-304
-352
-432
-448
-384
-272
-144
32
240
432
544
496
384
336
272
176
80
-16
-112
-208
-288
-368
-448
-448
-368
-272
-160
-32
176
368
528
496
368
304
256
192
128
32
-64
-176
-288
-368
-400
-368
-288
-192
-128
0
160
352
512
464
304
240
208
160
96
0
-128
-288
-400
-432
-464
-432
-368
-272
-160
0
176
368
512
464
304
256
256
240
176
48
-80
-208
-288
-368
-432
-432
-368
-256
-128
16
176
320
432
384
256
240
240
224
144
48
-48
-160
-240
-336
-416
-432
-352
-208
-48
112
224
384
480
480
336
256
240
208
144
80
0
-112
-224
-336
-448
-464
-368
-240
-80
64
240
448
560
576
416
320
304
272
240
208
128
0
-144
-272
-368
-384
-336
-208
-96
48
240
480
608
608
400
272
224
224
192
160
64
-48
-160
-256
-336
-352
-320
-208
-80
80
304
560
656
640
448
320
272
240
192
128
32
-64
-160
-240
-320
-368
-384
-288
-144
32
256
496
608
624
448
352
320
272
192
128
64
0
-64
-144
-256
-336
-320
-224
-96
48
240
448
576
624
496
384
304
240
144
96
64
0
-64
-144
-240
-288
-272
-176
-64
48
240
448
624
704
608
464
400
336
256
192
112
32
-64
-144
-240
-288
-288
-224
-144
-32
160
416
608
688
576
464
400
368
304
224
112
16
-80
-144
-192
-224
-208
-176
-96
0
208
432
608
656
544
416
384
336
256
160
32
-80
-144
-192
-240
-288
-288
-224
-128
-16
176
384
544
608
528
448
432
384
288
176
32
-64
-160
-240
-304
-368
-352
-256
-144
-16
144
304
448
528
480
384
352
304
224
144
48
-48
-144
-240
-304
-352
-304
-192
-80
16
160
320
480
560
464
336
288
240
176
112
16
-96
-224
-352
-416
-416
-384
-272
-160
-48
112
288
464
544
432
288
240
224
192
144
32
-112
-240
-352
-416
-448
-432
-352
-240
-112
64
256
416
464
304
160
128
128
96
32
-80
-176
-288
-368
-432
-496
-496
-416
-288
-128
80
256
384
448
336
176
128
96
48
-32
-128
-224
-320
-416
-512
-608
-624
-512
-336
-160
48
224
400
480
384
224
160
112
48
-16
-64
-128
-208
-336
-432
-512
-512
-432
-288
-128
48
240
432
544
448
256
144
80
32
0
-48
-128
-224
-304
-384
-432
-416
-320
-208
-64
128
352
576
672
576
352
240
192
144
80
0
-80
-176
-240
-288
-320
-336
-288
-208
-80
144
368
592
672
592
416
320
288
240
160
80
-16
-80
-112
-144
-208
-256
-224
-128
0
176
384
592
688
640
464
384
336
256
144
32
-32
-80
-128
-192
-240
-256
-192
-80
64
240
416
608
736
720
592
496
416
336
224
144
48
-32
-112
-176
-224
-224
-160
-48
64
192
352
560
720
736
592
496
448
400
320
240
160
48
-32
-80
-96
-80
0
80
160
272
464
656
784
768
608
496
464
432
384
288
176
32
-48
-80
-96
-96
-48
32
128
256
448
640
768
752
592
528
544
528
464
352
240
128
32
-48
-112
-144
-144
-48
64
192
368
544
656
672
544
480
496
480
416
320
208
96
0
-112
-208
-256
-224
-112
32
176
336
512
656
688
544
448
432
400
336
256
160
48
-96
-256
-368
-416
-368
-240
-112
32
224
432
624
688
528
416
368
352
336
288
192
48
-128
-256
-352
-400
-384
-288
-176
-16
176
384
576
624
448
304
256
272
256
224
128
0
-112
-224
-320
-384
-400
-320
-208
-32
192
448
624
656
496
352
304
304
256
208
112
0
-96
-192
-304
-400
-448
-400
-256
-64
144
384
576
656
544
416
384
368
304
240
176
112
32
-80
-224
-336
-384
-320
-208
-48
144
368
576
688
624
512
448
384
304
256
208
144
48
-64
-192
-288
-304
-256
-144
-16
192
448
704
848
784
624
528
480
416
352
272
192
80
-32
-112
-192
-208
-160
-96
-16
176
448
688
832
784
656
576
544
480
432
336
224
128
64
16
-48
-80
-80
-16
80
272
512
752
848
784
656
608
576
512
416
288
176
112
64
16
-64
-96
-64
16
96
288
512
704
800
752
656
624
592
480
384
256
160
64
-32
-112
-192
-224
-176
-96
0
144
320
512
640
640
544
512
496
432
336
240
144
48
-64
-160
-224
-224
-160
-64
-16
112
304
512
640
608
464
384
352
304
224
128
16
-144
-272
-368
-384
-368
-288
-192
-96
32
240
432
576
512
352
272
272
256
208
96
-64
-192
-304
-384
-448
-464
-416
-320
-176
-32
160
352
464
400
208
144
144
112
48
-48
-160
-288
-368
-448
-512
-528
-464
-320
-144
32
208
368
448
400
208
112
80
32
-48
-144
-240
-352
-432
-544
-624
-656
-560
-384
-192
-32
144
320
416
384
208
112
48
0
-64
-128
-192
-288
-400
-496
-560
-560
-480
-352
-192
-64
112
304
400
368
144
0
-80
-144
-160
-224
-288
-368
-464
-544
-576
-576
-496
-384
-240
-80
96
304
432
400
160
16
-64
-112
-192
-256
-352
-448
-512
-560
-608
-640
-608
-512
-368
-160
48
256
400
368
176
32
-16
-64
-128
-224
-320
-384
-416
-464
-496
-544
-528
-416
-288
-96
80
288
448
448
288
160
96
16
-80
-176
-256
-304
-368
-416
-480
-496
-448
-320
-176
-16
176
368
544
592
464
352
272
192
96
0
-96
-176
-256
-336
-384
-416
-368
-272
-160
-48
128
320
544
592
480
368
304
256
176
96
0
-112
-224
-304
-336
-336
-304
-224
-144
-48
128
320
512
576
448
320
272
240
176
80
-48
-192
-304
-368
-400
-448
-432
-352
-240
64
-32
-144
-288
-416
-528
-592
-560
-464
-320
-192
-16
176
368
496
416
272
208
192
160
128
48
-96
-256
-384
-496
-560
-560
-496
-384
-240
-64
144
336
432
336
160
112
128
112
64
-16
-144
-272
-384
-464
-544
-560
-528
-400
-240
0
224
432
512
400
224
160
144
96
32
-64
-176
-272
-368
-464
-576
-624
-576
-448
-272
-64
160
368
480
416
256
176
144
80
0
-64
-128
-208
-304
-432
-544
-592
-528
-400
-272
-64
128
320
464
416
240
144
64
-16
-80
-128
-192
-288
-368
-464
-544
-560
-512
-384
-256
-80
128
368
512
480
272
144
64
0
-80
-160
-256
-352
-448
-528
-576
-576
-528
-448
-352
-160
80
288
448
416
240
144
96
48
-16
-112
-224
-304
-368
-416
-448
-464
-448
-352
-256
-64
144
352
464
432
256
176
128
64
-32
-144
-256
-320
-352
-400
-432
-448
-400
-304
-176
-16
176
368
480
512
384
320
288
192
80
-32
-128
-224
-304
-368
-432
-448
-384
-256
-128
16
176
368
512
544
416
336
288
224
144
64
-32
-144
-240
-320
-352
-336
-256
-128
-32
64
256
448
608
624
464
336
288
240
176
96
-32
-176
-304
-384
-400
-384
-304
-176
-48
80
288
496
640
656
480
368
352
336
272
192
32
-96
-224
-304
-336
-368
-320
-208
-64
80
288
496
608
592
416
320
304
288
224
144
32
-80
-176
-256
-320
-336
-304
-160
0
160
352
528
640
640
464
352
304
256
192
112
16
-80
-176
-288
-400
-464
-400
-240
-80
80
272
448
592
624
496
368
288
256
192
144
80
0
-128
-256
-352
-400
-368
-256
-112
32
240
448
624
656
496
320
224
176
160
112
48
-48
-160
-256
-320
-352
-304
-224
-96
48
272
496
672
720
544
368
272
240
192
128
32
-64
-160
-224
-288
-368
-368
-304
-176
0
240
464
640
672
560
400
336
304
240
160
64
0
-64
-112
-192
-304
-320
-272
-160
0
192
416
608
672
576
432
352
288
192
96
16
-32
-112
-192
-272
-336
-336
-256
-128
0
176
384
608
736
672
528
416
336
240
160
80
-16
-112
-208
-288
-368
-352
-288
-192
-80
80
288
560
688
640
480
400
352
288
192
96
-16
-144
-224
-272
-304
-272
-224
-160
-48
112
336
560
672
592
432
352
320
256
160
32
-112
-224
-272
-320
-352
-336
-288
-176
-64
128
336
544
640
560
432
384
368
304
176
48
-80
-192
-256
-320
-384
-400
-336
-224
-80
64
240
400
512
480
368
304
288
224
144
48
-64
-176
-272
-352
-416
-416
-320
-176
-48
64
240
400
528
496
352
272
224
176
112
32
-80
-208
-336
-448
-512
-480
-416
-272
-144
0
192
400
544
512
352
272
256
224
192
112
-32
-192
-320
-432
-496
-496
-448
-336
-208
-32
160
368
496
448
240
144
160
144
112
32
-96
-208
-320
-400
-480
-528
-496
-384
-224
-32
192
416
512
480
288
192
160
128
64
-32
-144
-256
-336
-448
-544
-624
-592
-464
-288
-96
96
304
432
448
272
176
144
96
16
-32
-112
-192
-288
-416
-528
-608
-576
-448
-320
-144
48
256
416
464
288
144
64
0
-64
-80
-160
-240
-336
-448
-528
-576
-544
-432
-304
-144
64
304
496
560
368
224
144
96
32
-48
-144
-256
-368
-448
-496
-544
-528
-464
-368
-208
48
272
464
512
352
224
160
128
64
-16
-128
-240
-304
-368
-400
-448
-480
-416
-304
-144
80
288
464
512
352
240
192
144
32
-80
-192
-272
-336
-400
-432
-480
-464
-384
-272
-128
64
272
464
544
432
336
272
192
96
0
-112
-208
-304
-384
-432
-496
-464
-352
-240
-128
32
208
400
528
416
320
256
224
144
64
-16
-128
-240
-336
-384
-416
-368
-272
-192
-96
64
272
480
576
464
336
272
256
208
112
-16
-144
-288
-384
-400
-432
-384
-304
-192
-64
112
320
512
592
480
352
320
336
288
208
64
-80
-208
-288
-352
-416
-400
-320
-208
-64
112
304
464
528
432
320
288
288
256
160
64
-48
-160
-256
-336
-400
-384
-288
-144
16
192
368
528
592
512
368
304
272
208
144
48
-48
-160
-272
-384
-464
-432
-288
-144
16
176
368
560
640
560
416
320
288
240
208
160
64
-64
-192
-304
-368
-352
-272
-128
0
176
384
576
672
576
384
272
240
224
192
128
16
-96
-192
-272
-320
-304
-224
-112
32
240
496
720
784
672
464
352
320
272
208
112
16
-80
-144
-208
-288
-320
-272
-160
16
224
464
672
736
672
496
400
368
304
224
144
64
0
-48
-112
-224
-256
-208
-96
48
224
432
640
736
688
528
416
352
256
160
96
32
-32
-96
-176
-256
-256
-192
-64
64
208
416
624
752
752
608
480
400
304
224
144
64
-32
-128
-224
-272
-288
-240
-144
-32
96
320
576
736
736
560
432
384
320
240
160
32
-80
-160
-224
-240
-224
-192
-128
-16
112
336
544
688
672
496
384
352
288
192
80
-64
-176
-224
-288
-320
-336
-288
-176
-48
96
320
528
656
640
496
416
384
320
192
64
-64
-176
-240
-320
-368
-384
-336
-208
-80
64
224
400
512
544
416
320
288
224
144
48
-48
-144
-224
-320
-384
-400
-320
-160
-32
64
240
400
544
576
416
304
240
192
128
48
-48
-176
-304
-416
-480
-464
-400
-256
-112
32
224
416
576
608
432
320
272
272
224
160
48
-112
-256
-368
-416
-432
-368
-256
-112
48
256
448
608
608
416
272
256
240
192
128
16
-96
-208
-304
-352
-400
-368
-256
-80
128
352
544
656
672
480
336
288
256
176
96
-16
-112
-208
-304
-384
-448
-416
-288
-96
96
288
480
640
672
496
352
272
224
144
80
0
-64
-144
-256
-352
-432
-400
-288
-144
32
224
384
560
624
464
272
160
96
32
0
-64
-144
-240
-336
-400
-480
-448
-352
-224
-64
160
368
592
688
512
304
192
144
64
0
-96
-208
-320
-400
-448
-512
-512
-448
-336
-176
80
288
512
592
448
336
304
320
288
208
80
-64
-192
-320
-464
-672
-832
-880
-816
-688
-464
-176
160
416
416
352
336
320
240
128
0
-112
-240
-368
-512
-704
-816
-848
-768
-640
-432
-160
160
416
496
448
432
384
320
208
96
-32
-192
-336
-496
-688
-784
-816
-752
-656
-512
-272
64
368
448
368
320
288
224
144
48
-64
-208
-336
-448
-544
-560
-528
-448
-368
-224
0
256
464
480
320
240
208
144
80
-48
-176
-336
-416
-448
-464
-432
-368
-256
-128
48
256
448
560
512
336
288
288
240
160
16
-128
-272
-352
-416
-464
-480
-416
-288
-144
32
224
400
496
448
304
256
240
208
112
16
-112
-224
-304
-384
-432
-448
-352
-208
-48
112
272
464
544
528
352
272
240
176
96
16
-80
-192
-320
-416
-496
-496
-400
-240
-96
64
240
432
544
560
400
288
240
208
176
128
32
-112
-240
-368
-432
-448
-384
-256
-128
16
224
432
560
560
352
208
176
160
128
64
-32
-160
-272
-368
-432
-448
-400
-288
-144
48
304
544
656
656
464
320
288
256
176
96
-16
-128
-208
-304
-384
-432
-432
-304
-128
80
352
592
736
768
624
496
464
416
336
256
176
112
48
-48
-160
-224
-208
-80
64
208
480
736
864
912
800
688
608
528
432
368
336
272
192
96
32
-16
16
144
256
368
608
848
1024
1072
976
832
752
688
608
544
464
384
288
176
112
80
96
160
224
320
544
800
976
1024
912
784
704
656
576
496
384
272
176
96
48
16
16
48
112
208
400
592
752
784
656
528
464
416
320
192
32
-96
-160
-224
-272
-336
-352
-288
-192
-80
96
272
416
464
352
224
176
128
-16
-144
-288
-400
-512
-592
-672
-736
-752
-688
-560
-448
-352
-208
-64
48
-48
-192
-256
-304
-416
-512
-640
-752
-880
-976
-1056
-1104
-1072
-976
-848
-736
-640
-512
-336
-208
-352
-528
-608
-640
-720
-800
-912
-1072
-1216
-1312
-1360
-1360
-1344
-1232
-1104
-960
-784
-576
-368
-288
-448
-624
-688
-688
-704
-768
-896
-1056
-1184
-1264
-1296
-1328
-1296
-1216
-1088
-928
-704
-496
-304
-256
-416
-560
-592
-560
-592
-656
-768
-880
-992
-1056
-1088
-1136
-1120
-1040
-880
-688
-448
-224
-64
-32
-144
-288
-352
-352
-384
-448
-544
-624
-704
-784
-848
-928
-928
-848
-672
-512
-320
-96
80
160
112
-16
-80
-112
-160
-192
-240
-288
-368
-480
-592
-672
-672
-592
-464
-336
-176
32
240
368
320
144
32
-32
-48
-48
-96
-160
-256
-352
-432
-496
-496
-432
-336
-208
-32
192
416
592
528
336
224
176
144
112
48
-32
-144
-224
-304
-368
-400
-384
-304
-192
0
208
432
624
608
432
336
304
288
224
128
32
-32
-96
-160
-240
-320
-304
-208
-80
96
272
464
640
640
496
400
368
288
192
96
32
-16
-80
-160
-240
-304
-288
-192
-48
80
240
448
656
704
576
480
400
320
224
144
48
-64
-176
-272
-352
-400
-368
-272
-176
-48
128
352
592
672
544
432
384
336
272
192
96
-32
-144
-224
-272
-288
-240
-160
-64
48
256
512
688
784
656
560
528
512
448
352
224
80
-48
-96
-144
-160
-128
-32
80
208
432
672
816
896
752
672
656
640
576
448
304
160
48
-32
-112
-176
-160
-64
64
192
416
640
752
816
720
656
656
624
560
480
368
256
144
32
-80
-144
-128
-16
112
208
384
576
688
736
624
512
464
400
320
256
144
16
-144
-288
-400
-464
-416
-320
-192
-96
96
288
432
512
400
256
208
176
128
96
0
-160
-320
-464
-576
-640
-640
-560
-464
-336
-160
48
224
272
112
-48
-96
-80
-112
-160
-256
-384
-528
-640
-720
-784
-784
-720
-608
-432
-240
-32
144
176
16
-128
-176
-176
-240
-304
-416
-528
-624
-736
-832
-928
-960
-912
-752
-544
-320
-144
64
144
0
-144
-192
-208
-272
-352
-416
-480
-544
-624
-736
-832
-864
-800
-688
-528
-304
-80
96
176
64
-80
-160
-208
-288
-336
-384
-432
-496
-576
-640
-704
-720
-640
-528
-416
-176
48
272
368
288
112
16
-32
-96
-144
-224
-304
-384
-448
-496
-544
-560
-528
-464
-384
-192
80
288
384
320
160
80
16
-96
-192
-272
-320
-320
-256
-144
16
192
352
512
640
784
912
912
784
512
208
48
-48
-176
-288
-400
-448
-432
-368
-272
-128
48
240
416
576
736
832
864
768
544
256
112
16
-128
-240
-320
-368
-384
-368
-288
-160
32
256
464
608
720
800
848
784
592
304
144
64
-16
-96
-160
-240
-304
-352
-368
-336
-208
-48
128
224
336
480
608
640
528
288
160
112
80
32
-48
-160
-304
-416
-496
-528
-528
-464
-352
-256
-96
112
352
512
480
320
240
240
240
192
96
-48
-192
-304
-384
-432
-448
-400
-288
-176
-16
176
368
512
480
304
272
288
288
240
160
64
-48
-144
-224
-304
-352
-304
-160
0
176
352
528
672
704
560
480
464
448
384
320
256
160
64
-64
-176
-224
-160
0
160
288
464
688
848
912
816
720
688
656
608
576
528
432
288
144
32
-16
32
160
256
368
576
800
976
1024
880
768
704
672
656
624
560
464
352
256
160
112
144
224
304
464
736
1008
1184
1184
992
880
816
784
736
656
560
448
352
272
208
144
144
192
272
480
752
992
1152
1152
960
880
832
800
720
624
528
464
384
336
256
144
144
192
304
496
720
928
1104
1120
944
832
784
704
592
496
416
352
272
192
112
48
64
128
256
400
576
784
976
1040
896
752
672
576
448
352
256
144
32
-80
-160
-224
-208
-128
-32
48
208
400
608
688
560
416
320
256
160
80
-48
-176
-304
-384
-448
-480
-464
-384
-320
-256
-96
112
288
368
256
80
0
-48
-128
-240
-400
-544
-688
-752
-800
-832
-800
-688
-544
-480
-304
-96
80
160
80
-48
-112
-144
-224
-368
-496
-624
-736
-816
-896
-960
-960
-864
-704
-592
-464
-288
-112
0
0
-112
-144
-144
-208
-288
-384
-480
-560
-624
-688
-720
-672
-560
-368
-272
-176
-16
128
224
160
-16
-80
-112
-160
-208
-288
-368
-480
-592
-656
-672
-560
-400
-192
-32
144
320
512
-272
-368
-480
-528
-480
-320
-128
80
336
544
672
608
464
400
352
288
208
128
64
0
-80
-192
-272
-304
-256
-128
-32
128
336
528
656
608
432
336
272
192
144
112
48
-16
-80
-160
-208
-208
-144
-32
64
224
432
640
800
752
560
432
368
304
256
192
112
16
-80
-144
-208
-256
-224
-144
-48
128
384
624
800
768
592
512
464
416
368
272
176
80
32
-16
-64
-128
-144
-64
32
208
432
640
800
784
624
560
528
464
368
256
144
80
32
-32
-96
-144
-128
-32
96
272
480
688
848
896
768
736
704
608
512
384
272
192
96
16
-80
-144
-128
-32
64
176
336
544
736
832
704
656
624
576
496
400
304
208
80
-32
-96
-128
-80
16
80
176
368
576
768
848
704
608
576
544
480
400
256
128
0
-112
-144
-192
-160
-64
32
144
352
560
752
816
656
560
560
560
496
400
240
96
-32
-128
-208
-256
-240
-160
-48
96
304
496
640
688
528
464
448
448
400
304
192
64
-48
-144
-224
-288
-272
-144
16
176
384
560
704
736
592
496
464
432
368
288
192
96
-32
-144
-272
-352
-320
-208
-64
80
272
496
672
752
640
528
464
448
400
368
304
192
48
-96
-224
-304
-288
-192
-64
64
256
496
704
784
640
480
400
384
368
320
256
144
16
-96
-192
-288
-304
-240
-112
16
224
480
720
784
624
448
368
352
304
224
128
16
-112
-208
-288
-384
-432
-384
-256
-112
112
352
560
640
528
368
288
272
192
112
16
-64
-160
-224
-304
-432
-464
-416
-272
-144
32
240
432
512
416
256
176
112
16
-80
-144
-208
-288
-368
-448
-512
-512
-448
-304
-192
-48
160
384
528
480
320
192
128
32
-32
-112
-208
-304
-384
-464
-528
-512
-448
-320
-240
-112
96
352
496
464
288
208
160
96
32
-48
-160
-256
-336
-384
-432
-416
-384
-288
-176
-48
176
384
528
464
288
208
176
112
16
-96
-240
-352
-384
-432
-480
-480
-432
-304
-160
-32
176
368
480
464
320
256
256
176
48
-64
-208
-304
-384
-464
-544
-576
-528
-400
-240
-112
64
240
352
384
240
176
160
96
16
-80
-192
-304
-416
-512
-608
-624
-560
-416
-256
-160
16
208
368
416
256
192
160
112
48
-32
-144
-288
-432
-560
-656
-672
-624
-512
-368
-224
0
240
432
496
336
272
272
272
240
176
32
-144
-288
-416
-512
-592
-576
-496
-352
-192
32
288
496
528
352
272
304
304
256
176
48
-80
-208
-336
-432
-528
-544
-448
-288
-96
144
368
528
560
400
320
304
288
224
144
32
-64
-176
-304
-448
-576
-576
-464
-288
-96
112
336
512
560
416
320
288
240
176
112
48
-48
-144
-304
-416
-528
-512
-432
-304
-128
64
256
464
512
352
224
144
80
16
-16
-96
-176
-288
-400
-480
-544
-544
-448
-352
-176
32
256
480
544
368
208
144
96
32
-48
-144
-256
-368
-448
-512
-592
-608
-544
-448
-288
-16
208
416
480
320
192
128
96
16
-80
-192
-288
-368
-416
-448
-528
-560
-496
-416
-256
-16
176
368
416
272
160
112
64
-32
-160
-272
-352
-400
-464
-512
-576
-576
-496
-368
-224
-16
160
352
432
336
240
192
112
16
-96
-208
-288
-384
-464
-528
-560
-544
-448
-336
-240
-64
144
336
432
336
224
160
112
32
-48
-144
-240
-352
-432
-480
-480
-432
-336
-272
-176
-16
176
352
432
320
192
128
112
64
-16
-144
-272
-400
-480
-496
-512
-464
-384
-288
-176
-16
192
352
448
336
208
176
192
160
64
-80
-208
-336
-416
-464
-512
-512
-432
-320
-192
-32
160
288
368
272
176
160
176
128
48
-64
-176
-272
-368
-448
-512
-512
-416
-288
-128
16
160
320
416
368
224
176
160
112
48
-48
-144
-256
-400
-512
-608
-592
-496
-352
-224
-48
160
336
480
448
288
208
192
160
128
64
-32
-192
-336
-464
-544
-544
-480
-368
-256
-80
128
336
480
416
224
128
112
128
96
32
-64
-192
-304
-400
-480
-496
-464
-368
-240
-64
176
400
528
480
288
208
192
160
112
32
-80
-192
-272
-368
-480
-544
-544
-448
-288
-96
128
336
480
464
320
240
208
176
96
32
-32
-112
-176
-288
-416
-480
-480
-384
-256
-96
128
320
464
480
336
240
176
96
16
-32
-96
-160
-224
-320
-416
-464
-432
-336
-224
-80
128
352
528
576
432
304
240
160
80
0
-80
-176
-272
-352
-416
-448
-400
-336
-272
-160
48
272
432
480
336
240
208
160
112
48
-48
-160
-224
-288
-320
-352
-368
-336
-256
-144
48
256
400
448
288
208
192
176
112
0
-128
-240
-288
-336
-368
-416
-416
-352
-272
-144
48
240
368
432
320
256
256
208
112
16
-112
-208
-288
-368
-448
-496
-496
-416
-288
-176
0
160
304
384
288
208
192
144
80
0
-96
-208
-304
-416
-480
-512
-480
-368
-240
-144
32
208
368
448
336
240
192
144
80
0
-112
-256
-400
-512
-560
-544
-496
-384
-272
-144
48
240
400
464
336
208
176
176
144
80
-48
-192
-336
-432
-480
-512
-480
-384
-256
-112
96
288
432
464
288
176
160
176
128
64
-48
-160
-272
-352
-416
-464
-448
-352
-192
-32
192
384
496
544
384
256
208
192
144
80
-32
-112
-208
-304
-400
-480
-480
-368
-192
-32
176
368
528
608
480
336
272
224
160
112
64
0
-96
-240
-336
-416
-400
-304
-176
-32
144
352
528
624
496
336
240
192
144
112
48
-16
-128
-224
-304
-352
-336
-256
-144
-16
176
400
592
688
560
368
256
208
160
96
16
-80
-192
-272
-320
-384
-384
-336
-256
-112
112
336
528
624
512
336
256
224
160
64
-32
-112
-192
-240
-288
-336
-368
-320
-208
-64
128
336
496
592
496
336
256
208
112
0
-96
-160
-224
-272
-320
-384
-384
-320
-192
-64
112
304
496
624
576
448
352
272
176
80
0
-80
-176
-256
-320
-384
-368
-304
-224
-128
0
176
368
528
512
384
320
272
224
144
64
-16
-128
-224
-272
-320
-288
-240
-176
-112
32
224
416
544
544
400
336
304
272
208
96
-32
-160
-240
-272
-304
-304
-256
-176
-80
64
288
480
592
608
464
416
432
400
320
192
64
-64
-128
-192
-240
-256
-208
-96
32
176
368
544
624
624
512
464
464
432
352
272
176
80
0
-80
-128
-144
-48
112
256
368
544
704
784
800
656
576
544
512
432
368
288
192
80
-32
-96
-80
16
160
288
416
624
816
896
896
752
640
608
592
544
512
432
304
160
48
-16
-16
32
144
256
368
592
800
912
880
704
576
544
544
512
464
368
256
160
64
0
-32
-16
80
192
352
592
816
912
880
704
576
544
512
448
368
272
160
64
-32
-128
-192
-208
-112
32
192
432
640
768
768
624
512
480
432
352
288
208
128
64
-32
-144
-208
-224
-144
-32
112
288
496
640
672
544
416
352
288
208
160
112
32
-48
-144
-224
-272
-272
-176
-80
32
208
432
624
704
576
432
352
288
224
160
80
-16
-112
-208
-272
-320
-304
-256
-176
-96
80
336
528
624
496
368
320
288
224
160
64
-32
-112
-176
-208
-256
-272
-240
-160
-48
128
352
528
608
480
352
320
288
192
96
-48
-144
-208
-256
-288
-336
-336
-272
-160
-48
144
336
496
576
480
384
352
304
176
80
-48
-144
-224
-288
-336
-400
-384
-288
-160
-48
96
256
400
480
400
304
256
208
128
48
-64
-144
-256
-336
-384
-400
-336
-224
-112
-32
96
256
416
496
384
240
176
128
64
0
-96
-208
-352
-448
-496
-480
-416
-304
-192
-80
64
240
400
480
368
208
160
160
144
80
-32
-160
-288
-384
-432
-464
-448
-368
-240
-112
48
256
416
464
336
160
128
128
96
32
-64
-176
-272
-352
-400
-448
-448
-352
-192
-32
144
336
448
496
384
240
176
144
96
32
-64
-144
-224
-320
-416
-496
-496
-400
-224
-80
80
272
432
528
448
304
208
176
128
96
48
-16
-112
-240
-352
-448
-432
-368
-240
-96
48
224
432
544
496
320
192
144
96
80
32
-32
-144
-240
-320
-400
-400
-336
-224
-96
64
288
528
656
592
400
288
256
208
160
80
-16
-112
-208
-288
-352
-400
-384
-304
-176
32
256
496
640
608
448
352
320
272
192
112
16
-48
-112
-160
-256
-320
-320
-224
-96
64
288
512
640
624
496
400
352
272
160
80
0
-48
-112
-176
-256
-304
-272
-176
-48
96
288
512
672
704
576
496
400
336
240
160
64
-32
-128
-208
-272
-288
-256
-176
-96
16
192
432
624
656
544
448
400
352
288
208
112
-16
-112
-192
-208
-208
-192
-128
-64
32
224
464
640
672
528
432
400
368
304
192
64
-80
-176
-224
-272
-288
-272
-192
-96
16
224
432
576
608
480
416
416
400
320
192
64
-64
-160
-240
-304
-352
-336
-256
-144
-16
160
336
448
496
400
336
320
304
224
144
32
-80
-176
-272
-352
-400
-352
-240
-96
16
160
320
448
496
384
288
256
224
160
96
0
-112
-240
-368
-464
-480
-416
-304
-160
-48
128
320
464
528
400
288
240
224
192
144
64
-80
-224
-336
-416
-432
-400
-304
-176
-64
128
336
496
544
384
240
192
224
192
128
32
-80
-176
-272
-336
-384
-384
-304
-160
0
224
448
608
624
448
304
256
240
192
112
16
-80
-176
-272
-352
-416
-416
-336
-176
-16
208
416
576
640
496
368
304
272
192
128
48
-16
-80
-176
-288
-368
-368
-272
-128
16
208
400
560
640
512
352
256
192
112
64
16
-48
-144
-240
-320
-352
-320
-240
-112
0
176
400
608
720
592
400
304
224
160
96
16
-64
-176
-272
-336
-368
-336
-288
-192
-96
80
336
544
640
528
368
288
256
192
128
16
-80
-176
-224
-256
-304
-304
-272
-192
-80
96
304
496
576
480
336
272
240
160
48
-80
-176
-224
-288
-320
-368
-368
-320
-208
-80
80
272
448
544
496
368
336
288
192
80
-32
-112
-208
-272
-352
-416
-416
-352
-224
-112
0
176
352
480
464
336
272
240
176
96
16
-80
-176
-272
-352
-384
-368
-272
-160
-80
16
192
384
512
480
320
240
208
176
112
32
-80
-224
-336
-400
-416
-400
-320
-224
-112
16
208
416
544
496
352
288
288
288
240
128
-16
-144
-256
-336
-400
-416
-368
-256
-128
32
224
416
512
464
304
256
256
256
192
96
-16
-128
-208
-304
-368
-384
-352
-208
-48
112
320
464
576
544
384
304
272
240
176
96
0
-80
-192
-304
-400
-448
-384
-240
-96
64
240
432
576
592
432
336
272
240
208
160
96
0
-128
-240
-336
-384
-352
-256
-112
16
224
448
608
608
416
272
192
176
160
112
48
-48
-144
-224
-288
-336
-304
-224
-112
32
256
496
656
656
464
320
256
224
176
112
16
-80
-144
-224
-288
-368
-368
-304
-192
-16
192
416
576
608
448
336
288
256
176
96
16
-48
-96
-160
-240
-336
-352
-288
-160
-16
192
400
560
608
464
336
272
208
96
16
-32
-96
-160
-224
-304
-352
-336
-256
-128
-16
176
384
560
656
544
416
320
240
144
64
-16
-96
-176
-272
-336
-368
-336
-256
-160
-80
80
304
512
608
496
368
304
256
176
112
16
-96
-192
-256
-288
-288
-272
-224
-128
-48
144
352
528
608
480
352
288
256
192
96
-32
-160
-256
-288
-304
-336
-304
-240
-128
-16
160
368
528
608
480
400
368
352
256
144
16
-96
-192
-272
-320
-368
-352
-272
-144
-16
144
304
448
528
448
352
320
304
224
144
32
-64
-160
-240
-304
-352
-320
-208
-64
48
176
352
496
576
496
368
304
272
192
128
48
-64
-192
-304
-384
-416
-352
-256
-128
-16
128
320
496
592
512
352
288
272
240
208
128
-16
-160
-272
-352
-384
-368
-288
-176
-48
112
304
496
560
448
272
208
224
192
144
64
-48
-160
-256
-320
-368
-368
-304
-176
-32
160
384
544
592
496
320
256
240
192
128
32
-64
-160
-256
-336
-416
-448
-400
-240
-80
96
304
480
576
512
352
288
-384
-304
-208
-64
192
416
576
560
384
288
256
208
160
64
-48
-144
-208
-256
-304
-352
-352
-272
-160
-16
208
432
560
560
384
304
272
208
112
-16
-128
-192
-256
-304
-352
-384
-352
-256
-128
0
192
400
544
576
448
384
352
256
144
48
-64
-144
-224
-304
-368
-400
-352
-240
-128
-32
128
320
480
544
416
336
288
240
160
80
-16
-112
-208
-304
-336
-352
-272
-176
-80
0
160
352
512
544
400
304
256
224
160
80
-48
-192
-304
-384
-384
-384
-320
-224
-112
0
176
384
528
560
400
304
288
288
240
144
0
-128
-240
-320
-368
-400
-368
-272
-144
0
192
368
496
512
352
288
272
272
208
112
0
-112
-208
-288
-352
-400
-368
-256
-96
64
240
400
528
544
400
288
256
240
160
96
0
-96
-208
-336
-432
-480
-432
-288
-144
0
176
368
528
576
432
320
256
224
192
160
96
0
-144
-272
-368
-432
-400
-304
-176
-48
128
336
512
576
416
256
176
160
144
112
48
-64
-176
-272
-352
-384
-368
-288
-176
-32
176
416
592
624
464
304
240
208
160
112
16
-80
-176
-256
-336
-416
-432
-384
-256
-80
128
368
560
624
496
352
288
272
192
112
32
-48
-128
-192
-288
-384
-384
-320
-192
-64
128
336
512
592
480
336
256
192
96
16
-32
-96
-160
-224
-304
-368
-384
-304
-176
-64
96
304
512
640
560
416
304
240
160
80
0
-80
-176
-256
-320
-368
-368
-304
-224
-128
16
224
464
592
528
368
272
240
176
112
32
-64
-160
-224
-256
-288
-288
-272
-192
-112
32
256
464
576
496
352
272
256
192
112
0
-128
-224
-256
-288
-336
-352
-320
-208
-96
64
272
464
576
528
416
368
368
304
176
48
-64
-160
-224
-304
-368
-400
-336
-208
-96
32
208
368
496
480
368
320
288
224
144
48
-48
-144
-240
-320
-384
-384
-288
-160
-48
64
240
416
544
528
384
304
256
208
144
64
-48
-176
-304
-416
-464
-432
-352
-208
-96
48
240
448
576
560
384
288
272
240
208
144
0
-144
-256
-336
-400
-416
-352
-240
-128
32
240
432
544
512
320
224
224
208
160
80
-32
-144
-240
-304
-368
-400
-368
-240
-80
80
304
496
576
560
368
288
256
224
144
64
-32
-128
-208
-304
-400
-464
-448
-288
-144
32
240
432
560
560
400
304
256
208
144
96
16
-48
-144
-272
-368
-432
-384
-272
-144
-16
192
384
544
576
400
272
192
128
80
64
-16
-96
-208
-304
-368
-416
-368
-272
-144
-16
192
432
624
656
448
320
240
192
144
80
-16
-112
-208
-288
-336
-384
-384
-320
-224
-96
144
384
576
624
448
336
272
240
176
80
-16
-96
-160
-192
-240
-320
-336
-272
-160
-32
176
384
544
592
448
336
288
224
128
16
-80
-128
-192
-240
-288
-336
-336
-240
-128
0
176
384
560
640
528
432
368
272
176
80
-16
-112
-192
-256
-304
-352
-336
-240
-128
-48
96
272
480
576
464
368
304
256
192
112
16
-80
-192
-272
-304
-320
-272
-192
-112
-32
112
304
496
592
464
336
272
256
192
112
-16
-144
-272
-336
-352
-368
-336
-256
-128
-32
128
320
496
576
448
336
304
320
272
176
32
-96
-208
-272
-336
-384
-368
-304
-176
-48
112
288
448
496
400
304
272
272
224
144
32
-80
-176
-256
-336
-384
-368
-272
-112
32
176
320
464
544
464
320
272
240
192
112
32
-64
-176
-304
-400
-464
-432
-320
-176
-48
96
288
464
576
496
336
272
240
208
176
112
16
-128
-256
-368
-416
-400
-336
-208
-80
64
272
464
576
480
288
192
176
176
144
80
-32
-160
-256
-336
-384
-384
-336
-208
-80
112
352
560
624
528
336
240
224
192
128
64
-48
-144
-224
-304
-400
-432
-416
-288
-128
64
288
480
592
528
352
288
256
192
128
64
-16
-80
-160
-256
-352
-400
-368
-256
-128
32
240
432
560
544
384
272
208
128
48
0
-48
-128
-208
-304
-384
-400
-368
-240
-128
16
240
464
624
640
464
336
272
192
112
32
-48
-160
-256
-336
-384
-400
-352
-288
-192
-64
160
416
576
592
416
304
256
208
144
64
-32
-144
-224
-272
-304
-320
-320
-256
-160
-32
192
400
560
576
400
304
272
224
128
16
-112
-208
-256
-320
-368
-384
-352
-256
-144
0
208
400
544
576
432
368
352
288
176
64
-64
-160
-224
-304
-368
-416
-384
-256
-128
-16
160
320
464
528
416
336
304
256
176
80
-16
-112
-208
-304
-352
-368
-320
-176
-64
16
192
384
544
592
432
336
272
224
176
96
-16
-144
-256
-368
-400
-400
-336
-224
-112
0
192
384
544
592
432
320
288
288
256
192
48
-80
-208
-304
-352
-384
-352
-256
-144
-16
176
368
512
544
368
256
240
240
208
128
16
-80
-192
-288
-352
-400
-368
-256
-112
48
256
416
528
560
416
304
256
240
176
96
0
-80
-192
-304
-400
-480
-464
-336
-160
-16
192
384
544
608
480
368
304
256
208
144
80
0
-96
-224
-320
-400
-400
-304
-160
-32
160
368
560
624
480
320
224
176
144
112
32
-48
-144
-240
-304
-368
-368
-288
-176
-64
128
384
608
688
544
368
272
240
192
128
48
-64
-176
-256
-320
-384
-400
-368
-256
-144
80
336
560
656
528
368
288
256
208
128
32
-64
-144
-192
-240
-336
-368
-336
-224
-96
80
304
496
592
496
368
304
240
160
48
-48
-112
-192
-256
-320
-400
-384
-336
-208
-80
96
304
512
656
592
480
400
320
224
112
16
-64
-160
-256
-336
-400
-384
-320
-208
-112
16
208
448
592
544
416
320
272
208
144
48
-48
-160
-240
-304
-320
-304
-240
-160
-80
48
240
448
576
528
368
288
272
224
144
32
-112
-240
-320
-336
-368
-368
-320
-208
-96
48
256
464
576
528
384
320
336
288
192
64
-64
-192
-272
-336
-384
-400
-352
-224
-96
48
240
384
480
448
336
272
272
224
144
64
-48
-144
-224
-320
-400
-416
-336
-192
-48
96
240
416
528
528
384
320
288
240
160
80
-32
-144
-256
-384
-464
-464
-384
-224
-96
48
240
432
576
576
400
304
256
240
208
160
48
-96
-208
-336
-416
-416
-384
-256
-128
0
208
416
560
560
352
224
192
208
176
112
16
-112
-208
-304
-368
-400
-384
-272
-128
48
288
496
608
592
400
272
240
208
160
80
-32
-128
-224
-304
-384
-448
-448
-352
-176
-16
224
432
560
592
416
304
272
208
144
80
16
-64
-144
-240
-352
-416
-416
-304
-160
-32
192
400
560
592
432
320
240
176
96
48
-16
-96
-176
-272
-336
-400
-368
-272
-160
-32
176
416
608
688
528
368
272
208
144
80
-16
-112
-208
-288
-352
-400
-384
-320
-224
-112
96
352
560
640
480
352
288
240
176
112
0
-96
-176
-240
-272
-304
-320
-272
-192
-80
128
352
544
624
480
336
288
256
160
48
-80
-176
-224
-272
-304
-352
-368
-272
-160
-48
160
352
512
608
496
400
368
304
192
96
-32
-112
-208
-272
-336
-384
-384
-288
-160
-64
96
272
432
560
464
352
304
272
192
112
16
-80
-176
-272
-320
-336
-304
-192
-80
-16
128
304
480
576
464
336
272
240
176
112
16
-112
-240
-352
-384
-384
-352
-256
-144
-48
112
320
512
608
480
336
288
288
272
208
80
-64
-192
-288
-336
-368
-368
-304
-176
-64
112
320
480
544
416
272
256
256
224
160
48
-48
-160
-240
-304
-368
-384
-304
-160
-16
160
336
496
576
496
336
272
256
208
128
32
-64
-176
-288
-384
-480
-480
-368
-208
-64
112
304
480
576
512
368
288
240
192
160
96
32
-96
-224
-336
-416
-416
-352
-224
-96
48
240
448
576
512
320
208
160
144
128
64
-16
-144
-240
-336
-400
-400
-352
-240
-128
48
288
512
656
592
384
272
224
192
128
48
-48
-160
-240
-320
-400
-432
-416
-320
-192
0
224
448
576
560
384
288
256
224
144
48
-48
-112
-144
-224
-320
-384
-384
-272
-144
16
224
432
560
560
400
304
256
160
64
-32
-80
-160
-208
-288
-368
-384
-352
-240
-112
32
224
432
592
608
480
384
288
208
112
32
-48
-144
-240
-304
-368
-384
-336
-240
-144
-48
128
352
528
560
416
320
272
208
144
64
-32
-144
-224
-272
-304
-288
-256
-192
-112
-16
176
384
528
544
400
288
256
224
160
48
-80
-208
-288
-320
-336
-352
-320
-240
-128
0
208
416
544
560
416
352
336
320
224
96
-32
-160
-224
-288
-336
-384
-368
-256
-128
-16
160
336
448
480
384
304
288
256
176
96
0
-112
-208
-304
-368
-416
-368
-240
-96
32
176
352
496
544
416
320
272
240
176
96
0
-128
-272
-400
-480
-496
-432
-304
-160
-32
160
352
528
592
448
320
272
256
224
176
80
-64
-224
-352
-432
-448
-416
-304
-176
-64
128
336
512
560
400
240
208
224
176
128
32
-96
-208
-304
-368
-416
-400
-304
-144
0
240
448
576
608
448
304
240
224
160
96
-16
-96
-192
-272
-368
-448
-464
-384
-208
-48
176
384
544
608
464
336
272
224
160
96
48
-16
-80
-192
-304
-400
-416
-320
-176
-64
112
304
496
592
496
336
240
160
96
48
0
-64
-144
-240
-320
-400
-384
-304
-192
-80
96
336
560
672
560
384
288
224
160
112
32
-64
-176
-272
-336
-400
-400
-368
-288
-192
0
272
496
624
528
368
304
272
208
144
32
-80
-160
-224
-272
-320
-368
-336
-256
-144
48
288
512
624
528
368
304
256
176
80
-48
-144
-208
-256
-304
-368
-384
-336
-224
-112
64
272
464
592
560
432
384
336
224
112
16
-80
-176
-272
-352
-416
-432
-368
-240
-128
0
176
368
528
528
384
320
272
208
128
48
-48
-176
-272
-352
-384
-352
-272
-160
-80
32
208
416
560
544
384
304
272
224
144
48
-80
-224
-336
-416
-432
-416
-336
-224
-112
16
224
432
576
544
368
304
304
288
224
112
-32
-176
-272
-352
-416
-416
-368
-256
-128
32
240
416
512
480
304
256
256
240
176
80
-32
-144
-224
-304
-368
-416
-352
-208
-48
96
288
448
544
528
368
272
240
208
144
64
-32
-128
-224
-336
-432
-480
-416
-272
-112
48
240
448
576
576
416
304
256
208
176
128
48
-64
-192
-304
-400
-432
-384
-272
-144
0
192
432
592
608
400
256
192
176
160
96
16
-96
-208
-304
-384
-416
-384
-288
-160
0
224
480
640
640
432
288
240
208
160
80
-16
-128
-224
-304
-384
-448
-448
-384
-240
-64
160
400
560
608
448
320
256
240
160
80
0
-80
-128
-208
-304
-400
-416
-336
-208
-64
128
352
512
592
448
320
240
176
80
0
-64
-112
-176
-256
-336
-400
-384
-304
-160
-48
128
352
544
656
528
400
288
208
128
48
-32
-112
-208
-272
-336
-384
-368
-288
-192
-112
48
288
512
608
496
368
288
256
176
96
0
-112
-208
-256
-288
-304
-288
-240
-144
-64
112
336
512
592
464
320
272
224
160
64
-64
-192
-272
-304
-320
-336
-320
-256
-144
-32
128
320
480
560
464
368
336
320
224
112
0
-112
-208
-272
-320
-368
-368
-288
-160
-48
96
240
384
464
416
320
288
256
176
112
16
-80
-176
-256
-336
-384
-352
-240
-112
0
112
272
416
528
464
320
256
224
160
112
32
-80
-208
-320
-400
-432
-400
-320
-176
-64
80
272
464
576
496
352
288
272
256
208
112
-32
-176
-304
-368
-416
-400
-336
-208
-96
80
288
480
560
448
272
208
224
208
160
64
-48
-160
-256
-320
-384
-400
-352
-208
-64
144
368
544
608
512
336
272
240
192
128
32
-64
-176
-272
-368
-448
-480
-416
-240
-96
96
304
496
592
512
352
288
240
176
112
64
0
-80
-176
-288
-368
-400
-352
-208
-96
48
240
432
544
512
352
240
160
96
64
32
-32
-112
-208
-304
-368
-384
-336
-224
-128
16
224
448
608
592
400
288
224
176
128
48
-32
-144
-240
-320
-384
-416
-400
-304
-192
-48
208
432
592
576
400
304
256
224
144
64
112
304
496
560
448
352
288
240
160
80
-16
-112
-208
-288
-336
-336
-272
-176
-96
0
160
336
512
560
416
320
272
240
176
96
-32
-176
-304
-368
-384
-400
-352
-256
-144
-16
176
384
560
592
416
336
304
320
256
144
0
-128
-240
-320
-368
-400
-368
-288
-144
-16
176
352
496
512
352
288
272
256
192
112
0
-112
-208
-288
-352
-416
-384
-272
-112
32
208
352
496
560
416
320
272
240
176
96
16
-96
-208
-336
-432
-496
-432
-304
-160
-16
160
352
512
592
464
320
256
240
208
160
96
-16
-160
-288
-384
-432
-400
-320
-176
-64
112
320
496
576
432
256
176
176
160
112
32
-64
-176
-288
-368
-416
-416
-336
-208
-64
160
416
608
656
480
304
240
224
160
112
16
-96
-192
-272
-336
-416
-448
-416
-256
-96
112
368
544
624
512
352
272
240
176
96
16
-48
-112
-176
-256
-368
-400
-352
-224
-96
80
304
496
592
512
352
272
192
96
32
-16
-80
-144
-208
-304
-384
-400
-336
-208
-96
64
272
496
640
592
432
320
256
160
96
16
-80
-176
-256
-336
-384
-384
-320
-240
-160
-32
192
432
576
528
384
288
256
192
128
48
-64
-160
-224
-272
-320
-320
-304
-240
-144
16
224
448
576
528
368
304
272
208
112
-16
-144
-240
-272
-320
-352
-368
-320
-208
-96
64
272
464
576
560
432
368
352
272
144
32
-80
-176
-256
-320
-384
-400
-352
-224
-96
32
208
368
496
528
400
336
304
240
144
48
-48
-144
-240
-336
-384
-368
-288
-160
-48
64
240
416
560
560
400
304
272
208
144
64
-48
-192
-320
-416
-448
-416
-336
-208
-80
48
240
432
576
560
384
288
272
256
224
144
0
-144
-272
-352
-400
-400
-352
-240
-112
16
224
416
528
496
304
224
240
224
176
96
-16
-128
-224
-304
-352
-384
-352
-240
-96
80
288
448
544
544
368
272
256
224
144
64
-32
-112
-208
-320
-400
-480
-448
-304
-144
16
208
400
544
576
416
320
272
224
160
112
48
-32
-128
-272
-368
-432
-416
-304
-160
-32
160
368
544
592
416
272
192
144
112
80
16
-80
-176
-288
-368
-416
-384
-288
-176
-48
176
416
624
672
480
320
240
208
160
96
0
-112
-208
-304
-368
-416
-416
-352
-240
-112
128
368
576
624
480
352
288
256
192
112
0
-80
-144
-192
-256
-336
-368
-304
-192
-64
144
352
528
592
464
336
288
224
128
16
-80
-128
-192
-256
-320
-384
-368
-304
-176
-48
128
336
512
624
528
432
352
272
176
80
-16
-112
-192
-272
-336
-400
-384
-288
-192
-96
48
240
448
576
480
368
288
240
176
96
16
-96
-208
-288
-336
-352
-320
-240
-160
-64
80
288
480
576
464
320
256
240
176
96
-16
-160
-288
-352
-368
-400
-368
-288
-176
-80
96
304
496
576
496
368
336
336
288
176
48
-96
-208
-288
-352
-400
-400
-336
-208
-80
80
272
416
496
432
320
272
272
224
144
32
-80
-192
-272
-352
-416
-400
-304
-160
-16
128
288
448
544
480
336
272
256
192
112
32
-64
-192
-304
-416
-480
-448
-352
-192
-64
80
272
464
576
512
352
272
240
208
176
128
16
-128
-256
-352
-416
-416
-352
-224
-96
48
256
464
560
496
288
192
176
176
144
80
-32
-144
-240
-320
-384
-384
-352
-224
-80
96
336
544
624
544
352
256
240
208
144
64
-48
-144
-224
-304
-400
-448
-432
-304
-128
48
288
480
592
544
384
288
256
208
128
64
-16
-80
-144
-240
-352
-416
-384
-256
-128
32
240
432
560
544
384
272
208
112
48
0
-64
-144
-224
-320
-384
-400
-368
-240
-128
0
208
448
608
624
448
320
240
176
112
48
-48
-144
-240
-336
-384
-416
-384
-304
-208
-96
128
400
560
592
416
304
256
192
144
64
-48
-144
-224
-272
-304
-336
-336
-272
-176
-48
160
384
544
576
400
304
272
224
128
16
-112
-208
-256
-320
-352
-384
-368
-272
-144
-16
192
384
528
576
448
384
352
288
160
64
-48
-144
-240
-320
-368
-416
-368
-272
-144
-48
128
288
448
528
416
336
288
240
160
80
-32
-112
-208
-304
-368
-368
-304
-192
-80
0
160
320
480
544
416
304
256
208
160
96
-16
-144
-272
-368
-400
-400
-352
-240
-128
-16
160
352
528
576
432
304
272
272
240
176
32
-96
-208
-304
-352
-384
-368
-272
-160
-32
144
336
480
512
368
240
240
240
208
128
16
-80
-176
-256
-304
-384
-368
-288
-144
16
208
384
512
560
432
304
256
240
176
96
16
-80
-176
-288
-384
-480
-464
-352
-192
-48
128
320
496
576
464
336
272
240
176
144
80
0
-112
-240
-352
-432
-416
-336
-208
-80
96
304
496
592
464
304
192
160
128
96
32
-48
-160
-272
-352
-400
-384
-320
-208
-80
112
352
576
672
528
352
256
208
160
112
16
-80
-192
-272
-336
-400
-416
-368
-272
-144
80
304
512
592
496
352
272
240
192
112
16
-64
-128
-176
-240
-320
-368
-336
-224
-96
80
288
480
560
496
352
288
224
144
32
-48
-96
-160
-208
-272
-352
-368
-320
-192
-80
64
256
464
592
560
448
352
272
192
96
16
-64
-176
-272
-352
-416
-400
-336
-240
-144
-32
160
384
544
528
384
304
256
192
128
48
-48
-176
-256
-320
-352
-320
-272
-208
-112
0
208
416
544
528
368
272
256
208
128
16
-128
-256
-352
-384
-416
-400
-336
-240
-128
16
240
432
544
528
384
320
320
288
192
64
-64
-192
-272
-336
-384
-400
-368
-240
-112
32
208
384
480
480
368
304
288
240
160
64
-48
-128
-192
-272
-336
-368
-304
-176
-32
96
256
416
544
544
400
304
272
224
144
80
-16
-128
-224
-352
-416
-416
-352
-208
-80
48
240
416
560
576
416
304
256
240
208
160
64
-80
-176
-288
-336
-368
-336
-224
-96
16
224
416
544
528
336
208
192
208
176
112
16
-96
-192
-288
-336
-384
-368
-256
-112
32
272
480
592
576
384
272
240
224
160
80
-16
-112
-192
-288
-368
-448
-448
-336
-176
-16
208
416
560
592
432
320
272
224
160
96
32
-32
-112
-224
-336
-400
-384
-288
-144
-32
160
352
512
576
432
304
224
144
80
32
-16
-80
-160
-256
-336
-384
-368
-272
-160
-48
160
384
576
656
512
352
256
208
144
80
-16
-96
-192
-288
-336
-384
-384
-320
-224
-128
80
336
528
608
464
336
272
224
160
96
-16
-112
-192
-240
-272
-304
-336
-288
-192
-80
96
304
496
576
432
320
272
240
144
48
-80
-176
-224
-272
-304
-368
-384
-320
-192
-80
112
320
496
592
512
416
368
320
208
96
-16
-112
-208
-288
-336
-400
-384
-304
-192
-96
48
208
384
528
464
352
304
256
192
112
16
-80
-192
-288
-352
-384
-336
-240
-128
-48
80
256
448
560
480
336
272
240
192
128
16
-112
-256
-368
-400
-416
-384
-288
-176
-64
80
288
480
576
480
320
272
288
256
192
64
-80
-208
-304
-368
-400
-384
-320
-192
-64
96
288
448
512
416
272
240
240
208
144
32
-80
-192
-272
-336
-400
-384
-304
-160
0
176
336
496
560
480
336
272
256
208
128
32
-48
-160
-256
-368
-464
-464
-352
-208
-64
96
272
448
560
512
352
272
240
192
160
112
32
-80
-208
-320
-400
-416
-336
-208
-80
48
240
448
560
512
320
192
160
144
112
64
-16
-128
-224
-304
-368
-368
-336
-224
-112
48
288
512
624
560
368
240
208
176
128
48
-48
-144
-224
-304
-368
-416
-416
-320
-176
0
224
448
576
544
384
272
240
192
128
48
-32
-112
-160
-224
-320
-384
-368
-272
-144
16
224
416
544
544
400
304
240
176
64
-16
-80
-144
-192
-272
-352
-384
-352
-240
-112
16
192
400
576
608
480
368
272
192
112
32
-48
-144
-208
-288
-352
-368
-336
-256
-160
-80
96
320
512
560
416
320
256
208
144
80
-16
-112
-208
-272
-304
-320
-288
-240
-144
-32
160
368
512
560
400
288
256
208
144
48
-96
-208
-288
-336
-368
-368
-352
-272
-160
-32
160
368
512
544
416
336
320
288
192
80
-32
-160
-240
-320
-384
-416
-400
-304
-176
-48
128
304
432
496
400
320
304
272
176
96
-16
-112
-208
-304
-384
-416
-368
-240
-96
16
176
352
496
560
432
320
272
224
160
96
0
-128
-256
-368
-432
-448
-384
-272
-128
-16
160
352
512
592
448
320
272
256
224
176
80
-64
-192
-304
-368
-416
-384
-288
-160
-48
144
352
528
560
400
240
192
208
176
128
16
-80
-192
-288
-336
-400
-384
-304
-160
-16
208
416
560
592
432
288
240
224
160
96
0
-96
-192
-272
-368
-464
-480
-400
-224
-64
144
352
512
592
464
320
272
240
176
112
48
-16
-96
-208
-336
-416
-448
-352
-224
-96
96
304
496
592
496
320
224
160
96
64
0
-64
-160
-256
-336
-400
-400
-320
-208
-96
80
304
528
656
560
368
272
208
160
96
16
-80
-176
-272
-336
-400
-400
-368
-272
-176
0
256
480
608
528
368
272
240
192
128
16
-80
-160
-224
-256
-320
-352
-336
-240
-128
48
256
464
592
512
368
288
240
160
64
-48
-144
-192
-256
-304
-352
-368
-320
-208
-80
64
256
448
576
544
432
368
304
208
112
0
-80
-176
-256
-320
-384
-384
-336
-208
-112
0
160
352
528
528
400
320
272
208
128
48
-48
-144
-240
-304
-336
-320
-240
-144
-64
32
192
400
544
528
368
288
240
208
144
48
-80
-224
-320
-368
-384
-368
-320
-208
-96
32
224
432
560
544
368
304
304
288
224
96
-48
-176
-272
-336
-384
-384
-352
-240
-112
32
224
400
496
464
304
256
256
240
160
64
-32
-144
-240
-320
-384
-400
-352
-208
-48
96
256
416
512
512
352
272
240
208
128
64
-32
-144
-256
-368
-464
-480
-400
-272
-112
32
208
400
512
544
384
272
240
208
160
128
48
-64
-208
-320
-400
-432
-384
-272
-144
-16
176
384
528
544
368
208
160
160
128
80
0
-112
-208
-304
-368
-400
-368
-288
-160
-16
208
448
608
592
400
256
208
192
144
64
-32
-128
-224
-304
-368
-432
-432
-368
-224
-48
160
368
528
560
400
288
240
224
144
80
0
-64
-128
-208
-320
-400
-400
-336
-192
-64
112
320
480
544
416
304
224
160
64
0
-48
-112
-176
-272
-352
-416
-400
-304
-176
-48
128
336
544
624
512
384
288
224
128
64
-32
-112
-208
-288
-352
-400
-384
-304
-208
-128
48
288
496
592
480
336
272
224
160
96
0
-112
-208
-256
-288
-304
-288
-256
-176
-80
96
320
496
592
480
336
272
240
160
64
-64
-176
-256
-288
-304
-352
-352
-272
-160
-48
128
320
496
576
480
384
352
320
224
112
0
-112
-192
-256
-304
-368
-368
-304
-176
-64
80
256
384
480
432
336
288
256
192
112
32
-64
-160
-256
-320
-384
-352
-256
-112
-16
96
256
432
544
480
352
288
256
192
128
32
-80
-208
-336
-432
-464
-432
-336
-192
-80
80
272
464
576
496
352
272
272
240
208
112
-48
-192
-304
-384
-432
-432
-368
-240
-112
48
256
448
528
432
256
208
224
192
144
64
-64
-192
-288
-368
-432
-432
-384
-240
-80
128
336
512
592
512
336
256
224
176
112
16
-64
-160
-256
-368
-464
-496
-432
-272
-112
64
256
448
560
512
368
288
240
176
128
64
0
-80
-192
-320
-416
-448
-384
-256
-128
32
240
416
560
544
368
256
176
128
80
48
-32
-112
-224
-320
-400
-432
-368
-256
-144
16
240
480
640
624
416
288
224
176
112
32
-64
-160
-256
-320
-384
-432
-416
-336
-224
-64
192
432
592
576
400
288
256
208
144
48
-64
-144
-208
-240
-304
-368
-368
-288
-176
-32
192
416
560
560
400
288
240
176
64
-32
-128
-176
-224
-288
-336
-384
-368
-272
-144
-16
176
384
544
576
448
368
304
224
128
32
-64
-160
-256
-336
-384
-416
-368
-272
-160
-80
80
288
480
544
432
336
288
240
160
80
-16
-128
-240
-336
352
272
256
240
176
96
0
-112
-192
-272
-352
-400
-384
-272
-112
32
192
352
480
528
416
304
256
224
160
96
0
-96
-224
-336
-448
-496
-432
-320
-160
-32
144
336
512
592
464
320
272
240
208
176
96
-16
-160
-272
-368
-416
-400
-304
-192
-64
96
320
496
560
416
240
176
176
160
128
48
-64
-176
-272
-352
-400
-384
-320
-192
-48
144
384
576
608
480
304
240
208
160
112
16
-80
-176
-256
-336
-416
-448
-400
-272
-96
96
320
512
592
480
336
272
240
176
96
32
-48
-96
-176
-272
-368
-400
-336
-208
-80
96
288
464
560
480
336
240
176
80
16
-16
-80
-144
-224
-304
-384
-384
-320
-192
-80
80
304
512
640
576
416
288
224
144
80
0
-96
-176
-272
-336
-384
-384
-336
-256
-160
-32
208
432
576
528
368
288
240
176
112
32
-64
-176
-240
-288
-320
-320
-320
-240
-144
16
240
448
576
544
368
288
256
192
96
-32
-160
-240
-272
-320
-352
-384
-352
-240
-128
32
240
432
560
544
416
368
336
256
144
32
-80
-176
-256
-336
-384
-416
-352
-240
-128
0
176
352
480
512
384
320
288
224
144
48
-48
-144
-240
-336
-384
-368
-272
-144
-48
48
224
400
528
528
384
304
256
208
144
64
-48
-192
-304
-400
-416
-400
-320
-208
-96
32
224
416
560
560
384
288
288
272
224
144
0
-128
-256
-336
-368
-384
-336
-224
-112
32
224
432
528
512
320
240
240
224
176
96
-16
-128
-208
-288
-336
-368
-336
-208
-64
96
288
448
560
544
368
288
240
224
160
80
-16
-96
-192
-304
-400
-464
-432
-288
-128
32
224
400
544
560
416
320
256
224
160
112
48
-32
-144
-272
-368
-432
-400
-288
-144
-16
176
368
544
576
416
272
192
144
112
80
16
-80
-192
-288
-368
-400
-384
-288
-160
-16
208
432
640
656
464
320
240
208
160
80
0
-112
-208
-288
-352
-400
-416
-352
-240
-96
144
384
576
608
448
320
272
240
176
96
-16
-96
-160
-208
-256
-336
-368
-320
-192
-64
128
352
528
576
448
336
272
208
112
16
-80
-128
-176
-240
-304
-384
-384
-304
-176
-48
112
304
496
608
528
416
336
256
160
64
-32
-112
-208
-288
-368
-416
-400
-320
-208
-112
48
240
448
576
496
368
288
256
176
96
0
-96
-208
-288
-336
-352
-320
-256
-176
-80
64
272
480
592
480
336
272
256
192
112
-16
-160
-288
-352
-368
-400
-368
-288
-192
-80
96
304
512
592
496
368
320
336
272
160
16
-112
-224
-288
-352
-400
-384
-320
-192
-64
96
272
432
496
416
320
272
272
208
128
32
-80
-176
-240
-320
-384
-368
-272
-128
0
144
304
448
544
480
336
272
240
176
112
32
-64
-192
-304
-400
-464
-416
-320
-192
-64
80
256
432
544
496
352
272
240
224
176
128
16
-144
-256
-368
-432
-432
-368
-240
-96
48
256
448
560
496
288
192
192
192
144
80
-32
-144
-256
-336
-400
-416
-368
-256
-112
80
320
528
624
544
352
256
240
192
144
48
-64
-160
-256
-352
-432
-480
-448
-320
-144
32
272
480
592
560
384
288
256
192
128
48
-16
-80
-160
-272
-368
-416
-384
-272
-128
16
240
432
576
560
384
272
208
112
48
16
-48
-128
-208
-304
-368
-384
-352
-240
-128
0
208
432
608
624
448
304
240
176
112
48
-48
-144
-240
-320
-368
-400
-368
-288
-192
-80
144
384
560
576
432
320
272
224
160
80
-32
-144
-208
-256
-272
-304
-320
-256
-144
-16
192
384
544
544
384
288
256
208
128
16
-112
-192
-240
-288
-336
-368
-352
-272
-144
-16
176
384
512
560
448
368
352
288
176
64
-48
-160
-256
-336
-400
-432
-400
-288
-160
-48
128
304
448
528
400
320
272
240
160
80
-16
-128
-240
-336
-384
-400
-336
-208
-112
-32
144
336
496
560
432
304
240
208
160
96
-16
-160
-288
-400
-432
-416
-368
-256
-144
-32
144
352
528
592
448
336
304
288
256
176
32
-96
-224
-320
-368
-400
-384
-288
-176
-32
144
352
496
528
368
240
240
224
192
112
16
-96
-192
-272
-336
-400
-384
-272
-128
32
224
384
496
544
416
288
240
224
160
96
0
-80
-192
-304
-400
-480
-464
-336
-176
-32
144
336
496
560
448
320
240
208
160
128
80
0
-128
-272
-384
-464
-448
-352
-208
-80
96
304
496
592
464
288
176
144
112
96
32
-48
-160
-272
-352
-416
-400
-336
-224
-80
112
352
576
672
544
368
272
240
192
128
32
-64
-176
-240
-320
-400
-432
-400
-304
-144
64
320
544
640
544
368
288
256
192
112
16
-64
-128
-176
-240
-336
-384
-352
-240
-96
80
288
496
592
528
368
288
224
128
32
-64
-96
-160
-208
-272
-352
-368
-320
-208
-80
64
256
448
592
576
432
336
256
160
80
0
-80
-160
-240
-320
-384
-384
-336
-240
-144
-32
160
400
560
544
400
304
256
192
112
48
-64
-160
-256
-304
-336
-320
-288
-224
-128
-16
192
416
560
544
384
288
272
208
128
16
-128
-256
-320
-368
-400
-384
-352
-256
-128
16
224
432
576
544
416
352
352
304
176
48
-80
-208
-288
-352
-416
-432
-384
-272
-144
0
192
384
496
496
384
304
288
240
160
64
-64
-160
-256
-352
-400
-416
-336
-192
-48
64
240
432
560
560
400
304
272
208
144
64
-48
-176
-288
-416
-480
-464
-384
-240
-112
16
208
400
544
576
416
304
272
256
208
160
48
-112
-224
-352
-416
-432
-384
-272
-160
-32
176
400
544
544
352
224
208
224
176
112
0
-128
-224
-320
-368
-416
-400
-288
-144
16
240
448
576
576
400
272
240
224
160
80
-32
-128
-208
-304
-400
-480
-480
-384
-192
-48
176
384
544
576
432
320
272
224
160
96
16
-48
-128
-240
-352
-432
-432
-320
-176
-32
160
368
544
592
448
304
224
144
80
48
-16
-96
-176
-272
-352
-416
-400
-304
-176
-48
144
384
592
688
528
352
272
208
144
80
0
-112
-224
-320
-368
-416
-400
-336
-240
-128
96
352
560
640
496
352
288
240
192
112
0
-112
-192
-256
-288
-320
-352
-304
-208
-80
96
320
512
592
480
336
288
256
160
48
-80
-160
-224
-272
-320
-384
-384
-320
-208
-64
112
304
480
592
512
416
352
304
192
96
-16
-112
-208
-272
-352
-416
-400
-320
-208
-96
48
208
400
528
480
368
304
256
192
112
16
-80
-192
-272
-336
-384
-352
-256
-144
-64
64
256
448
560
496
336
272
240
192
128
16
-112
-272
-368
-416
-432
-400
-320
-208
-80
80
288
480
592
496
352
288
304
272
208
80
-64
-224
-320
-384
-416
-416
-336
-224
-96
80
272
448
528
448
288
256
256
240
160
64
-48
-176
-272
-336
-416
-416
-336
-192
-16
144
320
480
560
512
352
272
256
208
128
48
-48
-160
-272
-384
-480
-480
-384
-224
-80
80
272
464
576
544
384
288
240
208
160
112
32
-80
-224
-336
-416
-432
-368
-240
-112
32
240
432
560
528
336
208
160
144
112
64
-16
-128
-224
-320
-400
-416
-368
-272
-128
32
272
512
640
576
384
256
208
176
112
48
-48
-160
-256
-336
-400
-448
-448
-352
-192
-16
224
448
592
576
400
288
240
208
128
48
-32
-112
-160
-224
-336
-400
-400
-304
-160
0
208
416
544
560
416
304
240
160
64
-16
-64
-144
-208
-288
-368
-400
-384
-272
-144
-16
176
400
576
624
496
384
288
208
112
48
-48
-128
-224
-304
-368
-400
-384
-288
-192
-96
80
336
528
592
448
336
272
224
144
80
-32
-144
-240
-288
-320
-336
-304
-256
-160
-64
128
352
528
576
432
304
256
224
144
32
-96
-224
-304
-336
-368
-400
-384
-304
-176
-48
144
368
528
576
464
368
352
320
208
96
-48
-160
-240
-320
-384
-416
-400
-304
-176
-48
112
288
432
512
432
336
304
272
176
96
-16
-112
-208
-304
-368
-416
-368
-240
-96
0
160
336
480
560
448
320
272
240
160
96
-16
-128
-256
-384
-448
-464
-416
-304
-160
-48
128
336
512
592
464
320
272
256
224
176
64
-80
-208
-320
-384
-432
-416
-320
-192
-64
128
336
512
560
400
240
208
224
176
128
16
-96
-192
-288
-352
-400
-416
-336
-192
-32
176
400
560
608
464
320
272
256
192
112
0
-96
-192
-288
-384
-480
-496
-416
-224
-80
128
336
528
608
496
352
288
240
176
112
48
-16
-112
-224
-336
-416
-416
-352
-208
-80
96
288
480
592
496
336
224
160
112
80
16
-64
-160
-256
-336
-400
-400
-320
-208
-80
80
320
544
688
576
384
272
208
144
96
16
-80
-176
-256
-320
-384
-400
-368
-288
-160
0
240
464
608
528
368
272
240
192
128
32
-64
-160
-224
-272
-336
-384
-352
-272
-128
32
240
464
592
544
384
304
272
192
80
-48
-144
-192
-256
-320
-368
-400
-352
-240
-96
48
240
448
592
560
448
368
304
208
112
16
-80
-176
-256
-336
-384
-400
-336
-240
-128
-16
144
352
512
528
400
304
272
208
128
48
-48
-160
-256
-336
-368
-352
-272
-176
-96
16
192
384
512
512
368
272
224
192
128
48
-96
-224
-336
-384
-416
-416
-368
-272
-144
-16
176
384
544
544
368
288
288
288
224
96
-48
-192
-288
-368
-432
-448
-400
-304
-160
-16
176
368
496
496
336
272
256
240
176
80
-32
-160
-256
-336
-416
-448
-400
-272
-96
64
240
416
544
560
400
288
256
224
144
80
-16
-144
-272
-384
-480
-512
-448
-304
-144
0
192
400
560
608
448
304
256
224
176
144
64
-48
-208
-320
-416
-448
-400
-288
-160
-32
176
384
544
576
400
240
160
160
128
96
16
-96
-208
-304
-368
-416
-400
-304
-176
-16
208
448
592
608
432
272
224
208
144
80
-16
-112
-224
-304
-384
-464
-480
-416
-272
-96
128
368
544
592
448
320
256
240
160
80
0
-64
-128
-224
-320
-416
-432
-368
-224
-80
96
320
480
576
464
320
240
176
64
0
-48
-112
-192
-288
-368
-432
-432
-336
-208
-96
96
320
528
640
544
384
272
208
128
64
-16
-112
-208
-304
-368
-416
-400
-352
-256
-160
0
240
480
608
512
352
272
224
160
96
-16
-112
-208
-272
-304
-320
-320
-288
-208
-96
64
288
480
576
480
336
272
240
160
64
-64
-176
-256
-304
-336
-384
-384
-336
-224
-96
80
288
464
576
512
400
352
336
224
112
-16
-128
-208
-288
-352
-400
-400
-336
-208
-80
48
208
384
496
480
352
304
272
208
128
32
-64
-160
-256
-336
-384
-368
-272
-128
-32
80
256
416
544
496
368
288
256
192
128
32
-80
-208
-320
-400
-432
-400
-320
-192
-80
48
240
448
560
512
368
288
288
256
224
128
-16
-160
-256
-336
-384
-400
-352
-240
-112
32
224
416
512
448
272
224
240
208
160
80
-48
-160
-256
-320
-384
-416
-368
-240
-80
96
304
480
560
512
352
272
256
208
144
48
-64
-160
-256
-368
-448
-512
-448
-288
-128
48
256
448
576
560
400
304
256
208
144
80
16
-64
-192
-320
-416
-448
-400
-272
-128
32
240
448
608
592
400
256
176
128
96
32
-32
-128
-240
-320
-384
-400
-352
-240
-112
32
256
480
656
640
432
288
224
192
128
48
-48
-144
-240
-320
-384
-416
-416
-336
-208
-48
192
432
592
592
416
304
256
224
144
64
-48
-128
-192
-240
-288
-368
-368
-288
-176
-32
176
384
528
544
416
304
256
192
96
-16
-112
-160
-224
-288
-352
-400
-384
-288
-160
-32
160
352
528
608
496
400
336
240
144
48
-48
-128
-224
-304
-368
-416
-384
-304
-192
-80
80
288
496
592
464
352
288
240
176
96
-16
-128
-224
-320
-352
-352
-320
-240
-160
-48
112
320
496
576
448
320
256
240
176
96
-48
-192
-320
-384
-400
-416
-384
-304
-176
-48
144
352
528
576
448
336
304
320
256
144
0
-144
-256
-336
-400
-432
-416
-336
-192
-48
128
304
448
496
384
304
272
272
192
112
16
-96
-208
-304
-384
-432
-416
-304
160
128
48
-48
-176
-272
-352
-416
-416
-352
-240
-80
112
368
560
608
496
320
240
208
160
96
16
-96
-192
-272
-368
-448
-480
-448
-304
-112
80
304
512
608
528
352
272
224
160
96
32
-48
-112
-176
-288
-384
-432
-384
-256
-112
64
272
480
592
544
384
272
192
112
32
-16
-80
-144
-224
-320
-384
-400
-352
-240
-112
48
256
496
640
608
432
304
240
160
96
16
-64
-160
-256
-336
-384
-400
-384
-304
-192
-64
192
448
608
592
400
304
256
192
128
48
-64
-160
-224
-272
-304
-336
-336
-256
-144
0
208
416
560
544
384
288
256
192
96
-32
-144
-224
-272
-336
-368
-384
-352
-256
-128
16
224
416
560
576
432
368
336
240
144
16
-96
-176
-256
-336
-384
-416
-368
-256
-128
-16
160
336
480
544
432
352
320
256
160
64
-32
-128
-240
-320
-368
-368
-304
-176
-80
16
176
368
512
544
400
304
256
208
144
64
-48
-176
-304
-400
-416
-416
-352
-256
-144
-16
160
368
528
560
400
304
288
288
240
160
0
-128
-256
-336
-400
-432
-400
-304
-192
-48
144
352
496
512
336
256
256
240
192
112
-16
-128
-224
-320
-384
-432
-400
-304
-144
32
224
400
528
544
400
288
256
224
160
64
-32
-128
-224
-336
-432
-512
-480
-336
-176
-16
176
368
544
592
464
352
288
240
192
128
64
-32
-144
-272
-368
-448
-416
-304
-176
-32
144
352
528
592
448
288
192
144
112
80
16
-80
-192
-288
-352
-416
-384
-304
-176
-48
160
400
608
672
496
336
256
208
160
96
0
-96
-208
-288
-352
-416
-432
-384
-272
-112
112
336
528
592
464
320
256
240
160
96
-16
-96
-160
-224
-288
-368
-400
-336
-224
-80
96
304
496
576
480
336
256
208
112
16
-80
-128
-208
-272
-336
-400
-384
-320
-192
-64
96
288
480
592
544
432
352
288
192
96
0
-96
-192
-272
-336
-400
-400
-320
-224
-112
0
208
448
592
528
400
304
272
208
128
32
-80
-192
-272
-304
-336
-304
-256
-176
-80
48
256
464
592
512
368
304
272
224
128
0
-128
-256
-320
-336
-368
-368
-320
-208
-96
64
272
480
576
528
384
320
320
272
160
32
-96
-208
-288
-368
-416
-416
-352
-224
-80
64
240
400
480
448
320
272
256
208
128
48
-64
-176
-256
-352
-400
-400
-304
-160
-16
112
272
432
544
496
352
272
256
208
144
64
-48
-176
-288
-416
-464
-448
-352
-208
-80
64
256
448
576
544
368
272
256
240
208
144
32
-128
-240
-352
-400
-416
-352
-224
-96
32
240
448
560
512
320
208
192
192
160
96
0
-112
-208
-304
-352
-400
-368
-256
-112
64
288
496
576
544
352
256
224
192
144
64
-48
-144
-240
-336
-432
-496
-480
-368
-176
0
224
432
560
560
400
288
240
192
128
64
0
-80
-160
-288
-384
-448
-432
-336
-192
-32
176
384
544
576
416
272
192
128
64
32
-48
-112
-208
-320
-400
-448
-416
-320
-192
-48
160
416
608
672
496
320
240
176
112
48
-32
-144
-240
-336
-384
-432
-416
-352
-240
-112
128
384
576
624
464
320
256
224
160
80
-16
-128
-192
-240
-272
-320
-352
-304
-208
-64
144
368
544
608
448
336
272
224
128
16
-96
-192
-240
-288
-336
-384
-368
-288
-160
-16
176
368
528
608
496
416
352
288
176
64
-48
-128
-224
-288
-336
-400
-368
-288
-160
-48
96
256
432
544
448
352
288
240
160
80
-16
-96
-208
-304
-352
-368
-304
-208
-112
-32
112
288
448
544
448
320
256
224
160
96
-16
-144
-288
-384
-416
-432
-384
-304
-192
-80
96
288
480
560
448
320
288
288
256
176
32
-96
-240
-320
-384
-432
-432
-368
-256
-112
64
256
432
496
384
256
240
240
208
128
16
-96
-224
-320
-384
-448
-448
-352
-208
-48
128
320
480
560
464
320
256
240
176
96
0
-96
-208
-320
-432
-528
-512
-400
-240
-80
96
288
480
576
512
368
288
256
208
160
96
0
-128
-272
-384
-448
-448
-352
-224
-96
64
272
496
592
512
336
224
176
160
128
64
-32
-144
-256
-336
-400
-400
-352
-224
-96
96
336
560
672
560
384
272
240
192
128
48
-64
-176
-240
-320
-400
-432
-416
-304
-144
48
288
496
608
544
384
288
256
192
112
32
-48
-112
-160
-240
-336
-400
-384
-272
-128
32
240
432
560
528
384
288
224
128
32
-48
-96
-160
-208
-288
-368
-400
-352
-240
-112
16
224
432
592
608
480
352
272
192
96
32
-64
-144
-224
-320
-384
-400
-352
-272
-160
-64
144
384
560
576
432
336
288
224
144
64
-48
-144
-240
-288
-320
-320
-288
-224
-128
-16
176
400
560
576
416
304
272
240
160
32
-112
-224
-288
-320
-352
-368
-336
-240
-128
16
224
416
560
560
432
352
352
304
192
80
-64
-176
-240
-320
-368
-400
-368
-256
-128
0
160
320
448
480
368
288
272
240
160
80
-32
-128
-224
-320
-384
-400
-352
-224
-96
16
176
336
480
544
400
288
256
208
144
80
-16
-144
-272
-400
-464
-464
-400
-272
-144
-32
160
352
528
592
448
320
288
288
256
192
80
-80
-208
-320
-400
-432
-416
-304
-192
-64
144
352
528
560
384
256
240
256
224
160
32
-80
-192
-288
-352
-416
-416
-320
-176
-16
224
432
560
592
432
288
240
224
176
96
0
-96
-192
-288
-384
-480
-496
-400
-224
-64
144
352
528
592
464
320
272
224
160
112
48
-16
-112
-224
-352
-432
-448
-352
-208
-64
112
320
512
592
480
304
192
128
64
48
-16
-80
-176
-272
-352
-416
-400
-304
-192
-64
112
352
576
672
544
352
256
208
144
96
0
-96
-208
-288
-352
-400
-400
-352
-256
-128
64
320
544
640
528
368
288
256
192
112
16
-80
-160
-224
-240
-288
-336
-304
-208
-80
96
304
496
592
496
336
272
224
144
48
-64
-144
-192
-240
-272
-336
-352
-304
-192
-64
80
272
448
576
528
416
352
272
176
96
0
-80
-176
-256
-320
-384
-384
-320
-208
-96
16
176
368
528
512
384
304
256
192
112
32
-64
-160
-256
-320
-352
-320
-256
-160
-80
32
208
416
544
512
368
288
256
208
144
32
-96
-240
-336
-368
-400
-384
-320
-224
-112
32
224
432
560
528
384
320
320
304
224
80
-48
-192
-288
-368
-416
-416
-352
-256
-128
32
224
384
480
448
304
256
256
224
144
48
-64
-160
-256
-336
-400
-416
-352
-224
-64
96
272
432
528
512
352
256
224
176
112
48
-48
-160
-288
-400
-480
-496
-400
-256
-112
32
224
416
544
544
384
272
224
176
144
112
32
-80
-224
-336
-400
-416
-368
-256
-128
0
192
416
544
528
352
208
160
160
144
96
0
-112
-224
-304
-368
-384
-352
-272
-144
16
240
480
624
592
416
272
224
208
144
64
-32
-128
-224
-304
-368
-432
-448
-368
-208
-32
192
416
560
576
432
320
288
240
160
80
0
-80
-144
-224
-320
-400
-400
-320
-176
-32
160
368
528
576
448
336
256
176
80
0
-48
-128
-192
-288
-368
-416
-400
-288
-160
-48
144
352
560
640
528
384
288
224
128
64
-32
-128
-224
-320
-384
-416
-384
-320
-224
-112
48
288
496
576
464
336
288
240
176
96
-16
-128
-224
-288
-320
-336
-320
-272
-176
-80
112
304
480
544
416
304
256
224
160
48
-80
-192
-272
-304
-352
-384
-384
-304
-208
-64
128
320
480
560
464
368
352
320
208
96
-32
-144
-224
-304
-368
-416
-416
-336
-192
-64
80
256
400
496
432
320
288
256
192
96
0
-96
-192
-288
-368
-400
-368
-256
-128
-16
112
288
464
544
464
320
256
224
160
112
16
-112
-240
-368
-448
-448
-400
-288
-176
-48
112
304
480
576
464
320
256
256
224
192
96
-64
-192
-304
-384
-416
-416
-336
-224
-80
96
304
480
544
416
240
192
208
176
144
48
-64
-176
-272
-336
-400
-416
-336
-192
-32
160
352
496
560
464
304
240
224
176
112
16
-64
-176
-272
-368
-464
-496
-432
-256
-96
80
288
480
576
496
352
272
240
176
128
64
0
-80
-208
-336
-416
-448
-368
-240
-96
48
256
448
576
528
336
224
160
112
80
32
-32
-128
-224
-320
-384
-400
-352
-240
-112
48
288
512
656
592
384
272
208
160
112
32
-48
-160
-256
-320
-384
-416
-400
-320
-192
-16
224
448
608
576
400
304
272
240
160
64
-32
-112
-160
-224
-288
-368
-368
-288
-160
0
224
432
576
560
400
304
256
192
80
-32
-112
-160
-224
-288
-352
-400
-368
-272
-144
0
192
416
576
608
480
384
304
224
128
32
-64
-160
-240
-320
-384
-400
-352
-256
-144
-48
112
320
512
544
416
304
256
192
128
48
-32
-144
-240
-304
-336
-336
-288
-192
-128
-16
144
352
512
544
384
272
224
192
128
48
-80
-224
-320
-352
-368
-384
-352
-256
-144
-16
176
384
528
544
400
304
304
288
224
96
-32
-160
-256
-320
-368
-400
-384
-288
-160
-16
160
336
464
480
352
288
256
240
176
96
-16
-128
-224
-304
-368
-416
-384
-256
-96
32
192
368
496
544
416
288
240
208
144
80
-32
-128
-256
-368
-448
-480
-416
-288
-144
-16
144
352
496
560
448
304
256
240
192
160
80
-48
-192
-320
-400
-448
-400
-304
-176
-64
128
336
512
560
416
240
176
192
160
112
16
-96
-208
-304
-368
-400
-400
-320
-192
-32
176
416
576
592
448
288
224
208
160
96
0
-112
-192
-272
-336
-432
-448
-400
-256
-80
112
320
496
576
464
320
256
240
160
96
16
-48
-112
-192
-304
-400
-432
-368
-240
-96
80
304
480
592
496
336
240
160
80
16
-32
-96
-160
-224
-304
-384
-400
-336
-208
-96
64
288
512
640
576
416
288
224
144
80
0
-96
-192
-288
-352
-400
-400
-352
-272
-176
-16
224
464
608
544
384
304
256
192
128
16
-96
-208
-272
-304
-336
-336
-320
-240
-128
32
256
464
576
512
352
288
256
192
96
-48
-160
-240
-288
-336
-368
-384
-336
-224
-112
48
256
448
560
528
400
352
320
224
128
0
-96
-192
-288
-352
-400
-416
-352
-240
-112
16
176
352
480
480
352
304
256
192
112
32
-64
-160
-256
-336
-384
-368
-272
-160
-48
64
208
400
512
496
352
256
224
176
112
32
-80
-224
-352
-432
-432
-416
-320
-208
-96
32
224
416
544
512
352
272
272
256
208
112
-32
-176
-288
-368
-400
-400
-352
-240
-112
32
208
400
496
464
288
240
256
240
192
96
-32
-144
-240
-320
-384
-432
-384
-256
-96
80
288
448
544
528
368
272
240
208
144
64
-32
-128
-224
-336
-448
-496
-448
-304
-144
16
208
400
544
560
416
304
256
208
160
112
48
-32
-144
-288
-384
-432
-400
-288
-144
0
192
384
544
576
400
256
176
128
112
64
0
-96
-192
-288
-352
-400
-368
-272
-160
-16
208
448
624
640
448
304
224
192
128
64
-16
-128
-224
-304
-368
-416
-416
-352
-224
-64
160
384
560
592
448
320
272
240
176
80
-16
-96
-160
-208
-272
-368
-384
-320
-192
-32
160
368
544
576
432
320
256
192
96
0
-80
-144
-208
-272
-336
-400
-384
-304
-176
-32
144
352
544
624
528
400
320
240
144
64
-32
-128
-208
-304
-368
-400
-384
-288
-192
-80
64
272
496
592
480
352
288
224
160
96
0
-96
-208
-288
-320
-336
-304
-224
-160
-64
96
304
496
592
464
320
256
224
160
80
-48
-176
-288
-336
-368
-384
-368
-288
-176
-64
112
320
496
560
448
336
320
320
256
144
16
-128
-224
-288
-352
-400
-400
-320
-208
-64
96
256
400
480
400
304
272
272
208
128
16
-80
-176
-272
-352
-416
-400
-304
-144
-16
128
288
448
528
464
336
256
224
160
96
16
-80
-208
-336
-432
-480
-432
-352
-208
-80
80
272
464
560
512
352
256
240
208
176
112
-16
-160
-272
-368
-432
-416
-352
-240
-112
48
272
464
560
464
272
192
192
160
128
48
-64
-176
-272
-336
-384
-400
-352
-240
-80
112
352
-128
-208
-304
-368
-400
-352
-240
-128
16
224
464
624
624
448
304
240
176
112
32
-48
-160
-256
-336
-384
-416
-384
-320
-208
-80
160
400
560
576
400
288
256
208
144
48
-48
-160
-224
-272
-304
-352
-352
-272
-176
-32
176
400
544
544
384
304
256
208
112
-16
-128
-208
-256
-320
-368
-400
-368
-272
-144
0
192
384
528
560
448
368
336
256
144
32
-64
-160
-240
-320
-384
-416
-384
-272
-144
-32
112
288
464
544
416
336
304
240
160
80
-32
-128
-224
-320
-368
-368
-304
-192
-80
0
160
336
512
544
416
304
256
224
160
80
-32
-176
-304
-384
-400
-400
-336
-240
-128
-16
176
384
544
576
416
304
288
288
256
160
16
-112
-224
-304
-352
-400
-368
-288
-160
-32
160
336
480
496
352
256
240
240
192
112
0
-112
-208
-288
-352
-416
-384
-272
-128
48
240
400
528
544
400
288
240
224
160
80
0
-96
-208
-320
-416
-496
-464
-336
-192
-32
144
336
496
560
448
320
256
224
176
144
80
0
-144
-272
-384
-448
-432
-336
-208
-64
112
320
512
592
464
288
176
144
128
96
32
-64
-176
-272
-352
-416
-416
-336
-224
-80
128
368
592
656
512
336
240
208
160
96
0
-96
-208
-288
-352
-416
-448
-416
-304
-128
64
304
512
608
496
336
272
240
176
96
0
-80
-160
-208
-288
-384
-400
-368
-240
-96
80
304
480
576
512
352
272
208
112
16
-64
-112
-176
-240
-304
-384
-384
-320
-208
-80
80
272
480
608
576
448
336
256
160
80
0
-80
-176
-240
-320
-384
-384
-320
-224
-128
0
192
416
560
544
400
304
256
192
112
48
-64
-160
-240
-272
-304
-288
-256
-192
-96
16
224
432
560
528
368
272
256
208
112
0
-128
-240
-288
-320
-352
-368
-336
-256
-128
16
224
416
544
512
384
336
352
288
176
48
-96
-208
-272
-352
-400
-416
-384
-272
-128
0
192
368
480
496
384
320
320
272
176
64
-48
-160
-256
-352
-416
-416
-336
-192
-64
64
240
416
544
544
400
320
288
240
160
64
-48
-192
-320
-432
-480
-464
-384
-240
-96
32
240
448
592
592
416
320
288
272
224
144
16
-128
-256
-352
-384
-400
-352
-224
-112
32
224
432
560
528
336
224
224
208
176
96
-16
-128
-224
-304
-352
-384
-352
-240
-96
64
288
480
576
560
368
272
240
208
144
64
-32
-128
-208
-304
-384
-464
-464
-336
-160
0
208
400
528
544
400
304
256
208
144
96
16
-48
-144
-272
-368
-432
-416
-304
-176
-32
144
352
512
560
416
272
192
128
64
48
-16
-96
-192
-304
-368
-416
-384
-288
-176
-48
144
368
576
640
480
320
224
176
128
64
-32
-128
-224
-320
-384
-416
-416
-352
-256
-128
96
336
528
592
448
304
240
208
144
80
-32
-128
-192
-256
-288
-336
-352
-304
-208
-80
112
320
480
560
432
320
256
224
128
32
-96
-160
-224
-288
-336
-400
-416
-336
-208
-64
128
320
512
592
512
416
368
288
192
80
-32
-112
-224
-304
-384
-432
-416
-320
-208
-96
48
224
432
560
480
352
288
240
176
96
16
-80
-208
-304
-368
-400
-336
-240
-144
-64
96
272
480
576
480
336
272
224
176
96
0
-144
-272
-368
-400
-432
-384
-288
-192
-64
112
304
496
576
480
320
272
272
240
176
32
-96
-224
-304
-368
-416
-400
-320
-208
-80
96
288
448
496
400
272
256
240
208
128
32
-64
-176
-240
-320
-400
-400
-320
-160
0
176
336
496
560
496
352
288
272
224
144
48
-48
-160
-288
-384
-480
-464
-352
-208
-48
112
304
496
592
528
384
288
240
208
176
112
32
-96
-224
-336
-416
-416
-352
-224
-96
64
272
464
576
512
320
208
160
160
128
80
-16
-144
-240
-336
-400
-400
-352
-240
-112
64
304
528
640
544
352
240
208
176
112
48
-48
-160
-240
-320
-416
-448
-448
-352
-176
16
240
464
576
528
368
272
240
192
112
48
-32
-112
-160
-256
-352
-416
-400
-304
-160
0
208
416
560
560
400
304
240
160
64
-16
-64
-128
-208
-288
-368
-416
-384
-272
-144
0
192
416
592
640
496
368
288
224
128
48
-48
-144
-224
-320
-384
-400
-368
-288
-192
-80
112
368
560
608
464
336
288
240
176
80
-32
-144
-224
-288
-304
-320
-304
-240
-144
-32
176
400
576
592
416
304
272
224
144
32
-112
-208
-272
-304
-336
-368
-336
-256
-144
-16
192
384
544
576
448
368
352
304
192
80
-64
-160
-240
-304
-352
-400
-384
-272
-144
-16
144
320
448
512
400
320
288
240
160
80
-32
-112
-208
-304
-368
-384
-336
-208
-80
16
160
320
464
528
416
304
256
224
160
96
-16
-128
-256
-384
-432
-432
-384
-272
-144
-16
160
352
512
592
448
320
272
272
224
176
64
-80
-208
-304
-368
-400
-384
-288
-176
-48
128
336
496
544
384
240
224
240
208
144
32
-80
-176
-272
-320
-400
-400
-320
-176
-16
208
416
560
608
464
320
272
240
176
96
0
-96
-192
-288
-384
-464
-480
-384
-224
-64
128
336
512
592
480
336
272
224
160
112
48
-32
-112
-240
-352
-448
-432
-352
-208
-64
112
320
496
576
480
304
208
144
80
64
16
-64
-160
-272
-336
-400
-400
-320
-208
-80
96
320
544
656
544
352
240
192
144
96
16
-80
-192
-272
-336
-400
-416
-384
-304
-160
32
272
480
592
512
352
272
240
192
128
32
-64
-144
-208
-256
-320
-384
-352
-256
-128
48
256
464
560
512
368
288
256
176
64
-48
-128
-192
-256
-304
-368
-400
-352
-240
-112
48
240
448
576
560
448
368
304
208
112
0
-96
-192
-288
-368
-416
-416
-336
-224
-128
0
176
384
544
544
400
304
256
208
128
32
-64
-176
-272
-336
-352
-320
-256
-160
-80
48
224
432
560
544
384
288
240
208
144
32
-96
-240
-336
-368
-384
-384
-320
-224
-112
16
224
432
576
544
400
320
320
304
224
80
-48
-176
-272
-352
-400
-416
-368
-256
-112
32
224
400
496
480
336
288
272
240
176
80
-32
-144
-240
-320
-384
-416
-352
-224
-64
96
256
416
528
512
368
288
256
208
144
64
-32
-144
-272
-384
-480
-496
-400
-272
-112
16
208
416
560
576
416
304
256
224
192
144
64
-80
-224
-336
-416
-432
-384
-272
-144
0
192
400
544
560
368
224
160
176
144
96
0
-112
-208
-304
-368
-400
-384
-288
-160
0
224
448
608
592
416
272
224
208
144
80
-16
-128
-224
-304
-384
-448
-464
-384
-224
-32
192
400
560
576
432
304
256
208
128
64
-16
-80
-128
-224
-320
-400
-416
-320
-192
-48
144
336
496
544
416
288
208
144
48
0
-48
-112
-192
-288
-368
-432
-416
-336
-192
-64
112
336
544
656
544
400
288
224
128
64
-32
-112
-208
-304
-384
-432
-416
-352
-256
-144
32
272
496
592
480
336
272
224
160
96
-16
-128
-224
-272
-320
-336
-336
-320
-224
-112
80
304
496
592
480
336
272
240
160
48
-80
-192
-256
-304
-352
-384
-400
-336
-224
-80
112
320
480
576
496
384
352
304
208
96
-32
-128
-208
-288
-352
-416
-416
-336
-208
-96
64
224
400
512
464
352
304
272
192
112
16
-80
-176
-288
-352
-400
-368
-256
-128
-32
96
272
448
576
512
384
304
272
208
144
32
-96
-224
-352
-416
-432
-400
-304
-176
-64
96
288
480
592
512
368
288
288
272
208
112
-48
-176
-288
-368
-400
-400
-336
-208
-96
80
272
448
544
448
272
224
240
208
144
48
-64
-176
-272
-336
-400
-416
-352
-208
-64
128
336
480
560
480
320
256
224
176
112
16
-80
-176
-272
-384
-480
-528
-448
-288
-112
64
256
448
544
496
352
256
224
176
128
80
0
-96
-240
-368
-464
-480
-432
-304
-160
0
208
432
560
544
368
240
176
128
112
48
-32
-144
-256
-352
-416
-432
-384
-272
-144
16
256
496
656
624
416
288
224
176
128
48
-48
-160
-256
-320
-368
-416
-400
-336
-208
-16
208
448
592
576
400
288
240
208
144
48
-48
-128
-176
-208
-272
-352
-352
-272
-144
0
208
416
544
544
400
288
240
160
64
-32
-112
-160
-208
-272
-320
-368
-352
-256
-128
0
176
368
528
592
480
368
288
208
112
32
-48
-144
-240
-320
-384
-432
-400
-304
-192
-80
80
304
496
560
448
336
272
224
160
80
-32
-144
-240
-320
-352
-352
-320
-256
-176
-64
112
336
528
576
432
304
256
240
176
80
-64
-208
-320
-384
-400
-416
-384
-304
-176
-48
144
368
528
576
448
336
320
304
240
112
-32
-160
-256
-336
-400
-432
-416
-320
-192
-48
128
304
432
480
368
288
272
256
176
96
-16
-112
-208
-304
-384
-432
-400
-288
-128
16
160
336
480
560
432
304
256
224
160
96
0
-112
-240
-368
-464
-512
-432
-320
-176
-32
128
336
512
592
480
320
256
224
192
160
80
-48
-192
-320
-400
-448
-416
-320
-192
-64
112
336
512
576
416
240
176
192
160
112
32
-80
-192
-272
-336
-384
-384
-320
-192
-48
160
384
560
608
480
304
224
208
160
96
16
-96
-192
-272
-352
-432
-464
-416
-256
-80
112
336
512
576
480
336
272
240
160
96
32
-32
-96
-176
-288
-384
-416
-368
-240
-96
64
256
448
544
496
336
240
176
96
32
0
-64
-144
-240
-352
-416
-432
-368
-240
-112
48
272
512
656
608
416
288
224
160
96
16
-80
-192
-272
-352
-416
-416
-384
-304
-192
-32
208
464
608
576
384
288
240
192
128
32
-80
-176
-240
-288
-320
-336
-336
-256
-144
16
240
448
592
544
368
288
256
176
80
-48
-160
-224
-272
-320
-368
-400
-352
-256
-128
32
240
432
560
560
432
368
320
224
128
16
-96
-176
-240
-320
-384
-416
-368
-256
-128
0
144
336
480
528
384
320
272
208
128
32
-48
-160
-256
-352
-400
-400
-320
-192
-96
16
192
368
528
544
400
304
272
224
160
64
-64
-208
-352
-448
-464
-448
-368
-256
-144
0
192
400
544
560
400
304
288
272
224
128
-32
-176
-304
-384
-432
-448
-400
-288
-160
-16
192
384
512
496
320
256
256
240
176
80
-32
-144
-256
-336
-400
-432
-384
-256
-112
48
272
432
544
544
384
288
240
208
128
48
-32
-128
-240
-352
-448
-496
-448
-288
-144
16
208
384
528
560
416
304
240
192
144
96
32
-48
-160
-288
-368
-432
-400
-288
-160
-32
144
336
496
560
400
256
176
144
112
80
16
-80
-192
-288
-352
-416
-400
-320
-208
-48
160
416
608
656
480
320
256
224
176
96
-16
-112
-224
-304
-368
-432
-448
-400
-288
-96
112
352
544
608
464
336
272
240
176
96
-16
-96
-160
-208
-288
-400
-432
-368
-240
-80
112
320
512
592
496
352
272
208
112
0
-80
-128
-192
-256
-336
-400
-400
-336
-208
-64
96
304
512
624
560
432
320
240
144
64
-32
-128
-208
-304
-368
-416
-400
-320
-240
-128
16
208
448
560
496
368
272
240
160
96
0
-112
-224
-304
-336
-352
-336
-288
-224
-112
48
272
496
608
528
368
304
272
224
112
-16
-176
-304
-352
-384
-400
-384
-320
-208
-80
96
320
512
608
528
400
368
368
304
160
32
-112
-224
-304
-368
-416
-416
-352
-208
-80
80
256
416
512
464
352
304
288
224
144
32
-64
-176
-256
-352
-416
-400
-304
-160
-16
112
288
448
560
496
352
288
256
192
128
48
-64
-208
-336
-432
-480
-432
-352
-208
-80
64
256
448
560
528
352
272
240
224
192
128
0
-160
-272
-384
-432
-432
-368
-240
-112
48
272
480
576
512
304
208
224
208
176
96
-16
-144
-240
-336
-384
-400
-368
-240
-96
96
336
528
608
560
352
256
240
192
144
48
-48
-144
-240
-320
-416
-464
-432
-288
-112
48
272
448
560
544
384
288
256
208
128
80
16
-48
-144
-272
-368
-432
-400
-272
-144
16
208
400
544
560
400
272
192
128
64
48
-32
-96
-192
-304
-384
-416
-384
-288
-160
-16
208
448
640
656
480
304
240
176
128
64
-32
-144
-240
-336
-384
-416
-400
-336
-240
-96
144
400
592
640
464
352
288
256
176
96
-16
-128
-208
-272
-304
-352
-368
-304
-192
-32
192
400
576
608
448
320
272
208
112
0
-128
-192
-240
-304
-352
-400
-384
-304
-176
-32
176
368
544
608
496
400
352
272
160
48
-48
-144
-224
-304
-368
-432
-416
-320
-192
-80
80
256
448
544
448
352
288
240
160
80
-16
-112
-224
-320
-368
-400
-352
-256
-160
-64
96
320
512
592
464
336
256
224
176
96
-16
-160
-304
-400
-416
-448
-400
-304
-192
-64
112
336
528
608
480
352
320
320
272
176
32
-112
-240
-336
-384
-432
-416
-320
-208
-48
128
336
496
544
416
288
272
256
208
128
16
-96
-208
-288
-352
-416
-400
-288
-144
16
208
368
528
576
464
336
272
240
176
96
0
-96
-208
-320
-416
-496
-464
-336
-192
-32
128
320
496
576
496
352
272
224
176
144
80
0
-144
-272
-368
-448
-432
-352
-224
-80
80
288
480
576
480
288
192
144
144
96
32
-48
-176
-272
-368
-416
-400
-352
-240
-96
96
336
560
640
528
352
256
224
192
128
32
-64
-176
-272
-352
-432
-464
-448
-336
-160
32
272
496
592
544
368
288
272
208
128
32
-48
-112
-176
-272
-384
-432
-416
-288
-144
32
256
464
592
560
400
304
240
144
48
-32
-80
-160
-224
-304
-384
-416
-368
-240
-112
48
256
480
640
640
480
352
272
176
96
32
-64
-160
-240
-320
-384
-400
-368
-272
-176
-48
160
432
592
592
432
320
272
208
128
64
-64
-176
-256
-288
-304
-304
-272
-208
-112
0
192
416
560
544
400
288
272
208
128
16
-128
-240
-288
-320
-352
-368
-336
-240
-112
16
208
400
544
544
432
368
352
304
176
64
-64
-176
-256
-320
-384
-432
-400
-288
-144
0
160
336
464
512
400
320
304
256
176
80
-32
-144
-240
-352
-416
-432
-352
-224
-96
16
192
368
528
560
416
304
272
224
160
80
-32
-160
-304
-432
-496
-480
-416
-288
-160
-16
176
368
528
576
416
304
272
272
224
176
32
-112
-240
-352
-416
-448
-416
-304
-192
-48
160
384
528
544
368
240
224
224
192
128
0
-112
-224
-320
-368
-416
-400
-304
-160
0
240
448
576
592
432
304
256
240
176
96
-16
-112
-208
-304
-400
-496
-496
-368
-192
-32
176
384
560
608
480
352
288
256
176
128
48
-16
-112
-256
-352
-432
-432
-336
-208
-48
128
336
528
608
480
320
224
160
96
80
0
-64
-176
-288
-368
-416
-400
-320
-208
-80
112
352
576
672
528
352
256
208
144
96
0
-96
-208
-304
-368
-416
-432
-384
-304
-160
48
288
512
608
496
336
256
224
176
96
0
-112
-176
-240
-288
-352
-400
-352
-256
-112
64
288
496
592
496
336
272
224
128
16
-96
-160
-224
-288
-336
-400
-416
-352
-240
-80
80
288
480
608
560
432
352
288
192
80
-16
-112
-208
-288
-368
-432
-432
-352
-240
-112
16
208
432
576
544
400
320
256
192
112
32
-80
-192
-288
-336
-368
-336
-256
-176
-80
48
240
448
560
512
368
272
240
208
128
32
-112
-272
-368
-416
-432
-400
-320
-224
-96
48
256
464
576
528
368
304
304
272
208
64
-64
-208
-288
-352
-416
-432
-368
-272
-112
48
240
416
512
480
336
288
272
240
160
64
-48
-160
-240
-336
-400
-432
-352
-208
-48
96
256
432
528
528
368
288
256
208
128
64
-48
-144
-272
-400
-480
-496
-416
-272
-112
32
224
432
560
560
400
288
240
208
176
128
32
-96
-224
-352
-432
-448
-400
-288
-144
-16
192
400
560
544
352
208
160
160
128
80
-16
-128
-240
-336
-400
-432
-400
-288
-160
16
272
496
624
592
400
256
224
192
128
64
-48
-160
-240
-336
-400
-480
-480
-384
-208
-16
224
448
592
608
448
336
288
240
144
64
-16
-80
-144
-224
-336
-416
-432
-320
-176
-16
176
384
528
592
448
320
240
160
64
0
-48
-128
-208
-304
-384
-432
-400
-288
-160
-32
176
400
576
656
528
368
288
208
112
48
-32
-128
-240
-336
-400
-432
-400
-320
-224
-112
80
336
528
592
464
336
272
224
144
80
-32
-144
-240
-304
-320
-336
-320
-272
-176
-64
128
352
544
592
448
320
272
224
144
32
-96
-208
-288
-336
-352
-384
-368
-288
-176
-32
160
352
512
576
480
384
368
320
208
96
-32
-128
-208
-288
-352
-400
-400
-304
-192
-64
80
256
416
512
448
336
304
256
176
96
-16
-96
-192
-288
-368
-400
-368
-256
-128
-32
96
272
432
544
448
336
272
240
176
112
16
-112
-256
-384
-448
-464
-432
-336
-208
-80
80
304
496
592
480
336
272
272
240
192
80
-80
-208
-320
-400
-448
-432
-352
-240
-96
80
304
480
560
432
272
240
240
208
160
48
-64
-192
-272
-352
-416
-432
-352
-208
-48
160
368
528
592
496
352
288
272
224
144
48
-64
-160
-256
-368
-480
-512
-416
-240
-80
112
320
496
608
544
384
304
256
192
144
80
16
-80
-192
-320
-416
-432
-352
-240
-96
64
256
464
576
528
336
224
160
112
96
48
-32
-128
-224
-304
-384
-400
-336
-240
-112
48
288
528
672
592
384
256
208
160
112
32
-64
-176
-272
-336
-400
-416
-400
-320
-192
0
224
448
592
560
368
272
240
192
128
48
-48
-128
-208
-256
-336
-400
-400
-304
-176
-16
208
416
560
544
384
304
256
192
80
-32
-112
-176
-240
-320
-384
-416
-384
-288
-144
0
208
416
592
624
496
384
304
224
128
32
-48
-160
-240
-336
-416
-432
-400
-288
-176
-64
112
336
544
592
448
336
272
224
144
64
-48
-160
-240
-304
-336
-336
-288
-208
-128
-16
160
384
544
576
416
304
256
224
144
48
-80
-224
-304
-336
-368
-368
-336
-256
-144
-16
176
384
528
560
416
336
320
304
224
96
-32
-160
-256
-320
-384
-416
-400
-320
-176
-32
144
320
448
496
384
304
288
272
192
96
-16
-128
-240
-320
-400
-448
-400
-272
-112
32
192
384
528
576
432
320
256
224
144
80
-16
-128
-272
-416
-496
-528
-448
-320
-160
-16
160
352
528
592
464
320
256
224
192
144
64
-64
-224
-352
-432
-464
-432
-320
-192
-48
128
352
512
560
400
224
176
176
144
112
16
-96
-208
-304
-368
-416
-400
-336
-192
-32
176
400
560
592
448
288
224
208
144
80
-16
-112
-192
-288
-368
-448
-480
-416
-272
-96
112
336
512
592
480
336
272
240
160
96
16
-48
-112
-192
-304
-416
-448
-384
-240
-96
96
304
496
592
512
352
256
176
96
32
-16
-80
-160
-240
-336
-400
-416
-336
-224
-96
80
304
528
656
592
416
288
224
144
80
0
-96
-208
-304
-368
-416
-416
-368
-288
-176
-16
240
480
608
544
368
288
240
176
112
0
-96
-192
-256
-288
-336
-352
-336
-240
-128
48
272
464
576
512
352
272
240
160
64
-64
-176
-256
-288
-336
-368
-400
-352
-256
-112
48
256
448
560
528
400
352
320
208
112
0
-112
-192
-272
-336
-400
-416
-368
-256
-128
0
160
352
512
528
384
320
272
208
112
32
-64
-176
-272
-352
-400
-384
-304
-176
-80
32
192
400
544
528
384
304
256
208
128
48
-80
-240
-368
-448
-448
-432
-352
-224
-112
32
224
432
560
544
384
304
288
272
224
112
-32
-176
-304
-368
-416
-432
-384
-272
-144
16
224
400
512
480
304
256
256
240
176
80
-32
-160
-272
-352
-416
-448
-400
-256
-96
80
288
448
544
528
368
272
240
208
144
48
-32
-144
-240
-368
-464
-512
-464
-304
-144
16
208
400
544
560
416
304
256
208
160
112
48
-48
-192
-320
-416
-480
-448
-336
-192
-48
144
368
528
560
384
240
176
144
128
64
-16
-112
-224
-320
-400
-432
-400
-304
-192
-32
192
448
624
640
448
288
224
192
144
64
-32
-128
-224
-304
-384
-448
-464
-400
-272
-80
128
368
544
592
448
304
256
224
160
64
-32
-112
-176
-240
-304
-400
-416
-336
-224
-64
144
352
512
576
448
320
256
192
80
0
-80
-144
-208
-288
-352
-416
-416
-320
-192
-64
128
336
544
640
544
416
320
240
144
64
-32
-128
-224
-320
-400
-448
-416
-320
-224
-112
48
256
480
592
496
352
272
240
160
96
0
-112
-224
-288
-336
-352
-320
-272
-192
-96
64
288
480
576
480
320
256
240
176
96
-48
-192
-288
-336
-368
-400
-384
-320
-208
-80
112
336
512
592
480
368
320
320
240
128
0
