-208
-48
-16
64
-320
-144
-144
-432
256
432
16
-96
160
176
624
816
400
112
0
400
-32
112
96
-224
-64
-336
-224
240
-208
-112
-96
-336
-288
-288
176
-720
-32
64
336
192
-608
-496
-288
224
48
336
-32
192
336
752
416
240
-32
-432
0
416
-112
-288
-240
288
320
160
80
480
48
80
-16
208
448
560
464
336
208
-352
-480
-304
-176
-112
-336
-144
-96
48
-272
-192
96
-80
-560
-560
96
-32
112
336
384
304
-96
-80
368
-192
-288
-48
-272
-272
256
256
-160
128
-32
-64
-16
-448
-272
-288
-176
-368
-64
16
80
144
208
-64
80
-240
-512
-496
160
224
-272
48
-96
48
400
-48
-128
-96
32
304
368
704
-304
-112
272
-16
-32
-32
-144
-448
-112
32
176
304
-224
-160
-304
-80
-368
-256
-208
-128
-384
-48
528
416
464
320
-208
-16
-144
-336
-304
-320
-144
64
-368
208
176
-64
-432
64
320
-544
-432
-48
-112
-400
-640
-400
-160
-288
-96
128
416
400
-160
96
112
-128
80
-128
-144
-96
16
-288
-48
288
352
608
288
176
560
320
0
-208
0
-80
-96
-128
-64
-48
-256
144
352
80
-224
496
464
128
-208
-96
-160
-256
-176
80
624
224
-336
-144
192
-160
16
160
-176
-112
-48
-400
64
-256
-288
16
-48
-176
160
-144
-48
480
192
720
320
-16
16
368
-192
-16
208
-16
144
-240
208
80
-144
-496
-288
176
352
-144
64
128
256
96
272
208
256
-80
96
224
32
-224
-176
-48
-32
816
464
-768
-560
-208
-32
528
160
336
80
-512
48
0
96
144
-96
256
-592
-240
320
-256
-96
176
384
320
-112
-496
-320
-144
128
-160
-144
192
-96
-64
-160
-368
160
432
112
-448
256
368
-96
48
-32
-416
48
-48
-16
176
-288
-432
-320
112
112
-80
368
-224
-256
-48
-544
416
592
-16
-160
352
-16
-240
240
96
256
544
-128
-80
-192
32
-320
-176
304
16
-432
-128
16
48
32
-192
-208
-256
96
-192
-368
-592
-576
-96
-128
-192
128
-304
-192
80
176
656
64
-96
480
48
-240
48
32
-816
-224
368
624
480
448
32
112
-16
0
-208
224
-480
-544
0
-240
-80
-32
0
-336
80
-224
432
560
-96
32
272
432
400
-176
-560
-448
144
192
304
176
-192
128
0
-48
-272
-80
-272
224
-368
-544
112
-240
-272
112
128
80
-176
176
208
96
352
32
240
-96
-256
80
-176
144
-96
-128
48
-160
-64
-320
96
80
176
144
80
80
-64
-384
-480
-496
80
320
-304
-112
-208
-192
-32
192
272
-64
96
416
736
208
576
544
16
-304
-192
16
640
144
-208
-736
-208
-240
-576
-224
-48
128
-272
-320
224
-160
-704
-304
64
480
-160
32
-320
464
32
320
224
-112
-448
336
320
-368
-144
224
432
-128
0
560
64
-224
224
32
176
-144
128
-224
-384
-272
64
-48
-80
-32
128
160
-32
224
160
256
-32
64
-80
-256
-160
48
80
-48
-208
16
496
320
-48
-288
-96
288
96
384
-16
-32
80
16
96
176
416
512
-176
-384
64
160
48
16
-432
128
-48
-480
-176
-128
-272
64
-288
-64
64
-48
-128
80
-32
80
-96
16
432
464
400
304
-64
-96
-320
-128
352
-128
-208
-32
-432
80
48
-96
-144
-304
-128
-160
-256
-320
-448
-272
-96
-112
-304
-16
416
192
240
80
128
112
224
-304
96
384
0
-432
80
-64
16
320
400
496
256
272
320
288
256
160
-32
176
352
160
256
272
16
272
208
-352
192
32
128
128
-368
-464
48
80
480
320
96
80
-304
-240
-224
-64
48
64
240
48
-112
64
400
-240
-112
-144
-496
-192
-112
64
-112
368
432
192
432
432
416
464
464
96
80
64
-224
-208
-192
-320
-416
16
272
80
112
-80
352
240
16
-144
0
240
-368
32
-64
144
288
-160
-816
-672
-464
-656
48
-32
-496
-496
-96
-160
-304
16
-560
-432
320
240
-192
-96
208
624
-80
32
352
160
-432
-128
208
16
224
192
336
96
-128
96
-208
-160
304
128
0
176
384
-320
-560
-544
-176
288
-176
-32
-384
-496
-144
-48
384
336
-224
-592
-256
144
144
448
272
160
0
-64
-256
-256
128
176
112
16
48
304
-272
384
-416
144
272
272
-48
-192
-48
528
288
-64
-176
-112
80
304
416
288
224
192
400
480
-336
-80
-128
-224
-512
-400
-160
-80
-80
32
336
192
-464
-384
96
-64
-32
128
240
-272
-128
368
32
-240
160
112
-208
-64
-240
-432
-144
112
240
-288
144
-16
-608
-272
-128
480
448
560
144
656
352
-144
288
608
-384
-144
192
-16
192
160
112
-288
-160
272
-144
-64
64
-144
-352
80
-256
-208
-144
-256
-48
-608
-672
272
672
-144
-256
-304
0
240
336
64
-352
16
-512
-480
-48
176
128
-304
-624
-288
-288
-464
-32
320
-176
16
16
16
160
-224
160
416
240
16
320
16
-80
128
384
32
400
112
416
416
112
-352
-176
-112
-112
-96
64
112
-64
-224
-160
-80
-304
-48
-224
-64
-208
-144
272
416
-16
-192
48
160
128
-96
-304
-96
-352
-608
-464
-176
-112
-16
-224
-144
176
-32
-352
80
0
192
336
-112
-80
-16
400
-240
-304
-144
304
-208
-176
432
240
32
-240
-16
-32
32
-304
16
-432
-288
96
128
-288
-144
32
-160
96
240
-48
320
688
320
160
448
400
-64
-352
0
208
-496
224
-624
-368
352
336
-352
160
96
16
-336
-64
192
-80
-144
32
-288
-256
336
560
64
-208
160
176
0
64
112
32
-16
-256
112
576
-208
0
-80
-96
-240
-80
128
336
-48
112
176
160
0
-240
192
32
-112
32
-48
224
-32
-448
-176
-64
-256
-272
-288
240
192
-64
-96
-640
80
144
-608
-208
-256
-128
288
-288
240
224
-128
80
0
64
-160
-352
-128
256
-112
272
160
384
128
-32
-240
192
320
32
144
-96
64
-48
-368
-272
16
-304
-224
752
0
-288
-560
-384
304
64
-528
-368
-48
-320
224
160
64
-16
32
352
-352
-112
192
16
-240
112
-160
-224
-160
-64
-224
-112
224
448
-176
48
-160
-288
-256
-448
-464
224
224
576
224
16
-160
160
-288
-80
144
32
16
-176
-160
240
144
176
848
560
80
-128
-96
-144
-272
192
-112
-32
16
192
-16
-80
-48
304
416
48
-256
48
256
80
48
48
144
-272
64
160
208
320
112
-32
144
112
208
368
-176
-240
-112
32
-144
-48
-320
-368
64
-368
-32
64
64
16
-144
0
352
-128
0
416
304
384
288
-64
-48
64
480
160
-272
176
272
64
-176
-352
-240
224
-80
160
-32
-32
96
608
240
96
16
208
448
0
-128
-80
672
144
-96
-128
288
16
848
592
-208
-160
-112
288
144
432
144
80
368
256
192
64
16
-96
0
64
-144
-272
-80
-96
-128
576
240
48
-224
64
384
544
144
-224
-256
288
336
624
592
144
240
128
160
-96
32
-416
0
320
448
400
0
-176
-464
464
272
208
384
384
240
32
-96
416
400
464
-304
-224
208
144
96
-32
544
32
432
384
416
128
144
-128
-304
-64
-16
0
-48
-16
400
160
-432
-336
-80
16
-192
-400
-32
-16
-480
128
144
16
16
176
32
240
80
-368
-608
192
464
480
-320
-256
-96
48
-144
-320
-96
-272
-64
-64
96
304
-48
0
128
64
-144
-96
128
288
-128
112
496
544
432
464
272
240
-240
-48
480
160
-160
-128
240
416
-16
-192
352
32
-128
48
48
176
656
368
96
-48
592
336
496
400
272
176
-96
-48
-208
80
-48
-176
48
352
-112
176
320
112
112
112
-272
-128
-352
-160
-32
256
336
416
368
-480
16
256
-32
-272
-320
112
-64
-272
-16
80
560
32
-288
96
-160
-464
224
400
-144
-464
-64
128
96
-32
64
-304
-80
-192
-80
-272
128
240
128
80
128
-48
80
-80
-304
-112
-64
-336
320
-80
-144
-400
-656
-224
-256
-128
-48
448
80
-256
-480
-448
176
-160
-272
-96
-112
-320
-112
-352
-656
-192
-384
-32
400
-320
-784
-288
384
240
464
288
16
64
272
240
272
288
-336
384
240
128
16
80
16
-224
-288
-128
16
-16
48
-368
-176
224
-112
128
-96
-384
32
144
160
400
464
-448
128
512
208
32
-48
-336
-176
16
-448
-208
-144
-32
288
416
384
384
304
320
368
144
-128
-432
-192
-192
-416
256
-128
208
-96
-64
96
144
-96
-128
-240
-80
160
288
432
480
-48
-400
-128
-224
208
64
224
-176
-416
-32
-256
-256
256
16
-112
416
-304
-128
-112
-448
-112
320
272
-32
80
160
416
144
-208
-336
-48
-208
-304
240
112
-384
-368
-192
-16
128
288
320
416
-128
-288
-128
336
-48
96
-128
-320
-288
-368
-576
128
-272
-352
160
192
192
80
592
256
-32
112
192
112
176
-160
-304
192
464
-512
-400
240
-240
-288
-64
112
704
80
-384
-256
400
192
-304
112
240
592
80
128
-112
-176
-96
176
-32
256
112
96
400
304
224
80
32
-352
-176
-160
-528
112
608
608
-384
-96
480
352
-336
-256
64
-320
-80
272
16
-272
-176
48
-112
-32
16
112
-288
64
160
464
-128
-256
-32
-272
-400
-64
128
224
560
32
-160
-48
-336
144
496
80
144
336
48
-64
-672
-432
-112
272
224
16
464
112
-304
48
176
128
80
368
48
-528
-416
-320
112
-256
272
64
-16
-48
-496
-432
-208
-336
-144
272
-32
-32
-272
-480
-848
-752
-48
-240
-496
-336
-480
-368
-144
-32
160
160
-368
-48
-240
-576
-448
-64
272
480
656
-288
-944
64
128
-16
224
192
-16
64
128
80
96
288
336
304
176
-144
192
48
16
256
224
-560
-224
16
304
64
-336
-640
-32
96
-192
32
-288
-128
48
16
240
112
16
-528
16
-80
-336
432
304
0
96
-352
-352
-64
-688
-304
-32
-272
96
384
128
-288
-256
80
240
352
64
-32
96
-112
112
0
-272
64
192
-176
-160
-368
256
688
464
-48
-128
80
80
-304
320
-160
-256
-608
-768
-384
-400
-160
-240
48
144
32
-272
-304
-368
-144
-128
-112
224
-32
-112
64
-432
192
-256
-64
176
-144
144
16
-480
-400
-112
-352
592
112
-272
0
304
288
608
368
-96
208
-64
-16
-416
128
432
-208
-304
-64
208
400
112
-48
-144
-224
-272
80
48
336
-128
64
-64
288
304
-320
-304
-208
-176
416
352
32
112
352
240
288
576
160
-272
64
-480
144
480
384
-224
-80
192
-352
-320
-240
64
96
-32
208
-32
144
-80
128
-80
-208
352
208
192
-144
-320
-160
-352
-288
-368
-304
-32
-256
-64
-144
-64
-352
-144
-144
-32
64
160
-160
448
80
-32
224
80
-208
176
384
240
-208
64
160
48
-48
112
224
224
-112
176
144
240
272
208
784
-48
-80
-464
144
80
-384
-160
160
-240
-48
240
-416
-496
-160
32
112
-592
-256
-128
-512
-368
400
480
-16
-160
-432
-816
-512
64
160
-32
16
-192
-256
256
32
192
624
496
-128
-336
-448
-416
144
0
416
240
288
208
320
-32
256
464
-48
288
160
-32
96
208
224
256
-16
64
-144
96
400
240
-192
96
256
176
-272
128
-96
-256
-720
-16
432
112
368
-176
-96
-224
-48
-368
-560
-416
0
272
-128
-304
-208
-256
-432
128
96
16
160
-128
80
-144
-592
-288
512
544
-192
-96
-608
-656
-192
-560
-400
-128
208
0
32
-160
96
-192
-400
-112
336
32
-320
-512
-480
-272
-448
-96
480
448
48
96
0
288
160
-208
-208
320
288
704
624
240
-208
272
-208
96
656
176
176
304
288
-304
-64
48
-80
-112
-304
160
400
112
48
-96
-192
-96
400
-112
0
-464
-32
0
224
160
-112
-144
-448
-528
-656
-384
-208
-128
240
208
-512
-208
224
288
368
0
352
288
-96
-288
-416
-528
-32
-480
0
-224
-464
-368
-288
64
-112
128
-320
-144
-160
-144
-368
-384
-128
144
144
336
0
-160
80
-64
-336
128
-48
-80
-176
-16
272
320
-112
-160
32
-32
176
-32
-400
-192
-240
-224
-64
-496
-528
208
48
96
432
-272
-480
304
96
192
320
-384
80
-80
-480
-704
16
400
-304
-336
320
208
-144
448
16
48
144
-144
240
224
-320
16
-16
160
448
-96
160
144
-176
128
272
400
80
-208
-480
-384
-160
48
16
-240
-128
-320
208
-32
-400
-64
0
-16
192
-272
-304
-224
176
464
-128
160
-208
-496
0
592
480
704
-176
-112
48
688
592
352
384
304
-256
80
16
-176
32
-224
-208
-448
-384
16
-32
-656
-528
-112
544
128
80
240
-160
-16
-48
-80
64
-96
96
-256
-240
320
896
-16
-240
-256
-576
96
-288
-464
-128
-80
96
192
-464
-288
-560
-336
176
256
-336
-592
-672
-304
-64
-128
-80
-256
176
-64
-288
-128
-192
240
-48
-256
-80
496
-192
-912
-640
288
448
112
-16
192
496
304
-160
-32
-336
160
512
176
-64
16
16
528
-32
-512
-304
448
-240
-352
-80
-16
-256
-336
-64
400
80
112
-192
-448
-192
-160
-608
-336
-64
160
640
-176
-800
-240
48
-64
-80
-176
80
-368
-80
-48
288
-128
-320
304
496
272
-576
-784
-320
-576
-288
0
80
-256
-160
96
0
416
96
-112
-416
-192
-352
-32
-400
-288
-544
-576
-112
-32
-496
96
192
-304
-448
480
560
-112
160
80
-128
144
-16
-464
-368
112
272
-48
-48
-256
-576
-480
-512
-224
-128
-160
-592
-384
-416
-288
-336
-512
-288
-256
-192
-16
-192
384
640
48
-256
-16
-128
256
-224
-544
-400
32
-32
-304
-480
-448
-368
-48
-48
176
48
-192
-64
256
16
-256
-304
-320
80
-176
64
144
208
736
400
416
256
-192
80
224
-192
-256
-272
224
-16
240
-592
192
-96
-432
-320
-96
64
-480
-672
144
288
-208
16
-288
-64
-160
32
64
-160
160
-80
32
-16
-352
-544
-560
-160
272
160
-128
-160
176
592
240
400
944
496
208
80
-208
-288
128
-80
256
160
32
-560
-704
-160
-320
-288
-32
-48
-272
-80
128
16
-320
-144
-416
-128
-96
-48
128
-336
64
112
-384
-352
64
-464
-240
416
-32
-160
-416
-176
-96
64
-224
-160
-80
64
-432
160
-208
-592
-368
-48
-320
-272
-400
304
48
-128
16
432
112
-288
-32
-336
-400
160
176
-176
-192
320
304
64
160
64
112
448
-128
-208
80
-32
96
416
-16
0
224
112
80
-144
208
-96
384
64
-32
16
-320
-192
-528
-64
-48
-368
-528
32
224
160
256
352
-400
96
64
-256
-16
208
864
128
-272
-480
-224
368
432
288
-128
176
304
-352
-624
240
208
640
304
-384
-224
16
176
208
-368
-48
240
240
-352
-256
-160
352
448
272
512
336
336
96
-304
-48
320
144
-176
-80
-176
-240
176
496
144
-224
160
-128
400
-64
256
256
-16
-48
-368
-304
-192
-128
-544
496
400
-528
-272
304
336
-336
-240
-576
-80
-96
288
304
32
384
64
432
768
160
-112
240
-48
416
656
-32
-880
-608
48
112
-224
-16
-288
-272
112
-16
480
64
-112
80
16
-208
336
16
80
-288
-448
-240
-624
-640
-448
-112
288
160
-192
-320
-144
-96
-336
-320
0
80
320
352
-64
32
288
224
-144
80
48
384
32
-544
-336
-288
-224
-608
-480
32
48
-112
160
-160
-192
-432
-144
48
0
-368
-336
0
-176
-352
-176
640
-48
-16
-32
-64
160
112
288
592
-48
-512
-320
144
352
272
-192
-208
-320
160
528
448
-560
-576
-480
-288
-128
-16
-144
-448
-48
-144
-240
-560
16
288
-288
-144
-32
288
176
144
-32
-128
-96
-112
-144
-80
400
528
48
-32
0
-128
-240
96
592
304
272
272
-64
16
-304
0
640
384
512
288
432
304
-144
-16
432
-16
208
272
176
-336
-272
-144
-80
-96
0
272
144
-272
-656
-304
-352
-288
288
48
320
240
96
-352
-432
-272
-208
-240
-112
-224
-80
-16
-496
352
256
400
-144
-160
272
816
448
464
480
272
240
-208
336
48
-224
-256
-576
-160
-176
48
-80
80
96
-320
-160
-272
-128
-112
-96
128
-592
32
-208
-176
32
-272
-96
224
320
544
-96
96
-80
-16
-224
112
336
224
-400
-208
224
416
-240
-144
96
64
320
160
-448
-384
80
96
-256
-208
32
112
-144
496
432
176
-16
-256
-48
272
-16
-240
32
48
208
-336
-496
16
448
256
176
304
128
-160
-64
-336
-144
96
16
-208
192
-16
0
160
-336
-112
-112
16
-16
-176
-144
-208
-288
-288
-304
320
272
272
624
512
224
144
368
640
-16
64
416
720
400
336
496
432
480
688
-224
-704
-272
368
336
224
384
352
288
240
368
464
-96
-384
-64
-32
-192
48
384
208
-224
0
672
512
400
448
-304
-336
-336
-368
560
560
368
608
-48
-352
192
432
416
368
-288
-192
-432
-192
-160
-400
32
528
176
80
16
176
32
-272
-112
-256
-128
48
-128
-384
-384
32
112
0
-304
-208
-96
384
224
704
1104
448
512
-192
-64
-48
-432
-704
-240
-96
208
544
96
352
-144
-384
0
224
192
-480
-608
64
-208
-208
-608
-544
-384
-112
0
80
-64
-48
-32
416
656
144
-208
-176
80
256
368
80
256
384
112
288
432
384
128
-528
-160
16
256
240
-592
-32
512
480
400
96
-64
-112
288
176
-112
16
-224
80
400
80
64
0
-256
-208
-16
0
176
-32
576
208
-192
-560
-192
256
480
-240
176
272
-48
96
208
80
-400
-128
-240
-288
-128
-112
-96
-224
-528
-256
240
352
128
48
-64
0
-480
-656
0
512
464
-128
-416
208
208
-16
-464
448
96
-848
-864
-496
-384
-192
320
64
-176
-32
368
0
-48
-272
-64
80
-80
-144
352
-320
0
48
112
32
-96
-144
-128
416
384
272
-48
-208
-224
-192
176
-128
0
-80
-96
400
-128
368
224
-176
-48
-176
48
-112
-192
16
32
0
320
144
-64
-336
-752
-352
96
-224
-416
32
-112
-384
-288
-16
144
80
80
144
-16
-112
-240
0
432
-256
-448
-336
-240
-48
0
80
-288
-64
80
336
352
208
272
256
288
400
96
-96
-224
-208
96
-480
-336
64
512
32
32
-64
96
80
-304
-272
-160
-192
0
-64
-128
112
32
80
96
-176
-192
208
32
224
288
160
-16
96
-64
304
-224
-368
-64
48
144
224
-16
208
64
-240
240
48
16
112
-48
-48
16
176
128
-160
-96
144
352
-256
-16
208
32
80
-176
-96
-432
416
256
96
272
336
128
96
-32
48
-192
-256
176
96
160
-112
-192
-32
96
176
128
-64
-416
272
592
544
480
288
-128
-368
48
304
-240
-48
192
128
0
112
-224
96
-112
16
-64
-448
-448
48
384
48
-224
-160
480
352
-64
-368
96
528
544
288
-96
-128
32
-32
288
352
336
-240
48
416
256
224
0
-496
-432
96
464
96
464
160
192
-16
128
208
208
-416
-608
-880
-592
-368
-544
-80
64
-576
-336
-192
-112
-112
-176
320
-144
-128
32
48
496
144
176
-128
-144
-176
224
-384
48
352
-32
208
-512
-480
-96
-304
-432
128
112
-528
-320
16
-512
-80
160
48
112
-128
-272
64
464
432
192
-496
240
160
0
80
-512
-640
496
192
416
208
96
128
112
368
128
144
0
544
304
-96
-144
-224
-176
-208
-416
-48
-128
64
624
224
-160
-368
-464
-16
272
-48
-64
-80
256
-16
-400
-144
16
-16
224
-256
-256
-272
-208
-176
208
96
-32
112
96
272
176
-304
-288
-400
272
-208
-320
32
96
-384
-16
256
304
384
-416
-624
-272
-48
-704
-48
192
-64
-224
-448
-48
32
400
-272
336
384
-48
-48
-48
-352
112
-96
560
480
-48
-16
720
16
-176
-336
-160
128
480
448
208
48
-240
240
160
-272
-256
288
848
624
400
128
48
464
-240
-544
-656
-80
128
176
-64
208
192
288
176
-112
128
208
112
96
112
160
-160
-224
320
608
-144
-608
-272
112
192
224
32
-368
-80
160
-192
-464
-176
16
-240
-128
-160
-240
688
336
80
208
208
-320
288
400
-144
-32
-496
-752
-160
208
384
-96
32
-80
-80
272
-64
-144
-112
-112
-32
672
336
-32
-16
0
160
288
-432
-352
-208
32
0
176
256
288
-432
-240
-480
-48
272
80
-224
48
384
-16
112
48
80
-256
-496
-208
144
432
144
0
-16
112
384
-64
-32
592
672
96
-224
96
0
848
496
-112
-304
-304
-400
320
336
464
240
-144
-192
-208
-256
-240
-656
-1008
-656
176
176
-96
-288
-80
16
-144
384
192
-128
-96
32
0
-80
496
528
400
528
480
176
192
-32
-432
-608
-464
16
-112
400
288
-128
-64
-288
368
32
0
-192
80
224
-288
-112
-208
-512
-320
-16
-48
-368
112
592
112
-160
368
96
-160
-304
-144
48
-192
-32
-128
272
112
144
-112
208
-16
448
96
-16
288
448
272
-64
-32
320
-288
-208
-192
-512
224
592
352
-160
-32
192
128
112
32
288
512
64
464
336
144
320
544
432
-480
-320
-288
-48
-224
0
16
-112
368
144
-256
96
-80
368
352
672
464
16
-416
32
256
-96
-112
-336
368
304
384
-240
64
-32
-480
320
416
-240
-336
112
-448
-272
-96
-288
144
208
64
48
208
-32
-128
-304
-560
304
80
-288
-480
-48
-144
-256
224
-96
112
-224
-256
-96
320
-112
384
160
-384
-32
-48
-640
-384
-64
368
288
-176
-192
208
128
240
224
368
-240
-688
-208
-368
160
336
-400
-96
-32
192
-352
-560
-464
-192
160
256
-64
-96
-64
496
176
16
48
16
-288
176
272
176
0
0
256
-96
-480
0
400
544
0
-80
272
32
-144
368
48
144
240
736
160
-128
-432
-304
-560
-432
352
592
0
48
-16
-656
-256
-240
-512
96
416
-160
-528
144
128
144
400
-80
-304
-160
-272
-496
-368
-80
144
-112
-304
-240
-64
-32
64
-320
-512
128
640
128
144
0
-240
-400
-544
-512
-448
416
-192
64
16
32
80
-272
-288
-128
160
-240
-128
-208
-304
-160
-416
-352
-96
-144
-288
-400
-80
-16
0
-16
-208
96
0
-288
-240
-208
-320
-368
160
32
-384
-400
-448
352
0
-304
0
32
336
-144
160
336
-208
-224
-144
-288
-272
-272
288
784
80
-560
-496
-752
-32
-32
-560
-272
-592
-528
112
224
-336
-416
80
288
-240
-464
-560
-176
0
336
-64
-400
-192
-160
-288
-304
0
-16
32
64
-96
272
-208
-608
-256
128
-192
688
112
-672
-304
-128
48
-96
-224
576
-16
-16
240
368
272
416
96
-16
80
448
528
-256
128
-272
-160
304
112
-16
320
288
688
0
-96
-32
160
-16
-64
-112
-400
-512
-304
-112
-400
-528
-304
-80
-320
-256
176
208
480
432
288
-128
-96
176
336
-16
-64
-64
160
80
160
624
560
480
48
128
160
-16
-224
-272
0
-160
304
368
176
608
128
80
80
320
720
368
-224
224
624
304
288
416
224
544
-208
112
400
304
0
64
-96
-272
-272
96
-496
-352
-224
288
320
-320
-144
-592
-528
-128
80
448
272
32
-480
32
-160
352
48
-96
208
64
-384
-656
-416
80
320
96
128
304
16
240
144
384
544
64
176
-160
208
112
-128
-128
288
240
192
-128
288
544
400
160
64
736
336
-320
-304
352
96
16
-640
160
160
-272
-48
-400
-640
32
16
64
416
464
-288
-128
144
144
400
160
496
96
416
112
464
416
368
512
160
-256
96
-64
208
160
96
-208
352
576
272
128
-48
0
-592
-208
192
80
80
320
-96
-272
-480
-192
-128
96
-16
-480
-400
-320
-320
-320
-432
128
128
-208
48
288
-432
-16
96
208
512
224
144
-352
-400
-880
-416
-112
384
352
672
512
-144
-160
-112
0
144
-160
80
-96
112
-288
-16
0
128
96
96
-96
-128
-144
192
48
-128
-368
-672
-320
272
80
288
624
192
160
-96
96
336
176
-192
0
352
416
272
128
-16
-128
144
464
144
80
-400
144
-32
-208
384
80
-48
128
32
-112
352
400
48
144
464
272
288
-16
80
256
80
256
320
240
-464
-128
-96
-128
-368
-352
-368
-496
-368
-464
-512
-16
-176
160
256
-112
-208
-336
112
592
32
-256
64
-176
-432
-208
0
-16
128
144
-368
-640
64
224
304
-144
-128
-96
-640
112
48
-64
-64
-176
-176
-304
-272
0
-272
-208
128
256
224
-32
-448
-192
320
336
128
-544
-640
64
192
-336
0
-288
144
176
576
544
-16
-128
16
-448
192
400
-144
160
-144
-400
-192
-640
-432
48
160
16
-624
-480
0
16
-64
-512
-400
272
752
560
496
112
384
0
112
-400
-640
-320
-256
-432
-112
0
208
464
-336
48
208
-96
-496
-672
-128
288
176
0
-352
-48
96
64
-320
-400
96
80
-112
160
80
-336
-160
96
32
-416
-336
-112
224
-496
80
432
320
128
0
112
208
608
448
96
128
-176
560
0
-144
-272
-240
-560
-688
240
112
16
240
-160
-32
64
-80
-48
192
544
208
-304
-304
-128
-112
496
416
144
208
320
-256
-400
16
160
448
576
272
-192
96
-224
-144
336
320
-400
-208
-176
-288
64
48
-496
-496
80
48
-112
-48
-32
-336
-144
-96
-16
320
-128
0
16
128
-208
-256
-176
-16
656
928
576
64
-368
176
176
96
16
-304
-384
-272
-208
-224
-320
240
256
128
-272
-512
-624
-224
144
-160
192
320
128
384
64
-560
-704
-144
672
80
400
-368
-160
-16
16
272
-96
208
-160
-208
240
320
80
-416
-400
-48
160
-304
-304
-496
-544
-96
80
-128
400
512
48
352
272
272
224
176
-352
160
160
608
-176
-576
-800
-176
192
80
0
192
112
288
352
64
-16
-192
-112
-544
-656
-208
-80
288
320
144
16
256
1040
608
-288
128
64
576
464
16
-32
48
-416
-128
336
272
-80
96
400
576
528
432
192
-336
-352
64
448
176
-16
-352
320
-240
-688
-432
576
240
-336
-144
240
432
16
64
-96
48
208
112
0
80
112
-128
-336
-16
144
224
-128
-576
-48
256
-208
16
-176
-224
-304
-384
176
128
96
-352
-192
-128
-608
208
128
-432
-144
112
-64
-336
448
560
160
-80
16
96
-80
176
272
-32
-64
-224
-112
16
208
-32
-32
32
464
320
112
240
0
-144
48
176
400
736
48
-80
560
-64
64
288
16
224
272
192
-32
256
-16
16
240
-400
48
-32
-144
-16
-608
-256
272
-80
-208
-64
-96
240
320
400
112
-528
-288
-112
304
608
208
0
-144
160
96
96
320
-144
-320
0
144
-48
240
32
64
-288
16
176
144
96
32
256
160
-144
-288
0
-448
112
464
128
368
192
32
48
400
576
416
-176
128
-112
-160
64
-96
-432
-480
384
352
-224
128
-80
-48
416
-432
-208
-16
272
128
144
-48
160
192
0
112
32
448
480
272
80
-144
-208
-768
-608
-288
400
0
-144
352
-64
-416
-416
-64
-224
-272
-432
-400
-352
144
416
352
176
272
-32
-240
-304
-288
-48
-432
-432
-448
-208
32
0
-128
-112
-16
-352
32
368
272
-256
160
848
608
48
192
64
320
1088
592
-544
-224
-64
-176
-112
-368
-576
-16
96
-464
96
320
256
704
48
-224
96
-464
-64
496
16
16
-144
-256
128
96
-96
-144
-32
0
0
-80
-208
240
176
-176
-848
-192
256
256
-160
0
320
0
64
-144
-144
208
144
48
-64
176
96
288
112
256
-208
-64
192
128
-304
368
256
-272
-240
0
144
256
-240
-480
256
864
720
240
-256
-768
-240
240
-112
-240
-304
-592
-512
-304
-352
-240
16
224
224
32
-224
112
-288
-352
144
576
416
-544
-208
352
96
432
-176
-176
128
-448
-400
-224
48
-480
-192
16
272
48
-112
-192
-16
496
144
256
304
752
544
-96
-464
160
496
144
400
480
368
160
-176
160
400
-80
-176
160
-160
-240
576
208
-464
256
-112
0
-128
-256
-256
240
320
-304
48
-592
-64
352
432
96
-400
288
64
112
-208
-336
-112
-48
-304
48
-32
-320
80
-384
-352
368
64
224
288
-112
96
464
432
160
-352
16
592
288
-64
-256
-384
0
176
224
64
192
320
544
208
480
-96
-176
-192
-464
-320
160
224
-192
-112
304
288
288
224
64
304
320
96
-624
-192
64
-32
-528
-96
240
-48
-80
432
96
64
16
48
0
304
-224
112
16
-240
-80
-432
-784
64
560
336
240
48
48
-304
-448
176
-64
16
368
80
-240
-48
-176
-176
-256
-512
-64
-16
-448
-480
-96
352
560
-64
-448
0
-432
-608
272
640
-224
16
544
128
-32
0
352
352
-224
-320
16
-64
64
-944
-224
128
-192
-432
-208
-512
240
64
-240
-560
-64
208
80
-448
48
624
256
464
96
144
-352
-384
-144
288
0
-272
-176
-64
96
-176
-80
-320
-656
-64
-64
-256
-576
-464
-288
-48
-112
368
128
-32
-96
-32
208
48
-112
592
16
16
384
208
-48
112
-208
144
-16
272
336
0
176
160
640
608
224
80
256
144
-96
-368
-48
208
368
208
352
-352
304
752
240
144
496
128
-112
-32
-464
-288
-288
-208
-544
-272
-16
0
-112
16
-16
224
-160
-80
-288
-304
-528
-112
272
208
224
96
-128
192
560
368
-240
-432
128
-304
-176
64
-96
352
192
-368
-16
272
544
-48
-272
-208
-128
-208
-32
-448
112
80
48
48
-480
288
-80
-96
16
336
-96
-336
-688
-416
-224
-272
-192
-304
-128
304
128
-288
-176
-144
160
192
560
48
48
-128
-176
-80
112
-256
16
176
592
704
672
304
-208
-48
224
288
-144
-352
-368
-128
368
176
-176
16
176
576
864
208
-320
-304
-320
-256
-512
80
128
16
-32
560
-304
-720
192
352
112
-16
-176
-448
-32
-48
-208
-208
80
48
48
496
224
-256
128
32
16
688
384
-336
-672
-544
-592
-64
-16
16
400
176
48
-64
192
80
-352
-528
-176
-192
-160
-128
-48
-96
80
80
48
-288
-448
-240
-224
-384
320
48
80
-208
-368
-32
256
32
0
-448
-400
-112
160
208
-112
48
176
-368
288
224
-144
-80
-224
-272
-384
-16
-192
-32
272
160
128
-320
-352
112
-192
-80
112
272
-80
80
-176
-128
-256
176
-160
-272
-144
528
96
-240
-272
-160
-480
-528
-400
-64
288
-144
-288
0
-224
-336
32
160
-464
160
384
32
-16
128
144
-224
-304
-448
-320
-128
-544
-320
-192
-32
-32
-336
-432
-320
112
16
0
-288
240
224
-96
-400
-96
-448
-400
112
-48
-80
-256
16
0
-480
-48
368
512
480
-48
-352
-336
-320
208
176
-48
304
240
-512
-416
-240
-608
-416
-240
-320
416
368
32
-416
-352
64
464
320
-176
192
-128
-400
32
-192
-336
-592
-416
-432
-400
192
-112
-128
-96
48
-160
-240
-64
-496
-320
-112
144
-208
-160
112
-48
-496
-368
208
-288
-112
48
-240
112
272
-448
-496
-256
-176
-320
-368
-432
16
128
-64
272
272
-272
96
304
-208
-496
-96
176
144
176
368
288
128
400
-144
128
-64
0
-336
-416
208
272
-304
-384
384
368
-336
-368
-288
272
208
-80
-368
-272
256
240
-80
512
320
32
48
-176
-496
-304
432
384
-80
-32
-80
-240
-336
-208
-128
-224
0
-80
-128
-112
16
-240
-128
352
208
32
80
-96
-32
-272
-592
-384
-624
-240
-400
-368
-368
272
48
-352
-736
-464
-112
352
384
208
96
16
528
464
-48
-320
-160
-96
0
32
-48
544
176
-288
224
336
416
32
-208
-16
-48
352
384
48
-448
-400
-352
32
288
752
272
-32
112
-112
304
736
208
128
-48
-128
-304
16
-464
-128
96
-32
-32
208
64
-112
32
-144
240
-64
304
-256
-96
208
176
-16
-208
-256
224
-48
-64
528
336
-208
-16
-208
-224
-80
-448
80
672
-224
160
432
0
256
224
304
32
0
0
176
112
352
144
112
-416
96
128
-176
-128
-64
32
-32
0
-288
-416
-736
-496
-208
160
144
-48
240
192
96
32
-304
-416
-16
144
-80
-96
-304
-176
-224
-96
-96
-400
-448
-496
-48
384
16
-240
-176
-384
16
192
-96
-336
160
-16
-16
144
-144
-448
-368
0
-48
304
96
-576
-240
272
400
496
320
0
80
16
368
368
-496
64
256
-208
-256
112
672
128
-80
272
160
-256
-240
-512
112
-240
-384
-240
-480
-320
-112
-240
96
320
-304
-576
-384
-272
-192
-32
-304
-176
-256
-448
-80
352
0
-432
512
240
64
-64
128
-176
-496
-96
-192
-224
368
320
-144
-224
272
288
-96
-528
-176
96
128
608
480
-448
-272
-176
-400
64
112
256
784
416
320
16
0
224
16
336
-16
-272
-64
-48
-160
-320
208
368
-80
-128
80
0
-144
-144
400
352
-32
336
-32
-240
320
384
-144
0
400
592
288
-288
-400
-64
16
464
32
176
176
-464
-160
-80
-176
256
-144
-32
-496
-336
-128
-288
-16
-240
16
-176
-192
-192
80
-352
-352
-128
-160
-32
-176
-288
-352
528
128
-128
-48
192
-256
96
-64
128
272
288
368
192
-688
-256
-384
0
-64
-112
-272
0
320
-288
-416
80
192
336
160
-464
352
432
-176
368
-304
-416
-112
-240
48
0
-80
-400
-304
-272
16
0
-288
-96
-240
-48
192
400
-400
-560
-448
-176
-320
448
576
160
16
-400
-304
-544
-112
-400
-272
-352
-16
-128
-304
32
-480
-336
128
-112
256
288
32
112
-32
-608
0
320
640
656
-336
-80
304
192
64
-128
-320
-688
-624
-576
-416
-352
-240
0
-208
-576
112
48
-16
-304
-160
160
336
368
288
256
16
128
-48
32
192
32
144
0
-112
64
336
208
288
-272
-368
48
0
-656
-528
16
-208
-112
112
0
48
-112
-64
-368
-528
144
-176
-224
480
368
112
384
576
176
192
480
240
-16
0
-208
464
256
-272
-576
-288
128
-320
-128
-336
16
-224
-16
32
96
64
-224
-288
-240
-192
512
-368
-272
-144
128
-144
-352
-208
48
-224
-144
-16
80
144
432
240
80
208
-48
0
160
-176
80
-208
-224
128
0
448
416
-96
-144
80
32
224
368
752
-544
-416
96
-64
-16
-16
272
208
112
496
-48
0
-80
512
576
208
272
128
-144
-208
-480
-400
-400
-304
112
-336
-96
-784
-272
256
-208
-80
128
-224
128
608
320
-80
-256
-336
0
-368
-304
-32
544
-32
0
64
-144
400
304
448
400
-256
-208
-48
128
48
-176
48
96
-208
-400
208
-48
-224
-192
160
80
192
160
16
-480
-400
-240
-304
-240
112
544
224
528
-96
-416
80
80
496
-416
-144
64
80
192
-96
-400
-144
16
272
544
-112
256
144
-16
-384
-544
-672
-112
144
-128
80
256
688
-128
-368
-336
-352
-320
-544
-304
-288
-176
-32
240
-240
-208
304
336
16
-160
-240
-128
368
272
448
-112
32
-80
-80
-176
-224
-288
-560
-384
-64
256
768
368
-640
-32
144
-192
-192
16
-544
-144
-288
-64
-112
-96
192
64
-160
-304
496
-96
-240
544
288
32
48
-80
-576
-208
224
352
-32
-416
-128
-112
352
608
640
80
80
0
-192
16
352
32
-800
-96
-96
-496
-320
448
448
-96
240
-80
-336
-464
-288
-400
80
304
-224
224
480
48
-16
256
224
32
32
-128
16
192
-448
-144
336
320
-176
-432
-240
16
0
-544
-208
176
-144
-64
48
192
320
0
224
256
320
80
240
272
-192
-320
64
-16
-80
-176
-544
-288
-112
-16
64
240
80
48
400
496
-144
-304
-32
512
-288
-544
0
112
-272
16
16
-80
-80
384
48
-128
-48
208
-192
32
144
-272
-464
0
176
-96
176
80
-144
32
-656
-512
16
192
32
16
128
-16
-384
-240
-496
-464
-448
-368
-32
224
272
-96
192
-480
-336
256
128
-336
-256
368
48
0
80
304
-80
-16
0
96
432
32
-320
-16
-80
32
224
96
80
-144
-496
-336
-208
-400
-240
-464
112
528
736
80
-128
-336
128
240
64
368
768
272
-224
80
464
-272
-96
64
368
496
112
208
-288
-336
224
720
528
240
-336
-272
-320
176
-48
496
224
592
736
208
-512
-96
320
352
-352
-352
144
32
-208
208
336
80
0
368
-112
-288
160
112
-112
192
560
144
-336
144
256
-368
-16
-144
-240
-352
-384
-32
-96
64
64
-16
-368
64
64
-160
-144
-16
224
-32
-80
368
-80
-128
-16
-144
-176
128
192
208
304
272
-352
-112
-96
-128
144
144
-176
48
192
208
32
240
256
480
384
-144
-48
-272
432
736
-16
512
-176
-576
16
-272
80
16
240
304
-208
-208
64
176
16
144
-64
432
480
384
-80
-352
-256
320
112
-80
-128
-160
-128
-176
-64
272
240
-64
-32
-48
320
32
-384
-352
-128
-16
0
32
-16
-160
96
0
112
-80
-112
448
544
704
-336
-624
-320
-160
640
96
-400
-240
-16
528
128
-656
0
272
384
-80
-640
-288
336
320
304
-112
-512
-96
176
-224
64
-176
96
208
-48
640
512
0
0
-80
352
240
-160
-512
-512
-192
544
464
288
32
208
-208
-208
-240
304
224
64
240
-352
-432
-176
-32
-384
-80
-48
-80
400
-224
176
224
368
-240
-736
-656
-48
112
-16
128
240
368
16
112
32
-304
288
16
-224
240
-32
192
-352
-272
-96
144
-16
176
272
-64
-160
-304
48
48
112
192
-576
-416
-176
-272
-304
-320
-144
320
80
-128
-208
-208
688
-32
-512
0
48
-240
144
160
80
-384
-384
80
496
-96
224
-448
-416
-256
-560
-640
-272
-336
112
384
224
-144
-352
-192
256
160
800
704
64
-208
80
400
368
240
656
80
-16
-16
0
-64
-176
304
224
144
-144
0
32
-16
240
-128
-288
-336
224
-48
-352
-128
-80
-32
-64
-384
-240
-432
-112
-416
128
160
80
480
336
-64
-128
-112
-432
-80
-240
176
144
-512
-224
320
448
16
-560
-576
-368
16
-160
-176
672
384
272
112
96
32
272
288
-512
224
224
-320
-384
-448
-128
-192
48
-112
-256
-336
-512
16
352
-48
-208
528
272
144
-144
-224
48
16
400
160
112
32
-272
-32
48
64
160
-32
32
-208
-304
-752
-656
-592
-320
-352
-64
192
464
0
32
0
-32
-432
-752
-688
-496
-64
-240
-32
464
336
368
-32
-48
-112
-176
96
96
-48
416
128
-32
240
80
304
80
-32
64
-96
-256
-160
496
368
-80
48
208
224
-16
-208
16
-192
-64
128
-352
-256
288
112
-16
-112
-160
432
560
352
-64
-112
-112
64
224
16
16
-256
-144
272
560
96
-304
-288
-160
-432
-208
16
320
128
32
-64
-32
176
-576
-336
16
-192
-48
-96
128
-160
-576
-192
-64
-144
272
112
-144
-272
-224
-272
-448
-192
-432
-416
-544
80
272
-128
16
96
0
336
320
464
112
400
-160
-192
416
64
-448
-176
-352
-512
-176
336
336
176
-192
208
-176
-400
-256
-112
-192
-272
-400
-176
-240
-112
-176
-912
-864
-528
192
-96
-496
-320
-352
240
-80
48
-64
80
-176
32
-432
80
576
464
208
304
32
-528
-192
-80
-112
-16
32
160
-320
-448
-16
256
384
288
-464
-480
-304
160
320
-256
272
160
-144
-16
32
416
368
32
288
-64
-32
128
96
-240
-224
240
288
144
464
96
-272
-80
-32
-272
-288
256
224
-128
32
-176
-16
-144
-160
-336
96
432
48
176
-48
-176
16
400
112
304
512
240
224
-128
-208
-128
288
592
-176
-416
-656
-208
176
384
-64
144
-224
-256
-256
-112
-144
-240
64
-48
192
288
288
240
-352
-224
144
-64
-144
0
240
-208
-528
-208
-48
-16
544
256
352
-128
-160
64
352
400
528
304
16
240
400
-208
-624
-176
-256
-48
0
160
160
-176
-240
-64
352
496
256
-336
-624
-416
48
176
-80
192
192
464
224
96
-384
-176
-48
-352
-368
-96
80
224
128
-16
160
-16
336
144
-240
-560
-48
32
-336
176
80
16
64
16
-432
-240
32
-256
96
-96
-80
-208
160
208
-272
528
-64
-336
272
544
272
32
608
16
-720
-224
320
304
-208
-256
16
-304
-144
176
352
0
416
176
176
-336
368
320
256
96
144
288
80
-336
0
208
-48
-64
-224
176
288
672
272
128
-368
-384
-160
288
176
-64
144
528
352
-96
-544
-192
336
192
128
-80
-176
336
80
112
512
-48
16
432
48
-384
-80
128
-96
-208
-128
464
288
208
208
352
-80
-400
32
128
256
464
384
448
784
432
-16
256
112
112
240
352
176
48
272
144
-64
-464
64
-640
-400
400
688
224
64
160
144
-336
-80
400
16
-144
-48
-608
-48
-224
-48
80
-288
16
-448
-272
-192
-80
-48
224
-224
-64
80
624
32
16
576
896
224
-192
192
-64
80
128
480
112
-256
-160
96
-176
-144
-128
0
0
-16
48
-304
-320
-112
-224
-320
-112
0
64
128
96
-16
-288
80
-64
240
-320
128
-176
144
144
32
272
112
-384
32
-80
-192
-464
384
720
496
80
-416
80
16
224
-368
-592
-176
-288
48
128
48
-224
304
0
-320
128
0
112
-192
224
16
-48
-368
-144
128
48
112
336
-96
-304
272
96
-176
-304
-384
-288
-176
320
-272
-368
-224
-208
-144
32
368
160
-112
208
-128
80
-560
-176
288
112
608
176
208
160
16
112
-32
112
-128
160
480
176
16
112
-192
-288
144
144
112
-288
-96
464
-48
-432
-704
-544
-272
320
-80
-320
336
48
160
256
224
640
624
624
368
-336
-448
224
208
128
-48
192
-304
-80
576
208
-368
272
-224
256
480
-48
-448
-176
-64
208
48
-432
0
576
256
48
-144
-352
-352
-352
-384
-416
-448
-256
256
336
-272
-240
-128
-256
-48
176
-16
176
-368
-160
-176
96
272
-96
-272
-176
0
48
16
-144
160
-272
-32
272
-32
208
672
368
128
-48
-432
-464
-256
-256
-304
224
432
-112
-432
-608
-240
208
320
160
448
-256
-736
-512
112
-64
496
176
64
304
304
32
128
0
320
736
0
-112
-224
-528
-816
-192
272
96
80
496
256
320
720
304
160
320
128
48
48
-128
464
240
-80
16
-80
-32
-480
32
-304
-192
480
-64
-304
-128
-384
-192
144
-512
-64
48
-240
-16
-16
-464
96
80
272
32
96
-320
-96
-240
-144
160
48
144
112
144
-192
-496
-16
192
272
224
272
304
576
80
272
32
-144
0
16
-240
-608
-304
-96
336
-48
-144
-320
-336
-288
176
480
576
304
0
-304
-128
48
-256
-64
-144
-128
272
-176
-144
-288
-80
-384
80
256
416
96
576
224
-192
240
336
624
400
-192
-624
-32
432
320
-240
-48
-32
464
224
256
-224
-64
0
-272
-320
368
304
-64
288
560
288
-208
128
64
-48
112
32
-32
208
-48
16
-16
-224
-96
48
48
64
-192
256
144
352
336
32
192
112
48
-208
32
-176
-112
496
240
-336
80
-288
-464
32
-80
-64
80
64
-96
112
240
-224
-224
192
-352
-160
400
224
384
160
48
256
-128
-336
-176
-208
16
96
-480
-576
-336
-368
-272
32
368
16
-288
208
432
320
208
336
288
-16
48
256
208
160
272
-32
112
288
-160
160
368
-304
-496
-288
-192
-160
48
304
-144
-64
-224
608
256
-112
32
-128
-416
0
-400
-384
80
192
432
320
-64
160
-112
-224
112
48
-128
160
80
240
192
-112
-128
48
48
-16
416
-32
96
-32
64
80
-128
-288
-80
-272
-352
-208
-368
-336
-192
16
240
240
288
256
-320
-176
-224
-400
-208
288
352
-272
80
32
-224
176
464
288
352
192
-160
-304
176
160
-336
-336
-640
-448
-176
-384
-336
-304
-544
112
48
-592
160
64
-352
176
176
320
-256
416
0
-112
-448
-128
80
-400
-208
80
-368
-160
128
-144
-400
-464
-144
-96
-592
-736
-80
-128
-432
-272
-224
624
16
-336
-192
-112
-160
-48
-384
-304
-272
112
0
-80
-96
-224
-80
64
-96
-96
80
96
-48
32
64
448
16
-16
-176
16
16
16
-16
256
304
352
208
-48
-368
352
544
144
272
-112
-208
-144
272
80
-400
-112
-288
32
192
192
176
-48
-128
224
-304
-400
224
272
128
112
-16
208
352
-160
176
48
-176
112
-192
-432
-192
0
224
-32
224
176
-240
-272
-80
-512
-64
144
-144
640
-32
-240
80
-112
160
-112
-352
0
-272
-160
224
448
416
160
-256
-176
224
304
0
-288
-240
-336
0
240
-240
-272
448
0
128
32
-192
-144
128
240
-304
96
-432
-272
112
224
352
32
128
-352
-464
144
192
144
-96
-96
256
-288
-320
192
-192
-368
-576
288
464
-64
16
96
160
-80
-384
16
240
320
432
-80
-256
-240
-304
80
32
-448
-288
144
480
160
-160
48
-272
-544
416
-384
-352
144
-480
-16
112
-64
464
208
-96
160
208
-288
-48
-192
80
384
96
-432
-176
128
16
192
-288
-272
32
128
128
80
256
304
64
256
-64
128
-176
-176
-240
176
224
-416
-416
32
112
192
-80
80
160
592
48
-176
-128
-128
32
416
528
-64
-368
-112
-16
-208
-96
256
160
144
-320
368
544
352
-208
112
512
-128
-96
-352
-160
192
32
-272
64
-96
432
-288
-176
112
0
-48
-16
208
-240
-80
-160
-112
-208
-224
-608
-256
256
304
64
240
48
48
96
48
80
256
208
-32
-48
-176
-240
128
-80
-368
-128
304
96
208
-96
-336
-224
208
-448
-704
-576
-368
-464
272
464
-48
96
160
0
-192
144
-160
-160
208
-128
432
192
368
688
560
208
-64
-160
464
416
288
112
-272
-560
-272
-144
-368
-336
128
48
-176
-128
176
304
32
736
384
-16
-192
-576
-208
-96
-512
-368
-384
288
192
128
-528
-416
-96
-16
-208
-288
-16
-112
288
-48
-352
176
464
464
224
32
96
-208
-512
-272
-528
-176
336
64
0
-128
-48
-16
-320
0
-16
-608
-928
-336
384
512
144
-432
-400
64
-400
176
16
272
80
-48
-320
-512
-256
-128
-224
-112
-80
816
640
448
336
-64
128
64
-64
-480
-448
-272
96
704
-16
-288
32
272
-112
208
368
368
544
288
256
-96
-528
-496
-224
-16
-464
-192
-80
-32
32
480
304
-16
-752
-288
-352
-32
144
80
336
208
112
-128
-48
272
352
368
-208
464
320
544
32
32
400
368
304
-80
-176
-256
-128
224
480
576
48
-112
752
400
-80
16
496
160
-560
-512
-768
-176
256
32
-16
160
32
-224
48
288
336
224
288
-144
-240
64
-224
96
112
-64
464
320
-128
-688
-144
384
240
-16
-256
128
384
-16
-160
128
-384
-192
112
96
128
-176
-224
112
32
432
112
-112
704
288
128
192
304
272
-144
-32
176
-384
-496
-80
16
240
112
-208
96
-176
-112
512
-336
-400
304
-96
-160
48
304
-96
-16
592
32
96
688
368
64
-80
640
208
48
-208
-80
-112
192
288
544
192
-816
-512
-48
240
16
80
640
-64
-352
-240
16
-48
352
64
-144
64
288
-128
112
336
304
592
384
-624
-528
112
128
-160
-112
96
384
-336
-240
-576
-32
-96
-304
400
112
16
-144
-336
-544
-656
-384
288
160
368
-96
-288
-144
-48
464
16
-80
192
208
144
272
-208
-576
192
416
192
272
-224
-448
48
80
0
-32
128
-416
-144
80
368
272
160
288
640
304
-256
-96
-48
-272
-816
-368
480
-144
-272
-176
-256
384
-48
16
64
192
96
-16
32
400
400
-240
-352
320
112
-560
-336
-192
336
192
-48
32
-48
-80
-16
400
416
32
96
128
-96
-256
-144
32
128
160
-144
-320
-64
-224
-304
-352
-384
-512
-560
-48
448
416
16
-288
-288
-256
-192
-144
-336
192
-160
48
544
592
144
-224
-496
-496
240
-32
-96
-48
144
144
-112
0
624
416
-128
-352
208
-176
-192
112
624
576
400
144
160
-240
-528
208
320
-256
240
80
48
464
288
272
-256
-16
256
176
-208
-480
-64
144
240
48
128
48
-304
32
-176
-16
-240
-176
224
448
208
224
336
-16
64
-192
-208
416
208
-112
-352
-608
112
384
0
448
432
336
416
336
192
384
304
224
-416
-304
-320
-288
-208
0
416
320
16
16
96
-128
-336
-112
-384
-192
160
-48
-528
-528
80
-288
160
288
-112
-720
-96
-480
-1152
-1008
-864
-144
16
-336
-240
-32
-80
-96
-416
-192
-304
-144
-80
-512
192
-16
-256
480
352
-400
-288
-176
-96
-304
-384
-256
-272
-528
-240
-624
128
464
928
208
-64
320
240
112
208
-496
128
672
48
144
528
176
0
-288
-144
-112
-368
-256
0
16
16
176
-80
-336
-208
80
-192
-112
368
320
-352
-560
-288
0
-128
32
80
144
304
-64
-176
240
304
192
-240
304
512
368
528
-144
-80
-144
64
80
304
-240
496
-64
-304
400
576
288
96
-304
-464
16
144
64
768
-112
0
80
-16
-304
-336
-240
-176
576
656
336
-144
-240
-624
-192
0
-144
-384
-320
-224
288
96
-96
-368
64
112
-112
-304
-528
-368
-64
-288
16
224
-256
-528
32
-32
-16
-192
0
256
624
288
96
112
528
-160
-256
-96
-496
-320
-704
48
-224
192
192
144
416
160
48
-400
-304
-400
-96
-176
-304
16
112
-176
-112
32
272
48
-304
-192
-224
-368
240
-80
176
352
-352
-400
-128
-320
192
416
0
-368
-256
16
-288
192
496
192
-48
-192
-16
240
416
-64
224
304
-512
-64
-32
-352
-64
192
176
144
48
144
224
208
176
-240
-752
16
-400
-432
-672
-368
-32
144
-112
-128
-432
-560
0
432
16
-576
-416
96
480
-160
48
-160
-144
-80
-32
16
160
256
384
128
-256
-352
-48
208
16
16
80
448
432
-144
-464
-176
-576
-192
-592
80
256
-256
-144
-192
-64
544
512
-80
-272
-144
-112
-64
-272
224
272
96
96
-128
496
16
176
480
288
-112
112
176
32
0
-160
-160
272
-208
256
368
272
-16
-144
368
-112
208
176
544
80
-80
-192
-272
-48
-160
-464
64
-320
32
272
384
0
144
-128
-160
-48
-320
-80
96
-480
32
-176
160
128
32
-288
-720
352
272
-544
192
48
-16
432
80
-256
176
-16
-256
0
288
-160
-208
-304
-720
-480
-192
240
-176
16
-16
-224
-112
48
-320
-368
-80
16
-176
-288
32
-256
64
0
-112
528
608
-432
16
624
320
-208
-160
0
400
400
-48
-208
304
496
432
-64
304
576
304
208
432
32
720
64
336
560
112
176
-160
-480
64
96
384
560
64
288
-144
-192
-32
624
192
-544
16
-176
-480
-256
-96
48
-48
32
-32
-112
144
512
352
-112
592
48
0
336
-80
320
624
304
176
-496
-576
-48
-32
160
240
192
224
-272
176
-224
-192
224
-368
16
-144
-112
-64
160
-16
224
224
-416
-736
-160
-256
-160
-176
-240
-128
-272
-112
-208
32
-160
-704
48
256
48
-48
-32
32
-288
64
-112
-544
-464
-320
112
-288
-208
-224
64
-112
128
400
368
-80
-288
-208
-80
-288
272
368
384
-16
176
-400
-304
-144
48
-48
-96
400
-32
-96
0
-336
-480
-192
-256
128
224
-80
-144
192
-80
-224
208
224
-16
-448
16
208
-128
-288
-144
-160
-336
-320
-80
-320
-240
-112
-176
320
528
48
80
128
-48
-144
-160
-272
-624
-608
-336
-160
-96
-368
-240
-416
-64
-240
-48
208
32
48
288
-144
0
176
48
-288
-1040
-528
0
192
336
-80
368
272
-432
-288
320
352
80
-272
112
-288
-448
-224
-176
-48
-432
64
-352
-256
416
-80
-96
624
288
224
384
-16
-256
-32
256
368
288
272
176
-320
-176
-304
-96
-80
320
-272
-368
-288
-256
-224
-400
64
160
-240
-560
-288
16
576
128
256
608
112
-176
160
-176
-368
448
320
-208
48
-448
-768
-368
112
240
256
0
32
-224
224
336
-32
-512
-64
16
304
16
-480
-352
-144
64
-576
-544
256
64
192
-336
-592
-320
0
-384
-80
112
-176
160
496
240
288
352
-160
-512
-528
-256
32
176
208
-176
-432
-240
-368
-464
-112
176
32
-128
240
64
-608
-176
224
128
448
32
208
64
-192
16
-48
-128
160
-240
-208
16
-448
-16
144
64
256
480
448
464
400
-480
-496
-352
-64
224
128
128
48
576
192
656
416
-96
-16
-64
96
128
240
848
576
400
-144
208
512
816
448
-352
-224
32
192
-48
-336
80
112
-432
-336
-224
160
-96
-432
80
80
128
-336
-160
-144
-144
-144
-64
272
-400
-464
-160
128
448
-112
80
96
16
-32
-208
-384
-112
96
32
-368
-256
-272
288
240
-496
-304
-448
-368
256
256
96
288
-16
-192
-256
-304
-512
-480
112
16
128
-192
-16
256
144
96
336
656
720
560
64
304
-320
-512
80
80
-224
-336
-80
-208
384
208
192
-240
352
336
80
80
16
-464
-608
-624
-352
-128
96
-160
-240
224
-64
128
-192
-448
-64
160
496
-272
-32
544
0
-96
192
48
-128
144
-160
176
64
-224
352
480
128
0
-16
96
592
-96
176
208
256
256
144
-64
-256
-96
112
-368
-320
-176
-192
128
432
416
400
-144
-224
-320
-448
-112
-32
-240
-256
-16
-80
224
16
256
176
224
32
96
240
32
-64
-352
-144
-64
-48
-16
-208
288
32
208
32
96
96
-272
224
160
-112
96
-48
80
448
272
-176
-192
128
144
512
288
256
64
-368
-208
176
-480
-368
368
912
112
64
0
336
336
-496
-240
-400
-496
-528
-416
-144
112
160
432
-272
-400
-144
-304
-272
-288
80
864
-64
16
288
-320
-96
-32
-352
-368
144
656
-128
-736
-16
464
752
160
48
-96
-256
32
-96
-336
160
-192
-352
-272
-80
-80
352
-128
-128
128
400
96
16
224
608
128
-176
-48
432
320
352
96
64
-16
16
96
-192
-48
48
32
-160
320
464
256
-16
-448
-144
368
-64
112
0
96
-256
-96
192
240
128
0
-208
-224
240
304
528
96
-48
160
496
464
144
480
-16
-32
-112
-48
-112
-384
-256
-16
-80
-144
-16
256
176
320
112
144
176
288
80
-240
-176
16
-160
-224
-272
48
320
304
192
352
560
80
48
128
208
432
-272
-32
256
432
160
-208
-32
240
80
400
272
-208
-224
192
320
144
-560
-400
-160
48
608
160
-160
144
0
176
80
0
-112
192
368
-144
-160
240
16
288
-96
-64
-32
240
32
240
-176
-256
32
576
0
-208
-288
32
80
-96
192
48
-176
-176
-464
-384
-272
-464
-272
16
272
368
-32
-128
400
-64
80
496
544
112
432
656
176
-176
-768
-256
528
-80
160
-416
304
224
-208
-400
-320
48
-112
-256
-112
208
-192
-384
-400
-432
144
-48
-176
-32
-64
-128
272
512
48
-640
-608
-320
-224
240
96
-304
0
208
256
32
48
-32
-272
-192
96
304
528
-176
-48
32
-592
-64
128
208
-80
-112
-16
-224
272
384
544
512
16
192
32
64
48
112
224
80
-224
-80
320
432
80
-16
-176
-160
272
208
416
512
-96
-432
-144
-208
-16
-96
96
352
48
-288
16
-48
-336
-192
32
208
-448
-96
384
16
-96
80
-144
-80
-320
-64
32
544
400
544
-352
48
288
-144
-48
80
192
96
208
-96
16
112
-336
-144
-656
-160
528
0
-176
16
400
208
240
-144
-112
160
-112
-64
-240
-752
-624
-480
-368
160
176
-176
0
160
176
288
224
-80
-256
-608
-32
80
-144
48
-16
-400
128
224
224
256
112
-304
576
288
-128
-16
-48
80
-224
304
288
400
128
-144
-496
-224
272
144
176
-96
-272
160
176
208
720
-336
-368
-144
0
-64
96
-416
-240
528
448
176
464
176
-176
240
192
0
-16
-576
-464
-192
160
-560
-384
32
-384
-464
-112
-256
-208
320
336
64
-112
-208
0
-160
-304
128
112
-352
160
448
-48
-96
-80
-16
80
-128
-384
208
192
-48
176
144
-208
-336
-560
-592
128
48
-272
-32
-48
-256
176
80
0
80
-240
-176
-640
-272
80
-48
64
272
240
304
336
128
-192
16
-144
48
416
-80
-96
-64
-224
-224
-352
-304
32
-128
112
176
-224
336
304
272
96
-144
16
-16
0
304
304
592
224
-288
-464
-32
160
-368
-112
-16
-64
-272
464
-208
-272
576
320
-576
-416
-304
-352
-64
448
-208
-352
-400
-48
-32
288
160
-368
112
528
-16
-400
-304
-352
160
-48
-368
-320
352
-16
-288
-64
-256
-384
80
-32
176
128
-416
-384
-16
128
544
160
-560
160
96
320
112
0
-128
-624
-112
-224
-80
48
-64
96
128
-256
240
352
-224
-416
-80
256
-128
-512
304
-32
96
48
96
-16
496
128
-128
-96
-80
192
-48
-80
-592
-560
-592
-224
368
208
-32
304
-80
-304
-48
-144
48
-400
-448
112
-528
-192
-64
-144
-336
160
624
496
320
128
-80
0
384
400
112
0
224
16
-16
192
64
32
400
112
432
448
48
-256
-80
64
-16
368
448
688
240
-176
64
544
144
64
-112
256
192
112
176
-400
-432
-48
608
608
0
-288
32
-528
320
96
-32
0
192
64
144
336
80
112
112
16
592
432
64
656
384
176
-96
-16
64
544
-320
-96
32
-32
224
-32
-224
-176
-352
-80
-48
-80
-320
0
-288
-288
-224
320
-272
-240
208
-80
-256
-256
624
192
208
-16
-112
352
624
624
288
256
512
256
-160
48
-224
-240
-256
-240
-80
-80
48
128
-256
-640
128
240
224
288
48
-16
-160
-304
-304
-48
592
192
-368
64
320
80
176
-64
0
240
48
-144
240
160
-16
-368
-368
-16
656
240
-64
288
-224
-80
544
208
-16
-352
-240
304
304
432
496
-48
16
208
-16
-400
-32
320
176
384
-48
-96
192
352
288
-16
208
-320
-720
-256
560
64
0
256
224
-192
16
-16
144
-256
-80
32
-64
-176
-240
112
-272
-320
-192
0
208
-80
-112
-656
-176
-64
448
-16
-464
-96
208
176
-448
-256
-256
-352
-112
192
48
-256
16
-48
32
-272
-80
-112
-288
16
16
128
464
-224
240
176
256
96
-80
-64
-64
160
512
48
-64
64
-352
-176
-352
-272
48
-336
-144
48
272
48
-64
64
576
192
32
144
320
160
-832
-496
-96
-160
208
32
256
160
-416
-144
-256
112
-240
-144
320
448
0
-176
32
288
288
256
-48
-48
-400
-80
64
-144
-144
272
-128
-176
16
-256
-144
48
-48
160
-416
16
48
-176
-48
-160
-288
304
288
192
-400
-112
-48
-496
-128
176
160
336
32
-32
0
144
-80
-464
0
208
224
304
-464
-352
-368
-288
0
-480
-432
-560
-64
48
-256
-544
-224
-512
-144
480
-32
320
288
-160
240
-112
-368
-208
-96
400
336
-128
-48
-176
320
192
64
304
-48
-176
304
208
-16
-192
-608
-32
-48
64
-288
-272
240
-432
-416
-464
-32
192
112
-192
-128
80
16
-256
0
-464
-512
144
144
48
272
-208
-736
-320
-464
-80
112
480
336
-208
-880
-416
96
-128
256
64
-208
-272
368
176
480
16
0
816
688
-448
-128
656
560
528
272
208
144
288
144
192
-176
-16
-400
656
192
112
416
288
48
48
-192
-496
-688
-448
0
240
320
-128
-208
416
176
-272
-112
-208
160
448
96
240
-224
-240
-192
-64
208
32
96
352
352
32
96
208
-32
-128
368
-64
-96
-96
-352
-176
-32
704
496
176
64
-560
-176
32
256
400
-192
-128
80
-336
-48
112
64
112
304
-432
-320
-208
224
48
-544
-64
144
0
160
-416
16
352
64
80
-64
-16
-64
-192
-272
-16
352
-80
-448
128
-160
-656
-240
-176
320
64
-224
-176
-464
-384
-320
-352
176
-160
-288
-560
32
-224
256
48
80
144
-32
-80
80
128
-224
80
-176
-528
-272
256
-208
-240
-464
-80
-160
-288
-160
-176
16
-544
-576
96
-112
144
208
-352
-160
640
-16
-176
-112
-240
16
144
272
272
336
-400
-112
96
240
384
416
208
-352
128
192
224
544
288
-272
0
-144
176
432
-352
-80
160
368
560
-224
-176
192
256
176
-96
128
0
-416
-112
-112
320
176
304
-464
-368
288
144
-464
-640
224
352
-176
-224
224
400
-64
32
96
-32
-272
-224
-176
304
640
-80
-624
-288
176
480
96
-192
-448
-464
-64
64
208
544
112
-64
176
-224
16
-176
-272
-256
-16
0
16
-96
-208
-288
-816
-96
112
48
528
288
-48
-160
80
-32
432
400
-112
224
-32
256
256
288
224
528
48
96
320
304
128
656
448
16
-32
64
-160
480
320
304
192
336
-96
656
320
0
-416
-80
416
-16
-288
-576
-176
64
-288
-16
64
-256
192
512
-352
-304
-400
-512
80
176
16
-128
192
160
-192
64
-160
144
336
-80
96
80
-160
-496
-272
-592
-192
64
400
320
352
288
-128
-176
0
-288
48
-208
0
112
-768
-336
-384
160
304
128
384
448
-176
64
-528
-208
32
-240
560
496
-320
-464
0
-32
-96
-384
-272
-192
320
256
400
48
0
-432
-32
-48
-544
-688
-160
32
-128
-560
-672
-384
-320
-352
80
16
-112
432
64
384
352
288
272
-288
-160
144
-256
-560
-256
304
64
544
112
-32
-160
-80
384
208
128
64
-48
-240
112
304
112
160
384
96
224
480
768
-16
-416
16
352
80
-32
96
-112
-240
-160
-400
448
-176
272
224
224
16
192
464
64
-96
352
224
-192
96
-192
-512
112
-576
-608
-352
272
32
192
0
-336
272
96
288
384
-64
128
368
0
-288
80
-48
208
192
208
-144
32
400
-96
256
208
-128
-304
-528
-128
160
32
384
176
448
-336
256
-64
-544
-32
304
64
96
288
160
352
-144
272
544
80
-48
-272
-288
128
112
-576
-416
-224
160
-336
-400
-320
-640
-672
-208
736
448
-368
-64
272
32
64
48
192
192
128
80
-448
-144
-80
-208
32
-272
-112
-128
-688
-448
-368
-352
192
256
-112
-80
96
160
-96
32
320
-144
-448
-400
-448
-368
-464
-832
-496
144
-208
-32
-176
576
16
-496
-544
-240
-128
320
96
224
464
240
352
-208
144
-32
-192
320
16
-496
96
368
368
-240
-384
-80
112
-416
-192
-128
208
512
208
464
-112
-336
-144
-64
64
-320
-464
-432
-336
-128
96
-320
-176
-432
-240
112
-80
-192
-48
272
368
240
-288
-192
288
-288
-256
432
96
-64
96
240
-464
16
16
-80
0
80
128
80
-64
-160
-240
-352
-128
-112
-160
-160
688
224
-64
-64
320
48
112
16
368
32
272
48
-240
-496
-384
-192
144
-272
256
32
-16
-64
-208
416
384
-240
-224
-176
224
288
368
16
32
-416
-112
-496
224
272
-208
-128
224
80
352
272
-144
-256
-160
128
224
-480
-304
160
240
176
16
-224
-32
-16
-400
448
176
96
-144
-560
-288
112
400
112
-304
-48
128
624
-336
-256
-256
-224
-240
144
160
0
-320
480
48
32
528
464
32
64
-544
-352
416
384
-128
192
-304
-288
240
-96
160
144
-208
-448
-448
-320
-112
-192
160
496
-48
-112
-368
-416
-240
-256
-64
-176
176
464
-240
-288
-48
-128
-368
96
384
-48
0
288
256
496
224
256
304
-224
-208
128
-224
64
-224
32
64
-336
-128
-128
240
608
384
80
-112
-240
-176
-32
272
80
144
160
64
128
256
16
32
16
176
64
512
32
16
416
400
-256
-16
240
192
368
-64
0
-80
16
-208
-544
48
256
-64
-32
16
240
432
96
512
-16
-656
-288
224
240
224
304
16
-48
-288
-784
-576
-496
240
-128
128
304
-224
-112
240
528
160
224
368
176
384
112
512
-176
160
256
400
432
208
448
208
320
256
192
112
176
0
-208
-256
160
128
-48
96
176
-112
-96
656
368
-224
32
176
-240
-224
-240
-320
-464
-400
-144
-32
-160
112
608
-176
-400
-64
64
48
48
-144
-32
-576
-576
-528
160
576
80
-208
-512
-624
-144
-80
-416
-176
-720
-384
-320
-432
0
-128
16
320
-96
-368
-304
-32
272
-80
368
224
128
-304
-512
-288
-304
-288
-16
-592
-304
-128
-96
-80
-192
0
-288
16
288
96
-144
-96
528
128
-256
240
464
640
976
448
-128
-96
-368
-320
80
0
-432
-96
96
-96
352
144
-128
128
96
-480
-704
-240
-144
128
112
-208
-304
-144
-176
16
288
32
96
96
-192
32
-16
-144
-480
-640
-320
464
112
-448
368
480
144
256
0
-208
-96
192
-48
-352
-576
-240
-512
-464
-224
80
-80
-48
-288
96
416
-48
32
-672
-112
-16
160
336
-128
-144
-128
320
400
32
16
-64
352
272
32
-96
272
560
112
-400
-304
48
-112
-96
-80
-336
256
32
-192
80
416
-320
-480
-192
-240
144
272
160
416
-48
-96
-112
-208
-96
-16
16
64
-96
-272
-48
-16
128
144
112
528
368
224
208
-160
-240
-160
-48
0
-160
256
464
160
16
-32
144
272
448
96
-192
-192
144
416
256
240
240
112
-448
-176
496
416
336
-128
64
208
160
64
176
368
-64
112
-96
-416
-480
64
-48
-144
384
368
-208
-48
-256
16
0
32
-144
-240
-368
-256
-32
80
80
128
-400
-432
-208
-304
-80
-176
-384
176
96
-80
112
256
-512
-656
-128
144
-208
-704
-176
-176
-112
144
-32
0
176
-144
-704
-176
80
400
-32
-336
-240
192
-112
-432
-144
64
304
416
320
336
400
208
-96
-176
-48
-80
352
704
368
288
256
48
288
368
64
480
576
-32
-208
-192
-16
-256
96
368
-176
32
-32
-352
-368
-240
-352
-32
48
240
192
-192
0
208
-384
-800
-672
-96
-672
-816
-32
-112
144
-304
-576
16
48
-256
-288
16
16
-64
0
-640
-144
208
96
-400
-64
448
128
-176
-112
128
48
-64
256
144
304
592
32
224
256
-128
0
448
368
464
-256
-544
-192
-16
384
176
128
-16
-480
-576
48
448
-48
-448
-448
16
240
-64
384
336
0
-48
-176
-16
368
-144
288
16
272
80
48
-112
-208
-592
-288
176
176
-288
112
288
32
0
192
-64
-16
208
112
-160
128
112
-256
96
-256
16
-16
0
-208
80
-304
112
-176
-16
480
256
64
144
208
-144
96
-320
272
112
-160
128
16
160
256
-32
80
352
272
-16
-288
-208
-288
-400
-176
-272
-144
416
-256
-784
-608
-432
-608
-592
0
-16
-320
-240
576
480
-176
-272
-304
-352
0
-96
64
224
288
-48
-32
192
32
-96
0
-144
-80
-224
176
64
48
-48
48
208
64
-352
-320
-128
-144
-64
-16
-80
-48
-96
-416
-288
-176
-400
-64
32
-272
-400
64
-80
-224
-192
208
0
224
-208
128
320
336
192
64
80
-48
-416
48
432
240
16
176
-384
-352
64
208
-80
128
144
64
176
-160
-160
64
-160
-176
-256
-496
-288
-80
-160
-288
128
384
64
160
352
592
288
-80
-48
48
48
112
464
320
-240
-416
-32
64
128
-384
-304
-432
192
240
32
144
176
-144
304
144
-368
-240
48
-432
48
96
112
-352
32
144
-320
-384
128
176
32
-32
592
496
192
48
-144
240
240
144
-256
48
160
128
96
208
80
224
-640
-208
400
-160
320
528
240
-32
240
320
-32
208
208
-160
-224
-160
-416
-352
400
336
144
-272
-48
80
192
288
-432
-208
-288
304
208
400
640
272
16
-32
224
-32
288
80
-176
224
80
-352
-496
112
336
-160
-352
144
-192
-16
160
416
624
144
-16
-128
-128
-112
-96
-224
192
192
-160
176
160
160
-192
-400
-128
32
160
112
288
-192
336
208
-304
-240
-96
-320
-32
80
128
-64
-128
400
-144
-32
-368
-128
-448
-16
-48
176
144
272
144
-144
208
304
-96
-288
144
-80
-352
-416
128
-160
-192
-416
-240
32
-112
240
400
-128
16
-224
128
-352
-96
-16
-32
480
64
-160
-32
-176
288
-176
-208
-448
32
0
80
240
496
448
208
592
352
16
192
96
-224
-64
-128
-80
-176
-48
16
64
48
-32
80
208
256
192
384
-272
-48
-48
208
-112
-224
288
464
496
96
336
0
-112
80
-208
-544
-288
160
-288
-336
0
128
144
-80
112
-64
48
-96
-144
-320
-144
320
256
-400
-288
128
-384
-128
-112
0
144
320
16
-32
-416
176
176
80
-112
448
992
256
-128
64
320
336
240
-144
-80
64
336
720
-160
16
96
96
-240
-224
176
224
-144
-64
32
112
-416
-64
-160
-64
464
64
-384
-48
-240
-144
-16
0
496
176
-208
-48
-336
-416
-128
-304
-272
-656
96
-80
-240
336
-64
192
528
112
-16
32
-288
144
400
-80
-16
480
160
-224
-192
176
-32
336
16
32
-128
-256
96
96
-32
144
0
-400
-320
96
96
32
624
32
-112
-80
0
112
-144
-16
-48
-336
64
-96
32
320
640
448
-272
-96
-144
32
-320
0
-304
-144
-480
-400
-128
0
-240
-336
160
224
-80
-144
-208
128
96
-464
352
448
0
-96
-176
-336
-368
-112
352
272
-256
-352
-336
-608
-288
224
560
560
64
288
384
352
96
-208
544
736
272
144
96
-304
-224
96
-160
-288
192
256
-192
-464
-256
160
-16
-208
160
32
-80
-160
720
208
352
320
288
-240
-16
32
-560
-368
-512
-352
-32
272
-256
-560
-240
32
-192
-112
384
112
32
-160
-496
-192
16
-544
-80
160
-352
160
-416
-416
-272
-48
240
144
16
-320
48
400
64
0
272
160
576
560
-96
32
352
240
48
272
240
-256
-288
208
400
0
-32
-288
-96
-96
288
-160
-224
-144
240
288
288
-208
-208
-176
-544
-272
-208
-80
432
192
128
208
-16
-64
224
16
-672
-368
352
416
-80
-368
-80
-16
-144
352
144
64
608
368
-48
160
-32
96
-304
256
96
-256
-192
112
-80
-128
-320
-544
-96
160
272
-160
-272
272
48
-128
304
0
32
64
-64
160
-224
-352
0
-16
528
-192
-416
-368
-352
-224
-256
-224
80
176
368
560
192
-112
-272
-464
-224
160
608
160
-560
-368
-64
48
0
320
672
400
-32
-384
-352
224
-112
-96
-240
-624
-16
-512
16
480
256
576
240
432
160
480
256
256
-176
16
192
176
-208
-304
160
368
-144
-96
-224
-144
224
480
272
96
-144
-480
-272
-192
-144
-48
-192
96
368
496
448
0
-304
-400
-800
-608
-288
-416
16
656
-272
-464
112
416
-16
-368
-384
288
176
192
32
-112
-256
-336
-608
-304
-544
0
464
288
-64
48
-208
-160
-96
320
176
-176
-192
-64
16
464
-464
-576
-256
128
608
304
144
-288
96
272
-112
256
-352
48
400
64
-64
416
96
-176
-320
-128
208
32
-304
64
-160
176
352
272
224
576
-192
-480
272
-32
-368
-80
-208
-352
0
64
-32
96
-112
-320
-176
-272
-224
576
368
192
208
-64
-384
-544
-624
-64
224
-272
112
-128
240
16
64
-176
48
224
144
160
-400
-400
352
64
-64
240
432
-368
-80
256
240
144
-48
-96
-48
-352
192
-320
64
176
96
80
16
304
112
-80
-288
288
-128
-416
-128
128
-48
-112
160
-16
224
368
-112
-80
192
112
256
496
720
-32
-160
128
-128
-256
-112
-656
-352
-96
-112
-336
-96
592
304
-64
112
32
16
48
-160
48
-224
-288
-464
-48
112
-48
-464
-432
-64
80
176
-192
-288
-224
-368
-544
112
336
-96
-176
224
144
128
96
-48
-176
304
288
-192
-272
-16
80
112
-496
-48
336
288
864
816
704
320
-240
-224
-304
-560
-464
0
352
304
32
-64
-272
0
32
224
96
-352
-112
-16
144
-304
-352
336
400
-160
192
16
-416
-288
-112
208
128
0
336
480
544
208
-16
192
176
512
528
-176
80
-224
272
144
-112
-144
-64
288
272
0
-112
208
528
48
-448
-352
-336
-128
96
112
432
224
-48
128
224
0
192
592
-64
-80
288
128
-112
-224
-352
32
48
64
-464
-192
-512
224
512
192
-192
-336
-496
-640
-624
-448
-272
96
-16
-160
272
128
-560
-352
-208
-464
368
208
-192
32
464
48
-32
-528
-384
-96
-80
80
144
16
384
-336
-48
-576
-432
-176
-192
-336
-320
-144
112
80
112
-272
-128
32
-480
-224
-272
320
80
480
736
-176
-112
-48
64
-528
-560
-688
-896
-528
48
-64
112
352
352
176
256
208
-16
400
384
464
624
320
-160
-80
-48
-384
-128
256
-304
112
-320
-288
-528
-80
192
-96
32
-368
-816
-512
464
336
-128
-96
-256
-432
-192
-336
-48
192
-416
-784
320
464
48
320
48
-416
368
944
160
-256
32
368
528
656
144
-32
-496
-592
256
288
-112
-80
64
224
-80
-416
688
560
32
-176
16
-288
-192
288
176
16
-368
-176
48
352
0
64
128
-240
-32
-304
-96
32
-528
-416
-240
-96
-240
-256
-400
-416
-192
624
480
-144
-304
-32
-128
0
16
160
-272
-288
-144
592
-16
144
80
144
-16
336
-224
-448
-256
48
-160
-624
-448
160
32
-256
-368
-224
-48
96
256
992
352
64
688
368
-128
-240
-96
-320
-400
-32
-432
-192
112
336
-64
96
-448
-480
-64
-128
-320
-416
-208
-32
240
-80
-224
-176
112
-320
-608
112
592
0
-160
-208
112
144
192
-288
-16
480
768
-176
-528
240
64
64
304
128
-160
272
16
-48
-192
160
672
-32
-400
-160
-304
192
352
288
288
-176
256
544
576
800
272
32
-368
-384
-288
-16
-16
624
432
-64
-128
-32
224
-240
624
720
-64
-336
-64
176
288
-384
-608
-160
96
544
128
0
-256
272
32
-192
-32
-304
-352
-144
-720
-112
304
-80
32
304
480
832
208
-96
176
64
0
16
368
-16
-144
112
-176
-16
192
224
240
192
-320
-64
32
-144
32
-176
-464
-16
224
-560
-96
-160
-320
-32
-32
240
48
-16
-128
-512
-624
80
-96
-240
528
272
-464
112
160
48
-64
-560
128
784
352
-96
-32
64
240
-64
-192
352
144
-368
-352
-240
-304
-192
-176
144
-144
112
-624
-592
-288
-176
-96
80
-96
-16
320
-288
-304
-368
-48
544
368
-512
-416
352
16
560
64
192
656
16
-336
-288
-544
-208
48
-384
288
16
-320
-288
128
96
-448
-528
224
160
80
-304
-224
-160
112
-32
128
224
-320
-640
-416
-208
32
-320
-464
-512
96
-144
-736
-384
144
-144
-224
528
416
-32
112
-160
128
-192
-592
-432
-400
-240
-112
176
-80
-240
16
-192
-400
-320
-112
32
352
480
-128
-96
16
-272
-576
304
-112
-192
192
448
400
112
-320
-368
-144
224
128
48
208
192
-224
192
496
400
-80
-320
-32
640
64
-688
-688
32
64
-256
144
-64
-112
64
-240
176
0
-32
16
64
-704
-304
240
-752
-320
640
384
16
352
208
-128
-464
-64
64
-80
-128
-304
-224
-16
16
176
96
-288
-448
-336
224
-112
-224
0
192
304
-320
352
256
-304
-368
496
784
352
208
-48
32
-224
-192
-48
-48
-80
-256
80
176
48
-128
112
240
368
-208
-256
-176
-464
-576
-256
-32
32
-16
-16
80
288
432
-80
-208
-272
-448
128
496
336
-144
-432
-176
-448
-432
-272
112
384
-176
-304
-96
320
-32
240
-80
48
-48
384
496
-64
368
864
576
576
272
-80
96
-368
-128
96
-400
-16
32
128
304
-32
-176
-144
-528
400
-80
-688
-32
352
256
-208
-96
80
336
176
304
192
-112
96
-368
-464
-112
-48
48
448
576
304
768
144
16
64
368
272
224
-112
-432
-688
-16
-144
-544
-256
208
208
-336
208
480
224
-16
-48
240
112
224
304
368
640
288
592
-64
-80
-144
112
176
-64
-288
-128
-352
-176
-320
-448
-272
80
-80
32
464
528
672
160
256
-368
192
-384
-256
-128
256
192
240
832
-192
-688
-64
96
-464
48
192
0
-288
-128
-48
-128
128
32
-336
-688
-560
-224
-16
176
-256
64
144
-16
-352
-80
400
128
-352
-16
-304
-496
80
416
80
112
32
-368
-272
-288
-112
-112
-64
-336
112
288
-96
-304
-416
-432
-480
-128
-528
-96
112
160
-368
-416
-16
224
-224
176
-176
512
416
-320
-400
-352
304
240
224
144
-128
-400
128
480
544
32
0
80
-240
-128
336
-96
-224
224
608
176
-464
-96
32
464
432
-192
752
336
-192
16
48
-560
-464
288
-80
-112
-128
-32
272
-368
-480
-112
240
208
64
256
128
-32
-48
304
-32
-208
-192
-656
-704
-304
80
432
80
-144
432
96
-368
224
768
320
96
-80
16
96
-224
-288
-160
160
288
32
80
112
96
-192
-528
224
496
752
64
-352
-144
80
-528
-304
-544
32
576
240
96
32
-448
-384
-16
240
-16
240
720
256
16
-80
352
-64
416
384
416
-480
96
-112
-560
-288
224
112
320
480
128
-48
-16
240
384
32
176
-240
-112
-416
48
192
320
48
320
-128
16
704
-32
-160
352
-320
-144
-96
512
448
96
-304
-320
-64
-144
-80
240
-160
208
416
16
-256
-288
80
256
16
416
-256
-112
-368
-400
-112
304
304
448
80
-128
-80
-480
-16
16
-208
-80
-224
272
-208
-272
128
-752
-416
-48
176
320
304
-32
-80
-256
-32
0
-400
-336
-160
-384
176
80
16
-336
-352
-80
448
144
-416
-544
-352
-528
-288
-160
-16
-64
144
-128
-128
-336
-512
-320
-352
32
0
-240
-160
-320
-16
-400
-304
-144
800
288
0
352
160
-80
-96
-224
-416
-416
-528
-320
-48
160
144
16
-112
-16
-48
-288
-144
-48
-304
16
336
48
-160
-224
112
384
416
528
352
16
16
-208
-160
96
240
48
-80
-48
32
-384
96
-64
-592
-672
-144
16
272
320
-512
-496
0
-288
-96
-416
-352
96
-544
-384
0
176
160
592
432
-16
-96
-272
64
96
416
-192
-400
128
-112
128
-16
-464
32
224
240
384
368
-416
-144
-48
-288
32
16
256
0
224
80
-64
-336
272
400
416
432
-48
176
176
0
-144
-128
288
528
512
368
-272
-192
-160
288
368
480
272
400
176
-32
-64
320
560
352
80
-208
-16
-304
32
-32
-176
-224
0
-160
208
16
-80
-144
-96
80
368
352
-368
-96
-32
16
640
384
432
480
-96
128
-112
64
-192
16
384
224
288
-112
-192
112
-240
-320
-144
-80
-96
-208
-144
-416
-160
-304
-96
-192
-336
336
-64
48
192
-112
32
-32
416
320
112
160
64
-192
-32
-160
-112
-336
-48
-112
48
32
-48
-544
-752
-320
-160
-80
144
64
768
112
32
-320
0
352
720
-256
-560
-496
-240
-208
448
-208
32
-272
-528
224
-288
-208
-80
64
256
16
80
-128
-80
304
48
-240
256
560
272
128
-48
-48
-112
80
-352
0
16
64
-128
256
-64
-144
176
320
240
0
96
368
-432
-480
208
-240
32
-96
-432
-352
256
64
160
192
32
-112
-208
80
80
-128
-352
544
240
224
352
320
32
528
48
-704
-80
320
512
240
128
-304
-304
144
-80
-96
192
64
-32
416
432
48
-240
304
256
432
16
-224
-432
-64
-48
64
144
-48
416
400
160
240
-112
64
192
0
-224
112
160
-384
-208
-352
-112
32
80
96
-208
48
208
272
-16
-288
-320
-368
-80
384
-64
-896
112
384
-96
-352
-288
-48
-240
-656
-128
-336
112
-192
-496
-352
-656
-240
432
80
-128
256
192
16
160
64
-480
128
384
176
-240
-144
144
400
256
-128
128
112
-320
144
-48
-176
544
208
-176
-160
-512
-64
-464
-112
-304
-400
-800
-352
464
0
32
432
-16
-144
112
-336
-272
144
-80
0
16
-96
144
880
32
-32
-192
-240
-48
-176
176
48
-64
-224
-96
-128
-432
-176
16
208
-144
-128
-128
0
752
288
336
-112
-48
272
-64
160
-128
-240
32
32
48
-80
-192
96
400
384
-64
-496
-336
-112
-112
320
304
-144
-144
-512
-128
496
176
-304
80
320
32
-272
-256
-96
-64
-176
-336
256
336
-80
-368
-304
16
208
160
32
-96
-304
-96
48
160
-176
-224
-144
-128
-240
-192
-448
-448
-16
224
416
-272
-144
208
16
80
-96
288
464
16
-192
16
640
304
-80
32
16
304
224
336
-256
-64
-288
-416
-464
272
464
-448
-416
-48
176
464
0
-128
304
176
32
-144
64
-608
-592
-240
-304
464
128
-304
48
-176
-208
32
592
16
64
512
16
80
-224
-16
-144
592
864
240
-32
80
-16
-288
-192
-16
96
-160
32
224
-448
-752
-688
-416
-80
336
-64
-496
-112
-192
-368
288
256
240
368
192
-128
-80
0
16
320
-144
-64
-64
144
-144
64
160
-400
-320
-256
-384
-432
-64
-304
-48
-320
-64
-208
-80
80
-208
-752
144
640
432
640
80
-352
-16
-384
128
-32
-144
-432
-416
-64
-160
-496
-496
112
496
448
-352
-560
-128
160
-96
-96
-32
-464
-400
192
256
-288
256
-272
-144
48
-64
208
96
-112
-48
176
336
496
0
208
224
-208
48
-160
-176
-192
80
112
16
0
0
-176
224
144
-224
0
112
304
192
112
-48
384
-64
-112
288
144
208
128
-96
-416
-144
80
-48
64
304
112
-160
-240
-496
-208
-192
-352
-176
512
176
-224
96
-16
32
-496
-96
32
-272
64
400
432
-48
128
608
848
336
-96
-528
-160
-272
-96
-240
-416
-672
-208
192
-160
-288
352
96
-208
-240
-304
64
-112
0
64
432
224
0
-112
112
656
224
48
368
-160
176
160
-336
256
224
432
800
368
-240
-96
-384
-176
-96
176
-144
-32
80
352
272
272
752
432
-288
-176
256
304
-112
-192
48
272
-288
304
128
-80
-112
176
448
96
-336
-272
112
96
112
0
144
400
176
-448
-160
160
-288
-512
-112
-304
144
352
400
288
640
352
336
256
320
448
368
208
96
432
384
544
-144
656
608
464
96
-304
32
-80
-400
-304
-80
-160
80
-480
-480
96
224
-224
192
160
272
-416
368
208
144
0
96
-176
-368
-320
-448
-320
-432
-240
0
-128
192
-224
352
-48
-96
544
416
368
-448
-192
-240
-144
-736
-544
176
496
-368
-272
-64
-464
0
0
0
752
160
-208
-240
-112
352
496
144
-16
160
416
144
192
48
240
352
-256
-16
224
288
64
256
512
256
496
304
416
720
80
64
-400
-352
-160
-304
-480
-160
416
-96
-224
-592
-464
-128
112
-160
560
112
-320
560
752
-80
-64
-192
128
240
0
-400
-528
32
720
176
592
240
-208
-176
-144
64
256
384
368
464
-256
-336
-112
-32
80
-16
64
-64
288
-336
-144
64
-32
416
608
16
-208
-224
48
-160
16
-96
-144
16
560
-32
-144
-224
128
496
-144
-128
-112
-96
144
-208
112
64
-176
-208
336
-48
-16
-128
-48
96
64
-576
144
464
160
208
-416
-800
-624
-32
-32
-160
64
-64
-112
0
496
384
192
368
160
-64
-624
16
128
-224
-224
80
80
208
384
-96
-80
416
384
-192
-112
352
336
-112
-160
96
-128
-272
-288
432
-96
48
272
-224
-240
-384
16
368
240
448
144
-256
-288
-176
144
336
160
-32
-304
-32
400
384
-256
-160
-320
0
-16
176
96
160
-352
-368
-256
96
224
144
160
-32
-144
-304
-576
-96
176
-160
160
-128
-272
-144
-208
-176
-432
16
-48
-560
-576
-128
208
192
208
-240
240
352
64
320
-32
288
512
160
-32
-352
-32
-272
144
16
80
416
208
272
-16
48
160
-32
-240
-32
112
208
-576
-208
176
80
64
16
-144
-80
-16
-176
-256
-432
-416
-224
-320
80
160
-32
160
256
672
128
-144
-416
-608
-528
-176
160
352
32
-400
-32
240
256
16
-448
224
-176
-208
-496
16
-448
-224
-48
-320
-320
-128
-304
-288
288
256
464
240
272
240
-176
-256
-176
-480
-16
32
-304
-256
208
256
-352
-352
272
-336
-288
-240
-16
64
144
320
288
160
16
64
-160
-528
-96
-112
-336
384
48
224
272
256
-512
16
128
336
0
-304
-560
-288
-48
64
-240
-240
-16
80
-96
-32
208
-160
-256
-528
-128
272
-528
-224
-96
544
-304
-240
-160
-304
-416
96
48
416
48
-48
624
352
-224
-224
-96
-176
-480
-448
304
-432
-272
-32
-112
-448
-368
-384
-480
-256
-256
-64
256
-256
-240
-288
-160
208
368
48
144
240
272
384
352
480
0
-144
-432
-352
176
0
-256
-96
544
288
-176
0
368
464
-288
-112
-176
-144
-32
32
368
384
240
-272
-128
208
240
160
176
128
784
-128
-480
400
320
-128
144
-176
0
-272
-240
-80
272
320
144
96
-80
304
384
160
-32
16
304
144
176
0
-144
-368
144
-112
208
96
-400
-272
0
-112
0
-240
-432
-480
128
16
-16
-176
-624
-48
240
704
736
-64
-64
-224
288
-160
-192
-32
304
432
400
-48
288
-208
80
544
-80
-448
288
192
-176
240
-96
-144
176
64
-112
-48
-96
-208
-304
-352
-288
96
80
-176
256
608
560
368
128
-64
-416
48
384
208
176
-128
48
-448
-352
272
256
32
336
96
-16
-304
240
192
-272
-288
-336
48
832
176
144
-48
-240
208
-32
-176
-352
-176
-288
-480
-160
240
-512
-528
16
272
-32
304
176
-240
-320
128
80
16
64
400
-560
-320
-352
128
128
0
-240
-272
80
112
112
-176
-240
16
160
80
144
80
192
-32
-272
32
96
-432
-544
-416
-192
448
304
-192
240
592
-272
-192
48
48
304
-112
-224
64
-64
-320
-416
64
-96
-160
272
144
-224
48
160
-80
-352
-80
176
112
256
-64
-304
-240
-416
-96
80
-16
176
16
-240
-320
-272
16
288
96
32
288
608
304
368
208
96
288
96
112
128
-288
-768
-32
240
-272
-160
-144
-256
48
304
-48
-160
48
288
368
192
608
576
256
-160
0
352
384
272
496
352
16
432
16
-48
128
-16
-112
-80
-400
-400
-320
64
112
48
368
-112
-416
-304
128
48
144
-208
-352
112
16
-416
16
-80
512
416
80
-224
0
352
240
144
0
352
-192
-112
-64
48
80
16
512
512
128
224
-336
-240
-144
-256
-304
-208
-80
-432
-224
-96
112
-448
-192
16
-592
-448
-480
-32
64
-288
-240
-144
112
0
-368
-112
-240
-208
-16
80
-464
-256
-784
-336
-112
-208
336
272
64
16
-80
112
112
-320
-192
544
96
-320
-16
448
240
-112
-256
-336
-304
240
176
-368
-208
-336
-208
192
480
320
336
-320
-336
160
240
-224
-160
80
336
48
336
-96
0
-112
608
640
512
464
64
-144
112
80
224
272
-112
16
160
976
336
256
192
-48
-96
144
336
256
192
-176
-992
-240
-32
-320
0
-144
432
160
-48
-96
-448
-240
160
-352
-384
-272
-464
80
128
336
-128
144
-128
-384
-352
32
16
-64
-496
-112
64
368
544
368
1008
112
-352
-128
480
80
-208
32
-144
-16
-176
-832
-560
-192
208
224
400
624
480
336
432
80
16
-96
-160
368
32
336
384
32
112
480
368
144
48
-320
-64
-512
224
512
480
400
368
400
224
160
-112
-592
-16
-32
192
272
64
-144
352
-64
48
-368
-160
-112
48
-32
32
320
240
-416
-16
112
416
144
-48
-368
-304
448
-192
-448
160
144
-240
192
512
-80
-96
-400
-320
336
1216
704
-320
-448
-272
48
-256
384
32
80
528
304
-128
-32
-64
-96
32
-64
-320
-288
-272
-64
-16
-176
-80
-128
-320
368
-400
-416
-64
-96
208
144
400
208
112
0
-48
16
-128
-208
-112
-336
-80
592
320
576
576
240
-16
-224
-272
-304
112
96
160
32
288
-320
-288
-96
-48
-32
-448
0
-448
-544
-224
192
112
-80
-304
128
-32
320
288
64
-160
240
608
528
624
448
192
-352
-272
-224
-224
144
-160
-176
-48
144
240
192
192
144
400
400
-176
64
0
192
336
528
736
176
96
160
368
416
-32
-352
-288
-432
-544
320
80
-192
336
464
192
400
464
16
-288
-160
-96
96
176
384
160
-16
-288
0
-448
-368
-112
-80
-432
-32
96
-64
416
48
-272
-256
176
224
320
-64
192
672
336
160
112
208
-192
176
-256
-352
-320
-32
640
160
368
-160
-96
-272
208
176
-192
-128
224
160
-224
-352
-256
-304
160
544
352
176
-176
96
192
400
-48
-224
-96
-32
-48
80
-112
48
320
-288
-240
96
0
224
-144
-176
192
176
352
-448
-272
48
96
-96
-96
-448
-720
-288
-304
-240
-368
-304
128
-80
448
320
208
-480
-496
-560
-32
-192
544
448
-80
96
-64
48
208
240
112
384
400
-192
-96
224
304
272
384
-160
-160
-320
-272
-224
384
224
288
64
-128
288
336
336
-272
-400
-384
656
224
832
384
-48
48
112
-160
-96
-176
-400
-16
-80
112
80
192
-144
-544
-224
-304
-432
-544
-224
480
320
272
304
-96
-112
-176
192
-80
-320
-48
-32
-672
-448
0
336
208
-176
-496
-400
-96
256
32
80
0
-352
16
32
-112
160
128
80
-272
-704
-432
-336
-64
224
-240
160
480
16
64
-128
-224
128
224
240
-64
-80
-272
-576
-192
-64
96
64
80
352
-128
-64
-80
-176
272
672
-80
-32
96
16
208
384
16
-128
432
592
592
640
112
-176
-48
-32
96
48
-16
240
-112
-48
-48
-176
256
-16
-32
-288
0
-144
-144
-416
-448
80
-128
-144
-448
-368
224
-480
-864
-464
64
336
256
432
272
-128
-112
0
-576
-512
-320
-208
-160
48
-176
-496
-256
-288
-976
-672
-544
-432
-448
-160
0
-64
-160
80
160
-496
-48
-128
-112
464
560
-272
-592
-80
528
352
416
560
-336
-624
-272
-16
-272
208
752
480
-288
80
-96
-304
-144
-80
-80
-80
256
48
160
96
208
176
-160
-192
16
96
-464
-208
-256
-544
-576
-240
128
192
16
-704
128
384
-96
304
336
192
48
-128
80
-16
96
-160
-528
-464
-160
-224
-464
-176
-480
-176
-48
-240
-576
-400
-544
-384
-336
-256
272
160
-208
-416
-352
-16
-176
64
-304
-208
240
0
-32
32
-16
-160
-400
-256
320
32
160
64
160
-48
-240
-96
224
-240
-144
208
112
-128
-256
208
352
-80
464
384
400
176
144
208
-160
-288
-176
-80
336
480
128
128
144
688
288
64
320
-16
64
-288
-48
64
272
496
80
-48
304
-192
0
208
-304
-96
-32
112
336
176
-192
-32
128
96
-112
-16
-480
-320
64
576
336
32
240
240
-176
-32
-160
16
-96
352
0
-784
-448
480
160
-128
96
-80
-304
-384
-256
-288
112
384
240
400
192
192
16
-272
224
-256
112
144
496
464
336
-144
256
128
176
-48
0
48
352
336
480
0
144
48
32
96
-512
-160
-224
288
-240
-512
-160
-240
-32
-176
-176
320
-192
272
32
496
-224
-48
496
64
144
-96
-160
192
80
-112
176
608
160
256
-48
-80
-16
-96
288
304
-272
368
416
112
176
384
-176
144
480
256
80
416
32
-176
-256
-464
128
272
-240
-848
-288
560
160
240
128
-80
112
192
-112
-208
400
624
-160
320
48
-16
-48
144
48
80
-288
-176
-512
-192
-224
-560
-320
-16
288
-288
16
96
-576
176
64
-368
160
-96
-224
-80
128
16
64
208
-64
-224
-416
-96
-128
-432
-80
0
416
-80
112
256
304
112
336
288
-96
-160
-128
48
672
480
-208
-608
-368
64
64
16
112
-240
144
64
-128
-464
-560
224
-16
-128
352
-48
-176
-288
96
-272
-48
304
336
112
-96
160
-448
-368
80
112
384
80
-128
0
-400
-400
256
528
208
128
96
-112
192
1200
528
-48
-176
32
-256
-272
-48
64
-16
80
176
336
176
-64
128
352
-224
-288
80
-32
48
144
288
-128
-32
496
-208
-368
-224
128
256
32
-208
80
-80
400
288
-304
-272
448
432
320
32
-320
-288
-384
-64
176
416
208
-80
-128
-560
-576
-48
-192
-128
-176
-384
-560
-320
192
208
-64
480
528
-32
-256
-224
16
704
208
272
768
848
640
480
336
-240
-528
-432
-704
-32
-112
-48
192
544
80
368
144
-448
-752
80
112
-32
-352
-816
-128
-80
240
928
-112
-288
-80
-112
-496
-96
112
96
-592
-400
208
-160
-448
-224
144
320
-16
-96
-496
-416
176
384
-48
32
-656
-160
-352
-112
-160
-16
-96
144
416
176
-128
48
448
-32
-336
-560
304
64
-416
-480
-128
0
-80
384
608
32
32
416
-16
-336
-496
112
48
-304
-192
64
-176
-368
16
352
192
16
-224
224
48
-240
-224
-384
-144
160
-144
-112
-80
48
-384
-352
496
272
-160
-96
256
128
112
224
208
-448
-320
-192
-400
-352
-128
16
16
208
-16
-144
96
16
-144
-304
320
192
272
96
-336
-176
32
-336
-176
-176
192
-304
144
304
192
368
-16
-160
256
320
-96
160
-288
-256
48
-224
176
-272
-160
-144
112
208
64
32
0
432
368
-16
-64
-192
352
160
-64
-288
48
352
80
-256
-176
304
64
192
-528
-80
-64
-496
-336
-368
-160
16
160
128
16
-48
64
160
288
48
-64
320
-128
-576
16
-16
-144
112
128
192
448
-272
-32
-336
192
-32
-16
-176
144
0
48
368
0
-208
368
64
-480
-208
-240
48
-176
256
176
32
-160
-192
-192
288
-304
-592
-352
-384
-224
48
80
48
160
-208
-256
80
64
384
-336
-32
-480
-512
0
-64
144
288
128
240
-336
-208
-544
-352
96
-16
144
224
-112
-208
-272
0
16
-608
-560
-96
32
-336
64
-128
-16
224
96
-288
160
64
-32
80
128
512
-336
-464
-144
144
-48
-176
-224
576
368
96
224
336
176
368
688
592
160
-464
-448
-192
240
368
64
0
80
-80
-192
-112
-48
-208
-272
0
528
176
-624
-224
-192
-128
-96
832
224
-80
160
176
64
512
96
-560
128
-208
176
272
416
784
336
80
496
240
-320
-288
-400
-320
-32
304
224
32
144
-64
64
528
368
-224
-192
-384
128
208
-336
-32
48
-208
-192
128
128
688
-176
-96
432
176
0
560
240
560
144
128
-176
160
-304
-224
112
-80
336
-160
16
192
288
336
96
-16
208
-512
-448
-176
-112
-576
-560
-544
-544
-176
256
416
80
-352
-368
-272
32
-592
-288
-144
-256
-64
-544
-208
-48
-176
48
240
-128
-320
-688
-528
48
-608
272
400
48
-192
112
240
-80
32
16
640
288
-80
-80
208
32
0
512
1024
512
432
592
-16
240
192
-144
-48
-32
-112
-128
-304
-112
-240
-240
-240
-176
-176
-48
-240
-32
-224
288
560
-16
-16
-272
-80
-32
-240
-224
96
-256
-128
-192
-128
496
-144
48
-16
-32
176
-288
-160
-80
32
288
144
-112
48
112
96
288
32
-128
0
-208
-192
-128
144
464
688
240
176
-144
-112
272
-144
48
-160
80
-128
-160
-32
304
-16
48
400
-160
-592
-576
-320
-48
32
-112
144
-224
-576
-80
-576
-96
16
-112
-208
-576
128
144
192
288
-240
-208
32
-256
-368
-272
48
-176
320
288
-112
416
-240
-16
-272
-176
96
464
352
672
96
384
416
-272
-608
-304
-768
-640
-304
64
80
-144
-64
32
496
176
176
-160
-208
208
-80
-304
-560
-224
-160
80
256
144
-16
-144
496
208
96
64
128
-240
-160
-192
112
-32
-240
-144
-288
160
256
-48
-128
-512
16
-128
-256
-64
-576
-384
-272
-400
-128
160
-96
-320
-464
-256
-224
-144
-32
336
-48
224
64
480
240
160
128
-352
-416
-512
-496
-544
-80
160
48
-64
-112
-544
-128
-112
176
96
-544
-384
320
64
-48
240
400
16
176
128
368
704
288
-80
-128
304
128
-480
80
192
32
176
240
272
304
192
-400
128
112
-256
-240
-192
224
-112
-192
176
160
336
-640
-640
288
224
-432
-368
-256
-176
-32
464
48
-224
256
416
16
-144
-80
80
-224
-128
64
80
304
272
288
208
112
-400
-176
-176
368
-192
-224
-144
16
-208
-96
-160
-240
-112
0
240
96
464
336
-48
320
64
-208
112
112
-336
-288
64
0
-288
-352
-32
320
464
-304
-464
-256
-208
64
192
112
-320
-336
128
144
16
128
64
-400
416
336
16
128
-128
-160
-224
160
-416
144
544
-320
64
224
576
416
112
-32
64
480
48
48
-240
288
-224
240
208
96
96
-400
-480
-272
-384
144
240
-320
64
208
-336
-768
-464
0
16
-176
32
-128
352
-208
-208
-304
240
432
-240
192
640
416
48
-224
0
-240
-608
-448
48
-32
-224
-80
-496
-240
432
64
-112
416
992
560
208
160
304
-112
-320
-272
144
-64
352
272
656
272
96
176
48
-192
336
240
416
224
48
-64
80
160
-400
-16
160
400
-272
-224
64
624
144
0
-256
-624
400
368
-176
-288
-16
-240
-288
-192
0
544
816
128
-80
336
96
-528
-176
624
32
224
-416
-224
-416
-432
-112
128
128
16
64
80
-352
-240
384
-208
-128
-256
208
-16
-208
304
96
128
-48
-144
304
-32
192
-112
-48
592
512
-128
-16
336
352
592
224
304
240
-352
176
16
16
144
-48
-272
48
96
288
208
0
-128
-784
-352
48
96
112
32
-208
-384
-176
-64
304
160
-288
-64
80
192
128
208
464
64
320
32
-368
96
-192
-320
-368
-144
-96
-640
-80
464
208
208
512
48
240
832
464
-320
-320
192
48
512
-416
-304
304
-176
176
416
32
32
-576
-256
0
-128
-96
-368
-304
208
-96
176
-96
-336
-368
-16
-48
-272
-336
-336
128
-320
512
-224
640
112
-416
-272
32
496
352
-160
-160
80
-160
-176
-32
0
-416
-304
112
-288
96
288
16
-256
-48
112
176
80
-192
-384
-320
-80
144
-48
-416
-320
-48
80
-16
16
-400
64
304
576
256
-128
-64
112
224
-512
128
416
368
112
192
-224
-656
-400
528
-64
-448
-80
-832
-512
-128
96
48
432
224
128
-272
-336
-368
-256
-80
96
0
384
0
-32
272
-32
-304
-16
320
-432
-544
-304
-208
64
256
0
-80
0
-64
-288
-160
-16
32
288
32
192
-288
-240
384
480
-368
-336
32
-96
48
320
-192
-16
-224
-384
160
176
0
160
144
432
368
208
336
16
-48
288
80
-80
112
-16
304
-256
-160
-80
-384
-448
-144
-128
-64
-400
-112
64
48
592
-32
-64
128
32
48
-208
-288
304
528
288
80
80
-176
-80
-256
-624
-272
-48
-176
-464
-208
96
128
176
96
48
240
592
208
-48
368
-128
-608
-144
80
352
-64
16
176
96
-608
-432
-304
496
-128
144
176
-320
-448
400
256
-256
-64
-112
-48
-208
-176
-16
-112
-192
128
-48
208
272
32
-336
-448
-96
-144
96
-160
80
-16
-144
-192
-480
-464
-320
80
64
112
176
368
-352
-352
-320
16
320
96
-16
16
0
-64
-320
-192
128
48
240
-16
48
-96
224
0
80
-176
-112
352
-320
64
64
-320
-80
-48
64
-192
464
672
-16
80
-80
256
-128
0
-16
128
160
192
304
240
176
192
48
16
480
144
-128
352
272
-176
-96
-128
-288
-96
-352
-240
160
464
576
-480
192
-192
-192
-304
352
304
288
480
80
-400
-512
-464
-176
-224
-112
-160
-288
-320
-368
-208
0
-304
-528
-832
-592
-48
-32
192
-48
-320
-176
480
240
-544
-272
-400
0
-80
-160
-112
-96
112
-336
-576
-128
-128
-288
-208
-304
-48
480
160
64
160
400
176
192
352
416
-320
-80
-64
320
320
464
224
-176
-416
-304
-96
-16
-336
192
272
16
256
304
624
160
64
48
96
48
48
160
432
-112
-592
64
-112
144
336
-64
128
-352
-464
-368
112
112
160
-208
624
320
384
96
624
720
400
-208
128
-96
576
336
-112
-64
-320
-176
-336
-384
-384
-288
-304
0
-80
-160
-288
-416
128
-48
-416
160
448
368
-96
32
272
-176
320
128
-192
-272
-64
80
0
-288
-16
256
-144
288
112
48
32
-112
-48
32
256
-544
-448
-256
-32
-64
-256
-160
-448
-96
48
416
208
-224
-272
-608
-848
-96
400
64
192
64
-384
32
224
256
48
64
-16
-432
-272
-384
-240
-80
304
-480
-480
-608
-496
-256
-368
-96
128
16
352
160
-352
-272
112
-576
-112
432
-48
288
320
208
-128
96
-336
-192
-32
-304
128
32
-240
272
-128
-688
256
-48
0
-352
-928
-352
-80
-96
224
-112
288
160
-160
-112
-32
400
704
400
560
384
-464
-48
96
-16
-288
480
528
304
160
224
480
160
0
-48
464
-80
-368
0
80
-256
-176
48
-176
-288
336
32
-320
-224
-16
288
176
-240
-416
176
-224
-208
128
112
-288
240
-320
-432
-528
-192
128
-64
512
-80
-96
-16
-368
0
-432
-336
-256
-304
-576
-224
304
512
256
528
240
-16
-160
112
-48
16
336
304
-96
-240
144
-96
-304
-192
272
224
-480
-240
-32
672
16
-512
176
-16
-112
-272
-96
-208
0
96
304
-112
176
-416
16
400
-48
-48
80
256
-160
48
-32
400
208
-144
16
-64
-48
-448
-480
0
656
80
-176
-272
-112
-176
80
-80
-272
592
224
-256
-448
48
-48
-752
-544
-176
-288
-352
-672
128
368
-64
528
384
-160
-288
304
816
176
-256
-256
-96
-272
-112
-368
0
-400
-400
-320
80
208
400
-112
-560
208
144
-144
80
-48
576
304
-224
-64
320
-336
16
48
112
256
144
240
-128
304
-96
192
224
-160
320
-144
-560
-64
-368
-464
80
48
-336
224
256
112
112
-16
-352
-352
-96
-112
64
0
48
-16
-448
-304
-432
160
272
-336
192
16
112
288
-416
-880
-480
-16
-288
-432
-480
16
848
144
96
256
-288
-176
432
304
-96
-480
-304
-288
-160
-48
272
-224
64
80
176
224
-80
-16
-320
-160
-640
-432
112
-48
160
160
-256
-336
224
208
-448
-608
-176
512
368
96
-48
-16
-208
192
128
48
-96
-448
384
256
-176
-144
-128
80
176
624
560
320
256
160
240
496
48
-240
-304
16
192
-400
-448
-224
-208
416
560
-272
-224
-448
-288
-144
320
192
-224
336
496
80
448
336
-480
-512
-720
-256
272
128
-352
192
688
560
-16
-304
-160
448
448
-208
32
128
-48
-128
-144
-80
-48
176
128
224
544
224
256
448
-16
-64
-320
192
272
240
480
272
-272
-432
-320
-128
-368
-224
224
-64
-496
-224
384
256
-64
-192
336
320
-16
-128
-320
-256
240
-64
240
448
208
320
-608
192
-48
0
80
-208
-64
0
112
-80
96
48
-192
-128
-480
-432
-16
160
288
-336
-464
-384
-304
-848
-288
-240
16
128
-32
16
304
576
-16
-496
144
224
32
-80
-64
-560
-304
-176
-64
-112
-192
-144
208
48
-112
-224
-160
-96
-576
-48
-320
-112
48
208
32
128
672
400
128
-48
-144
16
-336
-352
272
128
48
-368
-496
-496
-80
-192
-272
-16
512
96
-320
-288
496
336
-320
-96
112
64
0
80
-368
-416
-192
160
320
-192
-112
-320
-352
224
256
256
-48
208
144
416
384
112
-64
-96
-208
0
384
352
32
160
176
336
-112
-96
-32
-80
32
-192
240
-80
-96
-192
-80
-144
-336
-208
-336
-96
32
-352
-320
-144
800
-64
48
144
48
256
160
-400
416
240
-208
-512
-224
-128
-304
48
-288
-464
-160
528
368
-32
320
128
80
-256
448
320
80
208
-32
272
288
48
-64
-544
-96
272
-192
256
48
-512
-624
-352
-384
-368
-320
-224
80
-112
-240
0
464
304
-160
64
-176
-64
-208
-336
-112
-32
-160
0
-240
16
80
-32
-64
128
16
-208
-432
-352
-336
16
32
-112
208
192
112
-80
96
400
176
32
-192
-48
176
144
96
0
-320
-48
352
0
208
80
256
-192
416
480
496
400
16
-48
-176
224
112
-64
448
224
368
320
-256
-320
80
96
144
-16
-80
400
240
528
208
-16
80
16
16
0
208
272
-352
-80
80
176
336
224
224
224
448
-224
-384
-608
-288
656
640
48
-464
-256
-240
-384
-208
208
400
48
-16
-208
-192
-176
-176
32
224
272
32
80
-144
144
-48
144
432
304
-32
-32
144
-16
-432
-224
16
-384
-144
48
-112
400
656
288
32
-112
-224
80
-336
432
128
80
272
48
752
32
-144
288
-288
-16
144
400
288
448
288
-64
32
-208
-224
-400
-64
256
80
192
80
32
-96
144
-112
128
304
16
-416
448
288
-320
64
320
-96
-816
-272
512
-16
-48
0
480
-80
16
-112
-160
256
272
-224
80
-352
-112
16
608
752
80
32
-464
-48
32
352
176
-144
224
208
-272
-608
-672
96
416
208
-96
-336
-208
32
848
320
-112
240
-400
-256
304
128
16
-240
0
160
224
-256
-688
-400
-64
368
704
64
-112
240
-288
64
0
112
112
192
-96
240
272
224
-176
176
32
-304
-128
112
400
-224
-464
-144
144
544
64
304
192
208
48
-256
0
80
-128
-144
-336
16
480
-352
-640
-448
-192
16
-64
-112
0
-64
416
-112
-400
-384
-320
-192
-96
208
80
32
-176
-64
32
-96
-112
96
-48
112
-256
48
0
-176
208
272
80
-128
-320
-176
112
-48
112
-304
-48
224
336
-208
-128
-160
272
-752
-336
-80
-336
-128
240
-336
96
144
32
16
0
-64
0
80
0
112
16
192
112
224
224
-32
16
-272
-144
-352
-592
-96
-256
48
-208
592
-192
-16
-48
112
-192
-672
-784
-240
272
-80
-64
160
80
256
400
400
432
144
368
-176
-432
80
352
-144
-704
-128
416
-48
64
96
176
48
-64
-192
-96
-80
-80
-64
64
-272
-240
-352
80
256
400
-256
224
528
-368
-368
-160
-112
-128
208
432
-112
-256
224
-128
-352
-304
192
16
-80
144
160
80
-96
80
-128
-256
96
-272
-48
-208
64
-512
-256
272
144
-208
-128
-256
-512
-624
128
-288
-640
-384
256
96
-400
-320
-208
-272
-112
-352
-160
-368
-224
16
-16
-256
496
576
48
-80
-352
-288
240
128
-736
144
-336
-480
-496
-464
-336
-112
-192
-176
48
-208
-96
-320
0
-816
-144
32
-112
-128
208
672
368
-160
-560
-144
-192
-304
-128
176
0
176
-384
16
-32
48
176
-48
192
-128
-240
-32
-80
160
176
224
0
48
-144
-208
-16
-176
80
-176
-16
336
576
288
48
-192
-192
-64
-480
-192
96
64
240
336
-128
-576
-96
400
128
640
624
464
16
96
-368
16
-80
-368
-400
-48
304
-240
-384
32
160
272
32
336
192
640
16
-464
-288
-176
-112
80
-256
-416
-528
176
-320
-48
-96
208
240
336
256
-64
-288
-224
-384
96
336
432
160
224
48
160
128
96
160
-96
-144
48
-48
32
144
240
-128
-240
96
48
496
512
256
-16
-224
272
480
208
96
288
64
-272
64
48
32
256
112
112
-128
-320
448
224
16
288
384
48
304
464
304
-32
-112
208
-112
160
128
-96
-208
80
-304
-96
240
112
112
-96
240
112
-400
-304
256
0
32
176
64
-80
-368
-464
-96
-256
32
96
-224
144
176
-32
-64
352
192
-368
-336
64
480
-112
64
-400
-96
352
848
368
192
-128
-240
288
64
64
-608
-144
-32
-752
-256
192
-96
16
96
304
-176
-16
-144
240
64
352
-384
-576
-176
416
336
64
768
416
176
32
-384
-16
64
48
-208
-160
0
64
-544
48
336
720
368
-80
-144
32
-624
32
544
544
-80
192
288
336
112
-256
-112
368
480
512
0
-576
-608
-64
-304
-160
-224
-432
208
-224
128
128
16
-64
240
208
336
176
400
160
224
368
400
448
224
80
256
544
528
-336
-608
-64
80
-144
-384
448
560
-336
-320
-16
992
240
288
-256
96
160
48
-368
-256
400
176
-96
-80
0
-416
-272
-64
128
528
32
-304
-32
-80
-608
-560
32
-160
-144
32
-352
288
-240
-176
-128
-176
560
-144
-304
112
48
-624
-480
0
-416
16
352
176
192
-144
352
512
240
-64
176
-64
160
448
288
96
144
192
640
432
480
400
144
512
16
-464
-576
-384
-64
48
-128
-224
-224
-256
-128
176
-192
-224
-272
-416
-416
-192
-208
48
16
96
48
-352
-176
-480
64
384
-272
-400
-336
-496
-368
-224
-368
-160
160
272
-256
-288
-272
-112
-48
-336
-192
144
-112
-32
160
128
-272
-48
368
-16
-272
0
-16
-304
-144
112
-32
16
-368
-32
-96
128
144
336
-48
80
128
-48
-448
-80
-64
48
304
192
256
48
0
272
-160
448
448
160
-16
32
-48
-352
-64
-288
-192
256
-48
288
624
304
240
-80
-240
-512
64
-160
320
272
0
80
-512
-160
256
208
112
-448
-320
-192
-624
-224
-192
-256
288
176
208
128
-144
288
176
-304
-32
-16
-80
-112
192
-16
80
-384
-208
96
-144
-112
96
224
224
-336
-448
-448
-192
-272
-192
48
-16
-64
-16
0
-128
-496
112
64
320
176
272
-192
160
352
224
400
704
32
-224
-208
-240
-240
96
272
-48
112
96
224
-176
-272
-16
-576
-480
160
704
48
-96
96
-144
-336
-480
160
288
80
64
352
416
224
288
-192
-528
192
-16
-64
-144
-672
-336
160
-160
-448
224
240
48
-64
-96
160
240
224
96
48
560
-160
16
-320
-320
-192
80
352
64
-64
-32
208
-32
-288
96
176
96
608
64
96
160
-48
-288
272
128
336
-48
32
208
-176
-432
144
112
-64
-16
704
-272
-32
-128
-160
96
144
32
464
0
-48
-112
-96
-416
-192
48
528
800
160
288
224
-64
-496
48
176
-400
-192
-112
-336
-64
304
384
192
224
592
208
-384
-208
0
64
-32
80
32
0
-416
-304
192
128
32
64
80
-272
48
416
128
-48
-64
16
-48
-272
32
48
-256
-176
-96
-192
-272
-352
-48
16
-560
-64
-448
-96
128
16
-448
64
-96
256
-128
16
208
-144
-112
-80
-384
-320
-144
-272
-112
224
240
592
48
208
432
288
48
-144
-32
-80
144
208
-432
-160
256
112
-320
-112
-48
-144
192
112
-32
-320
-336
-304
-272
544
560
368
-48
176
-160
-544
-272
-240
16
-288
-368
0
144
-288
-368
-320
512
400
176
48
224
-80
-336
-512
-320
0
-80
224
336
176
48
368
-112
-496
-288
128
-240
64
624
-288
-448
176
128
48
288
-576
-624
-320
-304
-128
-304
-464
-160
64
-224
176
-272
-544
-176
-64
-176
-208
16
-208
304
544
-80
208
112
-384
224
272
112
528
-48
352
416
256
-48
-160
-128
576
256
160
-112
80
112
-352
-544
-480
-592
-288
80
320
128
192
384
544
112
-256
-416
-384
-96
-176
48
-96
-400
-752
-640
-144
-112
-32
80
-160
-352
-288
-96
-224
80
128
304
80
272
-96
-112
16
-32
-16
32
-160
640
432
192
528
240
-256
-384
-784
-784
-592
-432
-416
-368
208
352
336
320
384
640
240
-288
-512
-16
480
-656
-720
-384
-384
-512
144
-160
-96
-240
-112
272
64
432
640
688
336
304
336
-176
-688
-80
-272
-352
96
-144
-768
-96
144
-32
-464
-144
96
64
128
176
-64
-240
-32
496
336
64
304
0
-128
240
-64
-128
96
304
112
-160
-48
48
288
-48
-32
32
336
16
-240
128
272
-144
384
272
336
-144
-176
240
384
416
416
-224
-704
-464
160
-208
-528
-16
176
-64
-64
176
16
-32
-224
-128
32
112
-528
-528
-224
-256
384
208
-384
32
0
-384
-336
16
-112
80
64
288
-224
-160
-496
-768
-112
176
0
192
464
80
-144
-384
576
848
224
-16
-48
176
128
-96
-256
-192
-320
-384
-32
688
0
32
0
144
240
144
-512
-48
-288
-48
-80
416
48
272
-208
-320
32
-112
-224
144
240
288
288
-96
-112
-32
-288
-400
-32
-128
256
368
144
256
304
208
-80
592
496
80
192
320
-16
-48
16
64
416
64
-96
48
304
288
304
0
320
416
-160
-96
-144
192
80
80
144
352
432
512
480
368
256
496
112
-336
-80
-288
304
240
-48
-16
320
32
-336
80
-64
304
496
352
-208
-432
-48
-176
368
336
320
-352
-400
-208
96
-160
-160
144
384
-64
64
-304
-720
-144
-224
-288
-208
-48
-624
-752
-384
0
-112
0
432
288
-160
-208
-176
224
-96
288
656
160
-224
-256
-96
80
32
112
-64
64
384
240
112
-432
-688
-688
-288
-240
48
96
64
-240
-352
-48
-176
128
-48
32
160
464
-352
-448
-336
432
416
352
512
-384
-544
-128
-96
16
64
240
240
272
-16
384
224
-32
-144
-720
-464
-224
-128
-96
-288
256
496
208
-32
-48
352
256
80
576
-208
-368
-96
-320
-16
288
-304
-144
272
240
-16
-208
-128
64
-224
-416
-416
-288
96
208
240
16
-288
-16
-480
-672
160
-80
-80
-320
-128
-192
336
96
128
512
144
-64
-416
-368
160
112
-576
-384
-208
-336
-16
-48
304
-224
0
128
-64
-608
-336
-160
-16
-192
368
192
-176
80
144
96
352
176
-96
192
496
1008
448
304
208
384
-16
128
-192
-448
-176
0
432
912
-96
-640
-176
0
-176
-96
48
192
640
384
96
368
64
-368
-256
64
-416
-64
-224
-288
-128
64
256
16
-352
112
416
-48
-192
320
16
64
368
192
32
496
16
112
-240
-128
-304
272
336
-416
384
400
-208
-304
-32
-112
-208
208
-32
-432
-112
-400
272
64
-80
-496
-80
224
-48
0
176
320
-176
192
-240
144
-160
-64
-48
-176
-144
576
176
160
64
-16
368
96
-64
224
48
-288
64
16
-288
-144
-160
-432
48
-112
-480
-192
16
-64
176
-176
-448
16
96
-176
96
608
-368
272
368
-192
-272
-224
48
528
1264
16
-320
-80
160
-464
-256
-192
208
-32
-48
-320
-320
-304
208
0
-80
0
-112
-224
-176
16
-16
96
-112
32
-320
-192
-336
-112
-208
-272
224
-384
-32
528
-176
-128
32
-144
-496
-368
-176
576
608
368
-32
-128
304
32
96
64
-16
-144
512
-64
-336
-160
-192
-496
112
64
128
0
-240
-336
-752
-512
-32
64
80
16
-768
-544
-688
-368
144
48
-112
16
80
464
144
128
-368
-336
-128
144
-208
-64
352
-16
-64
-672
-368
128
48
368
48
48
64
192
80
48
-80
-608
80
-272
48
-48
-176
-112
80
-192
672
-128
-144
96
112
-32
-304
-144
176
192
48
-304
-288
48
192
-96
48
576
704
512
176
176
-272
-176
-144
-368
16
-64
-400
-32
-80
32
224
-48
-96
256
560
32
-400
-608
-432
-176
160
240
224
336
288
-240
-480
-80
-112
-32
224
-288
-176
16
-256
-48
-160
112
-144
-368
-240
-400
-224
-128
-304
192
-240
-400
-48
192
304
96
48
-96
144
256
-80
-64
544
384
-288
-304
-96
160
160
-480
-48
112
-176
-336
32
-80
-48
432
400
48
-160
-320
336
176
400
208
-224
-528
-320
-16
208
-64
-416
-576
-432
-608
-416
-16
-224
272
336
256
-288
64
-80
-128
176
48
32
96
32
48
-160
0
-48
272
272
-208
-272
-352
112
-48
144
-96
400
160
-256
160
176
448
240
80
0
-304
64
320
-256
224
-256
-192
64
256
-288
144
-320
-144
240
176
464
96
512
480
448
640
-176
-64
352
160
304
-64
-240
368
336
-16
-16
-224
-96
-160
-176
224
336
464
128
-448
-80
96
144
336
624
96
-256
-608
-64
-240
416
0
-416
0
224
-608
-80
96
432
448
-64
-752
-304
-288
-480
96
192
-224
-448
-48
16
-80
-320
-256
-176
-384
-160
-208
336
-80
-336
16
-448
400
-208
-432
-480
-176
256
-240
-192
-144
112
592
160
-528
-864
-288
32
-160
64
288
-176
-48
-240
-448
-160
96
-272
16
96
112
-592
-272
64
48
-256
-336
-544
-208
-288
64
368
320
336
448
208
208
144
-208
-224
-160
16
-128
-224
-272
-400
-496
-240
240
912
48
-432
-240
-144
-240
80
-128
-384
-192
208
448
464
288
480
800
384
-96
288
368
400
304
-224
-112
-256
-160
64
-64
176
800
288
240
192
32
48
288
112
-64
-480
-464
-304
0
-48
176
720
112
-224
-224
-384
-48
0
-80
416
544
160
-96
400
256
240
112
-272
-112
0
48
16
64
160
160
32
-192
-224
32
-256
-272
-272
304
144
608
0
144
224
208
64
80
-416
448
768
192
-336
-240
112
256
-176
-64
-32
16
144
-16
-112
-128
-176
-368
-608
-320
192
368
-48
96
-448
-480
-320
-16
688
912
208
-96
48
-160
80
400
0
160
240
64
560
192
-592
-400
-48
256
144
528
672
320
-128
192
-176
-416
-272
-128
192
-64
336
208
-128
-64
16
96
-192
80
32
-64
160
32
-400
-112
144
352
336
-128
288
208
16
-320
-352
-144
-256
-160
-224
160
480
192
496
528
288
-32
48
-208
80
224
-32
608
432
176
112
464
64
-48
288
512
368
448
-288
-368
-240
-128
-240
-192
-320
64
-48
128
-16
-96
32
-32
-80
256
560
-144
16
-288
-192
400
0
-464
-432
-256
208
-16
336
-64
-288
48
-112
-400
64
464
368
352
464
48
-272
-528
-336
-320
-208
-400
-256
-256
432
-64
-496
-480
-448
-32
192
192
96
144
0
288
64
-592
-592
-64
-128
-192
-176
-128
-176
-288
-16
-768
-816
-416
-464
-400
64
80
16
-208
-544
-320
-624
112
368
-160
-240
-320
-368
-448
-688
208
224
-592
-464
-160
-688
-368
-304
-96
-336
48
64
-64
-464
-256
-208
-16
-112
-176
0
256
144
-64
176
160
-320
-224
-352
-16
-16
-48
80
48
192
304
-112
-160
464
32
-528
-704
-240
-128
-192
-304
32
-336
-512
16
656
160
96
48
16
-304
-480
160
-80
-80
224
160
-160
-176
16
464
-64
-192
-496
48
288
-160
-368
-160
-320
-192
16
-240
-336
128
288
-304
112
752
416
-112
288
272
256
224
-48
384
32
-192
32
192
-32
-32
-512
112
-144
-368
-320
-304
-368
-304
96
-112
-96
-400
-640
352
368
192
400
-208
16
448
672
256
304
32
192
32
-368
-160
48
-208
128
128
272
160
32
-208
-400
-416
-112
48
-16
-16
-16
-128
-624
-304
-320
-16
352
240
112
-160
352
336
192
432
672
816
-176
192
-64
-176
-160
-240
144
-64
-128
96
-432
-288
64
352
176
-336
-48
-128
-512
-624
-96
592
16
-464
160
496
-160
-64
384
352
288
208
-144
-784
-240
80
112
-160
256
208
272
0
-208
-80
-336
-240
128
160
192
304
-80
-560
-320
-288
-208
-480
224
272
192
208
-336
-496
-80
-144
16
688
-240
176
-336
-16
704
240
-352
-32
-128
-384
-160
-160
-176
-32
-16
-80
624
80
-176
-368
144
-80
-16
-144
496
560
512
560
16
96
128
144
-288
-208
-48
-64
560
400
-112
-96
336
528
256
-288
-16
-256
-320
-256
-192
-176
-240
-208
32
-384
-144
16
-16
-576
-160
16
144
128
368
704
144
-320
-448
-240
320
0
480
656
48
-304
-176
128
-96
96
496
208
-144
-336
-256
-320
-400
-192
176
0
-32
-48
16
48
-160
176
48
-176
48
160
256
400
-16
-128
-208
-176
144
-240
-480
176
-192
-96
-240
-320
-336
-240
-288
-416
80
208
784
-32
-352
176
-32
144
656
-80
-96
-704
-128
0
-112
-176
-496
-320
-80
96
-64
-16
256
-352
-320
64
400
-144
-560
-128
592
672
48
32
-256
448
112
-48
304
96
-256
-32
-48
48
80
320
-400
48
-288
80
176
96
720
64
-448
-80
-96
-224
48
-192
-160
-288
432
128
304
208
624
-224
-80
400
144
544
208
288
416
-208
-272
384
96
384
176
-128
-96
-128
-288
-336
-384
-112
-80
416
704
416
384
240
-144
-64
48
272
464
112
-416
64
-64
304
176
448
736
-112
-80
80
496
-112
-112
192
496
448
368
368
48
-768
-912
-320
-208
-32
144
192
288
-432
-512
-32
-128
48
96
144
-128
192
-16
-80
144
528
528
160
304
64
-224
-592
-160
112
-32
64
208
-160
240
32
-224
-272
240
16
80
528
32
-432
-112
-32
16
32
-112
32
208
224
128
-96
-32
160
704
432
240
112
192
336
448
-320
-288
192
-384
368
528
-80
-384
-368
-288
-256
208
-48
240
144
96
160
272
-128
-128
416
368
80
-288
-240
-320
-64
-48
256
112
-16
-416
-208
-16
-224
384
1328
400
272
368
432
208
512
448
432
400
176
512
-176
-256
224
240
-32
112
320
-16
64
16
-144
-96
192
-80
32
-304
-496
-368
-272
-672
-336
-64
-432
-288
80
-288
-256
-32
16
-592
-496
-448
-560
-368
-256
-288
-240
-208
-96
-336
-48
-176
112
-112
400
368
144
336
384
80
48
-144
176
448
336
144
192
-224
272
320
-64
80
368
528
-32
-16
400
-48
16
624
880
560
512
352
-96
512
144
400
288
432
16
-336
-288
32
-160
-544
-848
-400
-96
-32
128
0
32
-448
-528
-432
-608
-160
-208
-128
-160
-48
640
208
-144
-352
-512
-336
-144
-432
-128
192
-16
-320
-32
112
-416
-224
112
-368
-464
-16
-272
368
240
-336
464
192
0
336
16
-256
-160
-96
176
-144
-528
48
528
80
-96
-160
-544
-400
-240
-224
-272
144
288
-144
48
144
128
448
528
-96
-304
384
448
-112
-64
16
80
48
368
64
176
144
-288
48
-96
-304
-544
-160
80
96
-272
160
-384
-208
-288
-496
-96
-512
-432
144
-160
-400
-784
32
-256
-272
-144
-48
-176
-64
-288
-512
-304
-144
336
160
-288
-368
112
16
-160
-304
0
288
-240
-496
64
0
-160
240
48
128
224
128
272
-288
-272
-144
-176
-144
208
256
96
-160
240
704
544
272
-128
96
96
-352
-160
48
160
-160
432
0
-16
448
384
160
400
464
224
-192
-192
272
96
-144
-64
96
432
144
304
-160
-384
-224
-112
-80
0
0
208
-144
-512
-144
-16
-144
16
288
16
128
-32
-384
-112
-320
-320
48
-176
-32
304
112
-416
-416
160
144
-144
-32
-112
128
-192
-416
-64
0
-144
-128
-320
-224
288
32
144
160
512
176
80
-112
-192
-112
-32
64
128
736
160
-256
464
496
-208
-176
-288
0
32
128
-240
-64
192
240
-288
-480
16
80
160
-448
-208
-272
-368
80
208
144
288
48
16
-144
32
304
-400
-288
176
-240
-368
-112
352
160
208
864
464
272
-48
-240
-352
80
512
48
-224
416
592
288
-144
128
368
496
-96
-16
64
-160
-80
96
208
-96
-128
-64
-80
-144
-256
-96
-304
-672
336
-288
-432
-208
-208
272
192
-384
-192
-32
-640
-256
160
-256
512
224
-128
-144
192
192
-32
112
-368
-160
-160
192
800
112
144
-32
-128
0
160
-208
-416
64
448
96
-560
-160
-368
-112
208
368
640
432
352
64
176
320
400
128
-16
0
-880
-832
-368
-384
160
80
-48
-128
112
-32
-16
48
80
64
-352
-336
256
752
480
-64
-240
-192
-608
-288
208
624
368
64
160
432
496
-160
-496
-240
-400
16
-352
-560
-640
-208
16
960
176
-208
-384
-320
512
272
0
-496
400
464
-368
-160
192
-48
-64
-144
288
-112
-336
128
112
416
304
384
288
32
-176
-16
144
224
64
-496
-272
-32
-368
-240
-368
-64
-96
64
96
-224
-304
-176
96
32
-16
-48
16
-416
48
64
-416
-496
80
-512
-528
-288
-448
-304
0
-144
-208
-416
-16
256
112
224
-624
-384
-432
80
-304
-352
176
-32
-32
-32
-80
176
64
-496
-192
160
-288
560
720
16
112
-96
-96
128
-432
-16
304
80
160
-64
-144
-80
-448
-112
-304
-208
224
624
192
64
112
-96
-224
-64
512
128
-176
160
0
-32
-192
0
-48
-208
-96
48
-112
-336
-432
-384
-688
240
336
400
-160
-48
496
272
176
-144
-192
48
-208
0
-48
400
384
208
16
144
176
64
-80
16
112
-192
704
384
144
592
-80
32
-240
-48
336
560
32
208
208
48
336
-208
-368
-368
-96
144
352
192
-80
464
384
-16
448
144
256
336
-48
96
16
272
160
416
240
400
-48
-368
-16
256
-288
-192
48
-256
-128
-320
-304
-208
-384
-336
-320
112
304
80
-224
-352
208
304
304
-32
-368
176
592
176
-64
-176
-16
-288
-176
224
656
256
-208
-176
0
-256
208
-240
-544
176
64
0
-320
384
496
208
224
-192
-192
-304
-128
-48
256
208
-160
-144
-208
432
368
192
416
240
448
336
80
176
0
32
416
-240
-416
128
128
144
192
80
464
528
-96
400
208
-80
32
496
480
-320
-560
64
-32
-32
-144
-336
48
96
-160
-368
-224
-32
-352
-208
208
48
240
160
-144
288
64
416
512
416
80
-80
-224
-384
64
336
96
192
-368
16
640
-208
-288
256
32
0
192
288
144
-400
320
-96
96
-464
-224
288
176
624
464
176
-304
-416
-432
-208
16
-176
272
880
304
208
336
144
256
96
-48
592
448
496
-128
-320
-416
368
0
-448
-112
-128
-176
80
-176
32
192
352
160
-48
-704
-96
0
-16
-112
-128
32
432
288
-48
-272
-400
-368
-32
272
-48
-64
-96
-208
-144
48
-544
-768
-432
368
48
48
-16
144
144
-80
128
368
848
112
48
80
-400
-560
-352
384
320
208
400
224
-560
-240
288
80
-416
416
640
-192
0
256
-32
-304
-368
-656
-464
-176
336
-432
-288
224
32
-480
-96
400
-112
-48
96
160
-656
-480
-32
48
64
448
-160
64
240
416
512
240
112
32
144
-16
80
32
80
-144
-176
-224
272
112
-112
0
144
560
176
368
336
-176
-352
224
288
80
-240
-112
224
-112
0
-96
-560
-528
-288
-256
144
64
640
432
176
-192
64
128
64
80
112
112
80
0
-192
240
-304
272
256
-400
-176
32
-16
-128
-368
-416
-272
480
96
-32
320
-144
-272
-208
16
-192
-304
16
-96
-272
112
-16
-208
-304
-528
-112
-16
320
704
432
0
0
-208
-112
176
176
224
448
208
416
384
528
96
-240
192
-32
352
-400
-592
-368
-384
-32
-64
-224
-416
-224
-448
-336
-80
224
-96
-64
400
96
32
0
288
704
64
144
272
128
-384
-160
240
-384
-272
-160
-240
256
320
176
-48
144
176
368
224
48
-64
-400
-288
-400
-320
208
368
592
448
48
144
256
464
368
-320
-448
-464
-832
-112
0
-48
32
128
-16
0
16
-192
416
624
-112
-224
304
-112
-336
128
128
-448
-224
224
-384
-512
-288
-272
-288
16
-32
-128
-288
-208
368
224
224
0
-160
192
48
208
448
480
176
-240
208
-352
-112
832
784
-480
-592
-912
-240
32
-48
-528
160
-192
16
208
480
48
256
-176
-192
80
-208
32
-112
-592
-480
-320
-240
400
304
176
480
-16
144
176
-160
96
-128
-80
-176
-208
-320
-112
-256
-656
-160
160
304
528
128
160
208
464
-224
-384
-176
-160
-144
48
160
272
224
256
112
576
64
-480
-64
-352
-176
-96
-96
336
144
-320
-416
-288
-160
-512
-272
-384
-240
-224
-784
-528
-48
-112
16
-240
-224
-304
16
-176
-592
-304
128
64
-16
0
-16
400
-96
-416
-96
-304
288
592
144
80
656
80
-784
-1168
-256
224
48
272
-32
0
-16
464
176
32
144
-144
96
-112
-304
-448
-208
192
-64
336
656
544
48
352
-656
-832
-320
-288
-432
-528
-256
-384
-176
-32
-176
-96
-224
-528
-720
-144
-96
256
208
-32
48
-32
-16
-576
-576
-128
16
-144
-176
-112
240
48
48
0
-128
-32
352
-96
-272
-368
-176
208
-80
96
288
-288
48
48
16
-256
-464
176
-160
32
128
-160
-80
160
-176
-832
-480
-128
240
-160
-672
-640
-64
64
-80
-80
0
-16
-528
-480
-80
144
-16
-400
-16
-272
-496
-240
-80
-208
-32
-176
-272
-208
112
160
-160
-384
-272
-208
-816
-112
576
352
96
-64
48
416
-272
304
576
-240
-32
-48
16
32
-160
-528
-336
-320
-496
-336
-336
-656
-144
-128
192
-96
32
160
352
-16
-304
-144
-320
192
176
-128
-48
-176
240
288
288
-48
16
400
256
16
16
128
256
528
80
-336
-144
-16
-64
-48
208
544
-48
-768
-320
64
-32
-128
272
512
0
48
208
144
-256
-208
112
96
-336
224
-400
64
80
112
-400
144
288
-368
192
-32
-816
-480
-256
-464
-432
-784
-208
16
-176
-176
-160
-368
160
-32
-448
-448
-96
32
32
32
-400
-512
-560
496
656
-128
-480
-288
-368
-16
-16
-256
-224
144
208
528
384
96
176
0
368
48
-32
-32
-304
48
-480
-240
320
-224
-176
-96
256
-112
32
-400
-224
-16
384
256
-208
-192
32
-320
144
464
208
128
112
-416
-176
-304
-272
-240
-80
-64
272
-192
-320
16
-176
112
752
208
-64
-160
-208
144
-16
-64
-272
-304
-176
-272
-96
64
-96
-432
-384
32
240
288
-208
80
448
304
-80
-304
192
-64
256
192
-144
48
240
-48
-64
-400
-112
368
-272
-464
-256
160
-480
-16
64
352
416
448
64
-80
-320
-208
96
-48
32
496
528
-64
-224
-112
-144
32
320
-144
96
144
224
816
112
336
512
160
544
240
-368
-208
240
48
-160
-192
128
-64
-208
304
-400
-432
-112
0
-288
-112
160
-64
-336
-176
256
592
16
-592
-544
-240
128
608
368
-32
-32
48
288
64
80
208
-80
-448
0
-16
16
-160
112
192
-80
-112
176
-176
32
-32
-96
-272
-112
32
-560
-112
240
192
-160
0
-224
304
336
-48
368
-16
80
64
112
-240
-160
304
208
48
352
-128
352
128
-352
-256
-608
32
0
-256
224
-128
-352
32
-240
-256
64
256
-48
-144
-256
48
256
-80
-208
-496
-208
16
128
-256
704
640
320
-96
-128
-512
-176
-144
-176
-192
224
720
416
176
0
576
-32
-448
-240
112
-224
64
-240
-112
368
128
-432
-208
-112
224
176
-64
-464
144
-80
-320
-256
112
-528
-336
-112
208
-112
-64
-560
-480
80
224
272
-272
48
-112
-240
176
352
272
64
-304
-64
144
672
256
336
96
288
480
-64
48
80
-144
-16
592
64
-544
-352
-64
304
256
192
352
32
-272
-224
176
192
-48
-96
-368
-240
-352
-240
-480
-352
-208
208
160
-192
-80
256
208
32
336
-320
352
-160
-80
64
528
176
592
768
576
-96
-448
-336
16
0
-48
272
208
16
48
-208
-224
-272
-32
-64
48
-48
-80
-96
-32
-368
-320
-96
-160
-16
-256
-256
64
80
96
-320
-256
720
704
448
240
96
128
288
304
304
-80
-576
-320
-112
-128
-368
-96
-176
-560
-304
432
-320
-240
-224
-176
-336
-96
112
-96
80
48
48
-288
608
48
32
512
640
240
48
192
48
0
-96
-176
-256
-32
-400
-96
352
48
688
16
64
-48
208
224
304
240
-64
160
96
-64
-352
-368
-16
64
-336
-240
544
464
-64
-96
224
80
-16
-256
32
496
384
-416
-608
-272
16
176
-16
-80
128
0
240
304
80
96
-48
-32
64
112
-432
-144
384
48
-128
432
464
384
16
32
80
-560
32
304
336
112
-320
-192
-288
16
16
-48
-432
-544
-128
0
-16
-32
224
368
-192
48
-64
-16
-80
192
304
192
-144
-224
-128
-352
-432
-448
496
576
352
-16
48
-400
-192
224
144
-288
-128
-144
-48
-528
-304
0
-128
-256
-32
240
320
640
368
-32
176
-48
-496
-320
-288
-96
-176
160
496
128
176
-176
-112
-240
-192
-336
288
384
-64
-368
-288
32
240
176
16
368
336
288
272
-256
-240
-160
16
592
304
288
-416
-432
128
480
320
-336
-688
16
80
256
-96
-48
-96
-160
80
16
480
128
96
144
208
192
144
176
432
16
112
16
-48
-208
-336
-224
0
-80
-240
-48
0
128
-144
-32
32
-320
192
224
-864
-624
-160
240
336
144
432
528
-208
-176
160
112
112
96
-208
-512
-400
240
32
-208
96
48
-48
16
-224
-32
-64
368
-16
208
-224
96
48
-544
-176
320
416
240
128
-64
-384
-32
224
48
-32
32
48
-272
80
224
128
112
-176
0
480
208
-608
-256
-208
-160
64
240
-128
-144
-400
64
128
128
-80
-320
160
560
-80
-224
944
432
272
352
-32
272
176
-192
-16
304
800
320
-96
-144
-16
-192
0
-288
112
-64
112
-48
480
192
176
-320
-224
16
-128
-112
-64
128
-48
112
-160
0
64
-112
320
304
176
352
176
-240
32
-64
48
368
304
-16
-240
-128
80
-192
-128
-288
-256
-32
128
432
528
256
192
224
160
-64
-128
-256
112
80
-48
16
336
432
-64
-160
-544
-400
-208
96
-272
16
-320
-176
400
560
-208
176
64
-144
208
128
64
-16
128
112
-400
272
-192
-416
-384
-48
624
208
48
-544
-432
160
0
320
-128
-208
112
-368
-384
-272
80
-48
128
-112
272
-64
96
-240
-192
224
32
-128
96
192
-80
-112
-112
-112
0
336
256
-208
-256
272
48
-80
-48
-64
64
-416
-352
16
208
-560
-64
384
-16
-608
-48
336
-288
-144
-256
-256
-384
-144
224
256
448
416
176
144
512
-96
-48
-32
-192
-640
96
-144
-144
-432
-240
-432
-368
48
-368
-64
-64
224
-32
144
32
48
512
336
288
320
-96
112
0
-112
-192
320
192
-224
-320
-224
0
-128
128
288
-448
-512
-304
64
-288
-128
256
-320
-512
-80
-384
-320
-352
-224
32
-160
-80
-288
-160
-432
-128
384
-64
-320
-288
176
-64
128
96
-144
-144
352
240
304
192
80
176
224
432
400
-48
-368
368
176
-416
-144
-272
64
368
208
-112
-128
-16
-112
16
-96
-96
-256
-64
-320
96
-128
-336
-64
-32
-400
-96
96
32
-336
-32
0
144
-352
-496
-272
96
-208
-128
-16
16
256
64
-624
-288
-400
-304
64
128
-192
-32
256
-496
-48
-224
-480
-416
-16
240
176
240
-80
-208
272
240
160
-96
-304
-496
-400
-272
16
-16
-240
-144
-32
-96
368
432
512
336
16
-256
32
-208
-80
-96
-496
-272
-336
128
304
96
336
240
-256
-128
320
240
-192
-544
-144
-368
-592
-192
-288
-80
-288
-128
384
432
80
-80
0
-240
-256
-144
-320
-448
-320
-128
80
-48
-128
368
512
-304
-256
336
-336
96
48
112
432
304
448
-368
-32
80
-384
-432
48
-368
-288
-544
-144
416
416
64
368
224
-96
-128
-224
96
320
416
224
32
-176
-128
-144
-432
32
-256
-272
-224
128
48
112
336
496
496
240
208
432
-352
16
336
16
480
496
192
384
112
656
-32
320
32
-288
-160
-176
-304
-176
-320
224
-32
-272
-160
304
-208
-16
96
-192
-416
-144
224
-192
-352
-96
-144
16
432
-48
-352
-160
128
48
384
160
416
64
32
144
416
-208
-320
-160
176
176
128
-144
368
240
272
-208
-288
-224
-48
-112
112
160
-48
-128
352
336
-64
-208
-400
-64
-64
-160
-128
-112
80
112
400
176
240
-144
-288
-240
-112
-176
208
-304
-176
176
176
368
-272
-272
176
528
224
0
-64
-576
192
688
672
384
176
-16
224
272
96
-96
160
352
80
336
-16
-16
-736
-608
-544
-64
272
32
32
-624
16
336
880
528
-32
-48
176
32
144
-304
320
32
-336
80
416
448
64
144
64
-464
160
176
-400
-64
192
96
784
208
-64
208
176
-96
128
-96
-16
144
32
176
224
384
-160
-544
-256
0
-48
256
432
-80
-336
-352
-128
-368
-512
-576
-224
-208
48
160
-144
352
112
144
320
-144
-192
496
240
288
512
-320
-576
96
112
64
720
208
-176
-144
96
96
-432
544
512
0
-144
-32
384
272
224
48
-320
-16
-384
-160
-80
-192
144
-512
64
192
96
192
-48
96
32
96
80
0
144
320
128
32
-112
-64
16
528
-96
-272
96
400
288
-160
-176
272
528
512
160
560
272
96
-144
-464
-80
-48
16
-64
208
160
-224
-160
-208
-16
96
-480
-128
-176
-144
48
480
304
224
64
256
288
-32
256
240
816
192
128
352
288
272
-128
-272
-144
-208
-384
-176
-96
256
432
-160
112
320
320
-208
-416
-144
96
448
-96
-480
-304
-224
-304
-64
-304
-720
-32
176
-320
240
448
16
160
-48
80
208
-304
-272
32
608
544
592
-112
16
-176
-320
-224
-400
-256
192
-96
-528
16
320
224
592
32
48
-592
-432
224
272
144
-304
-352
208
-48
-48
368
128
656
560
-208
-336
-272
-336
-208
-352
-32
-304
-192
208
-32
-16
176
96
-480
-544
-80
80
-224
-352
-304
128
-320
416
192
160
384
-128
96
480
48
64
16
-16
-304
592
448
144
-208
416
-224
-496
320
304
96
-32
-160
16
144
512
128
-80
-144
-128
192
352
-32
48
288
80
416
-320
-416
-624
-432
-224
160
80
-304
-16
32
-240
192
16
80
-80
384
400
-96
160
288
816
352
144
384
64
32
-48
-288
-128
128
-592
-624
224
224
304
304
128
-112
-112
-112
-880
-336
-80
-416
208
80
48
240
224
-144
624
192
160
-400
-272
-256
-336
-272
-240
64
384
128
144
160
176
208
672
448
-256
-64
240
608
48
-16
-32
128
-224
272
224
96
-208
-384
-272
368
368
-112
-320
64
-64
-192
-160
16
-272
-208
-176
-512
208
592
400
144
224
16
-224
-336
-144
-32
-32
240
32
-336
-336
-112
-16
16
32
48
-144
-272
-112
-80
-208
208
320
304
-128
-544
-96
0
-464
32
240
416
432
-272
-256
256
272
-32
-112
-336
112
480
112
192
160
-16
-240
-16
-160
16
80
416
448
-32
688
400
-128
-144
-384
48
160
-160
-320
112
336
576
192
-528
-128
-64
-240
-480
-32
288
384
80
400
352
-64
48
-176
-16
240
48
-240
0
0
192
-48
432
-32
-128
192
576
16
-160
-240
-256
320
-32
-240
-448
-400
-96
128
-80
240
48
-608
-192
-80
512
-176
-32
32
-176
-256
144
64
-224
-160
-784
-320
-48
-32
-96
144
208
96
560
80
-304
-416
-160
-416
-160
160
432
208
32
432
-416
-416
-80
-128
32
-80
-224
-192
-208
176
-224
240
512
32
-224
448
304
-64
-144
-128
64
-240
-560
112
-48
-208
320
96
-272
-48
192
304
96
-272
-144
208
128
272
272
368
496
112
80
-160
16
-160
-384
-112
224
304
512
16
-160
-432
-112
-192
-64
208
384
112
-240
-272
-736
-1152
160
624
752
320
384
272
-160
-272
-64
-288
-272
288
112
-240
256
160
240
416
272
-96
128
240
704
208
592
-176
-272
480
288
-400
48
192
192
-144
-320
-32
-80
80
-176
-464
-64
48
112
-48
16
720
-128
192
448
128
-288
-336
-64
-192
-256
-480
-224
112
96
400
-176
-48
-448
-272
16
0
96
-192
64
416
-288
-576
-224
208
336
304
-288
-64
256
496
384
288
80
624
256
416
192
-288
-464
384
128
0
-48
192
64
-320
-288
-208
48
336
-64
-288
-240
-80
-128
-640
-400
-192
64
-16
32
-80
160
-112
-256
-224
304
-48
-160
16
144
-32
448
112
0
384
400
-288
-240
-96
-96
0
32
-128
288
112
-32
-368
320
192
-320
-352
336
608
336
-240
16
416
224
-64
-464
-272
-160
-32
-16
-400
-96
400
-176
-464
-512
240
352
16
64
-432
80
0
128
240
16
-288
64
160
-288
-208
544
208
-288
-208
-48
-256
-592
-288
-96
-192
128
-32
-32
-16
64
128
400
-128
-96
-16
-352
-80
-224
96
-80
-352
-400
-400
-176
176
128
-160
-16
400
288
576
-64
-640
-144
-384
-208
192
256
352
208
128
-256
-112
112
352
416
368
-112
128
320
-256
-256
-192
-320
-96
112
-160
-160
-416
32
-144
256
448
96
-80
-128
416
992
784
384
336
96
176
368
144
80
336
-320
-112
224
272
-48
160
240
32
-48
-208
-480
80
-144
-128
-416
-64
0
-160
-160
-752
-288
224
592
16
144
64
-304
-192
-128
16
48
-48
224
128
160
-32
-192
80
224
128
-32
256
64
208
304
464
48
-384
-320
-352
-576
-80
-608
-368
-320
528
512
64
-112
-112
-32
32
-48
80
-384
-128
-256
-592
-160
-448
-208
-16
32
-256
-112
48
96
-128
48
96
176
608
192
576
656
-144
176
224
-80
192
16
32
352
320
496
688
704
432
368
-16
-192
64
128
-32
-144
-96
-176
640
496
-256
-96
-304
-304
-128
-416
-208
-320
-128
320
80
-16
-464
-16
-144
-352
128
64
64
-320
-336
-528
-224
-144
-128
464
32
-512
-512
-224
-592
-144
32
-272
-16
-32
128
-48
96
64
224
64
-64
0
-160
-592
-624
-16
272
-80
-128
224
80
64
64
64
256
-80
-640
-48
160
-368
-128
-16
-96
32
240
-336
-240
-704
-800
-368
-112
-400
-240
-784
-48
496
240
384
16
-224
-176
144
-16
-400
-512
-672
-384
16
-160
-32
-48
176
-544
-224
272
-32
-288
192
112
64
64
112
-336
-496
-512
-416
-32
288
-272
192
-112
-352
-288
32
-176
-512
48
-176
224
304
-48
464
240
-352
-704
-192
-80
-192
-272
-352
-272
-144
64
256
368
400
-384
-672
-224
-160
-80
0
160
352
-64
192
352
384
64
80
-16
336
-112
-448
-432
16
160
-224
0
384
96
0
-160
-224
-384
336
416
112
320
672
128
-320
-48
192
-208
-272
-96
-640
-576
-48
80
448
848
608
288
144
64
-192
-304
-288
-320
-400
-400
-608
-208
-32
32
48
512
448
256
288
464
-64
32
128
16
-96
80
-48
240
160
128
544
-32
-64
288
-192
-304
144
-128
-256
304
128
-256
128
368
320
256
544
16
400
272
384
64
560
816
192
-112
-336
-384
640
352
80
-64
16
144
144
400
-240
208
480
-128
-192
-80
384
48
-16
-288
112
64
240
176
-240
192
-160
-400
-64
-304
-16
-48
-464
-240
160
640
48
-32
-288
208
-336
-144
-224
208
112
176
16
-384
-704
-256
256
-144
-16
64
208
-480
-192
-160
0
192
-112
-80
0
-192
-528
80
432
384
176
160
320
144
-112
144
-64
-880
-864
16
432
-64
224
-96
-672
-224
-256
-144
-64
80
256
-112
288
96
336
32
-160
-192
-224
-160
-176
-528
-32
-192
-736
-576
-144
384
0
-448
-208
48
96
400
-256
-96
-16
128
-32
-32
-96
-224
144
144
-16
208
-256
-384
-560
-464
-400
-112
64
64
-448
-624
-48
-96
-144
-480
16
224
128
192
496
144
128
-112
-496
-512
-384
-80
-64
-384
-208
-144
48
192
32
800
768
160
-48
16
-560
-384
-112
176
-240
-496
-208
304
176
64
-320
-144
-144
32
80
-352
48
48
464
288
0
-192
608
432
-496
-48
160
96
-384
-608
-16
-64
-336
-144
-288
-128
176
400
384
16
-96
-240
-16
192
240
-48
-224
-16
-192
-144
-480
16
144
-144
-128
-304
-480
112
144
-464
-288
-144
0
-160
112
192
-432
-368
-384
-560
-496
-208
-304
-48
-96
144
400
112
16
-80
160
384
416
384
-48
256
96
400
-48
160
416
592
352
480
-96
-480
-528
-224
-256
64
-416
-288
-352
-336
-768
-336
160
32
-192
-128
176
192
-96
32
0
144
400
112
64
176
144
-96
496
304
80
64
224
256
-192
-416
-432
-96
-352
-224
224
-368
-208
80
112
528
160
320
224
48
-48
-96
-128
80
496
960
848
-32
-80
32
272
-112
-304
-16
-112
-544
-288
0
-64
-432
-544
560
144
-32
64
-80
-112
256
0
-96
16
-96
-128
16
192
144
-64
-352
-656
-288
400
-128
-736
-240
0
-144
-272
-400
-416
-624
144
640
-48
128
336
880
64
80
48
112
304
80
48
448
48
64
-160
-352
32
112
-144
-256
-416
-160
-464
-224
-224
-336
-304
-432
624
288
112
-224
-112
-16
240
160
-208
-96
-464
-160
-224
-448
-304
-336
-16
-208
-112
32
208
0
208
-256
16
-240
-16
160
-192
0
272
-32
192
16
-32
320
96
-64
192
-32
48
352
-48
176
192
-320
-560
-208
480
144
-288
-576
-192
-64
80
-416
0
112
-144
-352
-32
320
688
480
320
352
32
-112
-320
-704
-224
176
368
384
-160
-144
-160
-320
-112
-96
80
176
0
-48
-48
-32
-48
0
272
160
-48
128
160
-96
80
192
-272
16
0
-32
176
304
384
512
16
-384
-96
-240
-128
64
-240
-464
128
304
128
32
304
256
144
240
128
-96
48
288
160
-80
384
112
80
-160
16
272
128
416
-96
64
384
336
608
240
-96
-192
-128
-240
-240
-16
-128
144
-192
-112
192
-352
-160
-592
-64
-64
160
-16
144
160
144
-160
-112
-224
-400
-304
-368
-480
432
576
128
-160
-16
-176
-512
-416
16
-192
-416
-288
-96
-416
-176
-224
256
-176
96
96
-288
-592
112
256
-112
80
32
-208
-64
48
32
144
-32
-176
-16
384
368
256
240
-224
224
-176
16
592
96
-144
-544
-720
0
-240
-112
-288
-576
-272
48
352
224
16
-64
80
960
128
-96
-336
160
-368
0
-336
-80
-64
-240
-32
-48
-288
-816
-576
-432
592
352
192
128
-384
-560
-528
-64
224
-240
-224
-736
64
432
-320
-208
-48
224
224
432
96
-64
-176
-400
-96
-448
32
272
48
-544
-112
176
-16
288
-192
-192
464
144
144
64
-448
-240
-256
64
320
-432
-576
160
-96
-208
-240
-144
272
64
-320
-208
16
304
-192
-288
-240
-144
-256
96
-208
-32
112
32
-16
-80
-128
-736
-368
96
624
160
-448
-112
368
240
-96
-160
352
-272
-32
112
96
128
16
512
448
416
64
-640
-48
144
-80
-352
-240
32
144
-240
-160
-352
-288
-224
384
192
352
16
-224
112
128
-240
-16
-128
-64
-144
-368
-368
-416
-528
-224
48
-208
176
80
-448
-64
176
96
144
16
400
640
320
-128
-256
64
560
128
160
384
-192
80
-96
-128
-832
-608
128
240
-224
-96
-448
-96
240
-128
160
688
0
-112
-128
240
560
160
-208
-192
496
-64
-192
128
-144
-48
-208
-240
-80
208
736
112
-96
-176
-240
192
272
48
-320
96
192
336
-320
288
256
-48
48
128
-48
224
-16
32
-32
-640
-224
-448
-384
128
208
80
-208
-320
-304
-320
384
224
128
160
0
416
144
-288
16
320
448
-16
-384
16
448
-80
-224
-272
-208
-416
-336
-32
272
240
240
304
-160
-288
-48
128
-16
208
-128
-176
-160
32
-112
-384
0
384
32
400
-368
224
256
-160
-144
-480
176
160
320
224
192
368
160
32
128
32
128
32
-128
-224
-288
-48
128
-336
-256
256
16
576
176
-320
32
256
304
-352
32
368
304
512
768
240
384
144
-144
144
-352
-384
-32
96
-208
32
-128
-192
64
96
-256
-336
-288
256
352
112
224
-160
-624
-304
32
256
176
336
704
752
544
32
0
16
-112
-400
-560
-144
-144
-608
-320
-48
208
432
144
80
-80
-128
-48
80
-320
288
480
416
128
-176
208
144
-32
-144
-224
208
192
-224
-144
-144
-208
-512
48
-64
-128
96
-32
-96
-48
64
-160
112
96
416
176
-400
192
-208
-96
464
-96
-16
288
-112
-176
-336
-464
-336
368
240
-320
-192
-352
-16
192
-16
-224
-448
-16
-48
-336
96
-160
-448
-352
-64
-160
-336
-64
-48
-400
-432
-176
-496
-384
-384
-144
-144
-48
-224
128
272
-176
-432
-752
-160
320
-16
32
48
288
208
-64
-192
256
464
64
336
544
224
208
32
-16
0
-16
48
256
368
192
256
-64
-704
-272
336
-176
-64
80
-336
-672
-512
-160
416
224
-144
-160
0
592
528
208
608
720
-32
-320
-256
-176
-304
-336
80
160
16
-32
-432
-320
-160
-448
0
128
-16
224
240
32
-336
-272
-288
64
-80
-224
-48
320
-16
320
576
-288
272
400
-336
-416
-368
-224
128
-112
-256
176
-256
-64
-176
-128
32
-128
-112
-144
-64
336
-240
48
-48
-304
-432
-128
-208
-608
-48
-112
160
288
336
608
656
256
368
272
-304
-96
-176
640
208
128
-64
176
-80
272
288
160
496
176
880
928
400
368
320
-208
-608
-64
304
128
-64
-384
144
-16
-48
-224
-208
272
112
-272
48
112
256
-96
-400
-640
-192
176
384
-16
256
192
160
144
-128
-128
192
64
416
272
-48
-384
-256
80
304
-384
-368
0
272
384
240
48
176
160
32
144
368
304
208
144
-48
112
-64
-160
64
112
96
240
624
208
208
-16
272
-144
-144
192
-32
-256
-128
-224
-320
-128
32
-32
-208
-48
32
112
-336
-96
-160
368
-128
-96
-224
-320
112
288
528
-64
-240
128
384
96
32
-112
48
-64
-96
-368
-256
224
-96
-64
-48
80
-32
-208
-336
624
448
304
512
-192
-560
-208
32
112
480
224
-128
-448
-160
416
-256
-304
208
288
480
704
256
-224
-464
-32
-272
-320
-48
-64
0
-240
80
-208
-224
-64
-32
-176
-96
192
-32
-320
224
80
-16
672
256
-272
144
176
-480
-320
112
0
224
416
192
224
144
176
-288
-432
-368
-224
-192
-48
-96
-96
-272
-160
-160
-128
144
0
0
-240
-128
288
0
-80
-192
-192
-240
-192
-96
336
-64
-464
-368
-160
-64
64
-208
0
128
-176
-400
64
256
-64
-96
-400
-384
-352
-128
32
32
256
48
-608
-448
-352
-80
-96
64
-256
-464
16
-16
-112
-144
-176
-64
-144
-128
256
32
224
96
320
208
128
-64
-192
-304
-16
384
-48
-48
-160
-416
-352
-352
-176
272
400
256
224
416
320
240
368
-112
-48
-256
224
-32
304
-128
-160
-112
-592
-592
-336
352
32
-32
-176
144
-176
208
-160
-304
0
80
96
368
576
32
-64
320
80
-16
272
96
-32
192
192
480
-64
-160
720
416
64
-128
-320
-80
448
496
416
176
304
-128
96
464
336
-144
-32
32
-16
-384
-176
352
-288
-80
160
-192
-528
-48
-224
32
96
208
-288
-144
224
-352
-96
48
-144
-272
-144
-272
-144
0
-400
-576
-352
-304
-16
-560
128
224
176
-336
-496
-80
672
-208
-400
-464
-256
-80
688
528
592
720
208
176
-160
-128
-80
-64
-224
-352
-592
-528
-688
-416
112
448
-96
-368
-432
-352
-96
464
96
192
16
0
320
464
-464
-480
32
272
240
288
160
80
160
240
80
-128
-336
-208
112
560
256
368
432
432
352
-176
-272
-208
-304
-736
-592
176
288
288
144
16
-208
240
-16
112
-96
-48
-240
176
176
-32
32
-160
320
-96
-544
-336
128
16
-208
-96
-256
-336
-560
-144
96
-48
48
416
320
-128
-80
-272
-368
-528
-240
-368
-304
-176
-336
-192
-272
336
224
336
-384
0
-16
176
656
-16
-128
-80
-352
400
48
-432
-96
-288
-448
-624
80
128
0
-128
-32
128
-272
-176
128
48
-288
-112
-176
-112
-160
160
320
-256
224
464
-224
-416
-208
-272
-336
272
720
352
-288
64
-224
144
176
48
-368
-304
-64
432
400
-144
-192
272
432
-48
-256
-176
-208
-288
-288
-272
144
-176
176
480
976
880
80
48
528
288
-192
48
176
208
480
432
624
304
-512
-272
-144
128
16
176
304
16
96
352
32
-112
-160
-416
-384
-160
208
352
112
272
-160
-32
-16
48
32
480
416
-352
-96
-128
320
224
336
560
64
-208
64
-32
-256
-320
256
352
-288
112
624
240
448
704
416
288
576
272
112
96
96
288
544
144
352
-192
-496
-208
-16
-416
-544
-96
384
-256
144
-80
-128
96
96
-16
-48
-208
-176
-448
-656
-208
320
128
96
496
304
320
-240
-192
-288
-176
16
256
-128
-16
336
64
-128
-112
-208
48
416
-16
-288
-608
-176
432
176
-240
-16
-32
-336
-80
64
208
128
304
128
-16
-320
-496
-800
-528
-256
224
416
32
512
240
-272
-144
-176
-624
-48
704
144
208
-160
-320
336
704
352
368
432
368
-224
-64
608
560
64
-64
-272
224
-336
-128
-80
-112
-80
768
208
-48
80
-384
-640
-432
-224
-480
48
64
144
240
160
96
608
-480
64
400
512
-128
-336
144
320
-224
-176
32
224
368
544
0
304
272
240
352
368
-128
-400
-464
272
400
80
48
64
240
160
336
-192
32
-464
-352
288
256
80
352
64
-16
256
-160
-352
-384
-48
368
176
-224
-336
-16
400
-144
-608
-448
0
128
208
352
48
-48
576
128
-384
208
80
32
432
464
432
448
64
256
512
-144
-64
-272
144
144
-288
80
416
-96
368
80
-32
-256
-368
-640
48
144
112
-112
64
240
0
256
112
-400
-224
-512
-272
-80
336
768
224
-192
128
-192
-160
176
-112
-112
352
304
80
-496
-256
256
32
64
112
96
240
-448
48
176
528
368
-80
16
384
-272
-320
208
-224
-96
176
80
368
144
-336
-512
-896
-784
-304
-480
-432
-64
-176
-368
-608
-224
-144
-32
80
416
64
336
-16
-688
-128
-128
-144
224
96
-240
-96
288
-64
-384
-224
-144
-144
-256
-32
-320
-64
-256
-16
-240
-144
-112
-256
-592
-128
-304
48
384
448
-240
-432
-96
-144
-448
-224
320
-80
16
0
80
128
-48
144
-144
-96
-128
-112
368
400
-160
192
112
144
-208
-384
-64
304
512
80
64
16
-112
-128
-176
-144
80
-32
-464
-336
-96
240
224
160
48
-96
-496
64
-176
112
128
208
448
304
208
-16
224
32
128
-80
-224
16
-224
-112
