304
336
-1248
464
0
96
-736
640
80
1104
1024
1120
1184
240
256
560
848
-272
576
-272
-384
-944
-176
1056
1584
-1104
-480
816
432
-704
-832
-1328
432
528
1632
432
-48
1312
1920
16
160
-400
-256
-832
576
192
-1408
-528
-896
-480
-464
-1504
-1472
-288
-512
-1696
-2016
-1408
656
832
960
800
208
-1152
-640
848
1344
1968
544
-976
-1008
-992
-1280
-336
240
384
112
-640
1088
1952
208
848
160
192
1232
1600
1104
-464
-1984
-320
176
976
64
928
1200
-1216
-656
-224
496
-336
-912
352
336
192
1120
1296
-240
-352
-1376
1296
944
112
-928
-528
-32
112
192
608
-752
-672
-1696
-800
-416
-320
-1024
720
832
-1024
928
1440
-1168
-1808
-240
1088
-1376
-1248
512
-592
-528
592
1104
-752
-592
-576
-1088
-1280
-208
-464
-1648
640
144
352
1568
-1072
-816
-48
176
1216
-1024
80
608
272
-80
-976
-1136
-1216
-1888
512
800
48
-32
-848
48
-432
96
1264
1072
-208
-736
-1456
-432
1296
624
480
48
640
-80
-800
1040
1680
1072
736
496
-560
-64
80
896
432
-1472
-464
256
-528
240
-640
-912
224
1408
944
-992
-736
80
304
112
-16
208
-1680
-128
960
336
288
-912
-736
-480
-224
16
-1024
-832
432
272
-432
-1280
32
800
1200
80
32
-848
-960
-992
-144
1216
1728
736
1056
-608
1216
1584
416
192
800
400
-160
1504
240
-752
128
1856
672
16
704
-1680
-336
-1312
352
960
336
0
-384
-528
-640
-144
1504
-64
352
-224
256
-672
-784
1344
-1424
576
-1200
-1856
-608
-368
-960
-1952
816
896
480
1184
-1184
-1360
-1744
-976
384
128
288
1520
-96
-960
-1504
-1040
208
-208
64
-752
-1856
-1696
-800
224
48
512
1136
1712
-144
-864
448
480
320
688
-320
-704
-704
1120
-464
-656
1056
928
1856
-1936
-400
128
192
2016
944
-1776
-1488
-1280
528
-560
-1440
-1504
-288
1152
-16
-224
576
-864
-672
-512
1984
1328
-640
-1648
-992
-720
-1072
-1168
-896
-64
144
224
-80
896
864
304
-1600
-640
-128
416
-480
128
16
704
1648
400
1152
144
-1184
240
816
-448
-544
-496
1584
192
528
-1424
-896
192
672
-1072
-1184
-640
384
-432
128
-80
352
208
416
304
-240
-1344
880
528
-704
-1328
-1104
720
448
-32
848
0
464
496
704
160
224
528
1328
832
1168
1216
-720
368
1680
272
1024
944
-304
544
1408
-720
-2048
-80
1376
1408
-144
-928
-1376
-944
128
-176
-1200
-592
-848
-1088
-448
160
320
-480
-1008
-1168
-1008
-880
576
1248
-1216
-160
1216
1408
-352
-176
-1200
-624
240
-1456
-768
0
-896
880
1024
-1248
256
816
1296
-432
352
-256
-192
-208
-1104
464
1424
-592
560
512
-512
304
192
-240
-64
-640
-352
-1056
-208
16
-1728
-1552
384
816
-224
-1232
-384
576
-288
528
1584
-416
-704
400
1040
256
736
-448
-1088
-192
-784
-288
176
-128
224
-304
-608
1424
320
288
144
848
-416
-16
1216
-96
-688
-176
0
-656
816
1056
928
-704
-592
-64
352
608
592
816
-288
-16
-368
-1520
-384
528
-1568
-960
288
1792
784
320
896
1696
496
640
592
-1152
-672
-96
-1376
-1744
864
1376
64
-1088
256
320
-720
-320
1056
-32
-768
-752
560
272
-96
-336
-160
1440
1392
1552
1104
1632
1120
-576
-1024
192
-1712
-1552
-240
-336
-1040
848
816
352
-160
576
768
1024
-1408
-1168
-256
-1504
-80
-432
144
1312
192
528
1312
-16
-1712
-640
480
1504
1408
1840
-1104
400
992
-496
288
-880
-1360
464
192
1024
-656
256
800
416
-480
-336
1568
-208
-304
256
-432
-1152
-1648
-1504
0
-384
-64
480
-576
-608
912
-96
0
1072
320
736
-576
-1248
-896
560
-944
-1232
48
672
1552
0
1264
1104
16
144
-512
-896
-1600
-160
96
832
368
-1376
-112
352
1664
-112
512
-288
1648
576
-640
-256
224
464
-656
-128
-800
-176
736
1232
-304
816
576
1808
-1872
-496
-1920
-688
-368
-1152
-1088
1408
640
-1008
-1648
-80
80
880
1536
1504
1136
1120
-1344
-848
-336
-1312
-64
1152
-96
512
160
496
224
400
976
-400
-560
160
-144
976
832
-976
-144
-80
-1312
-368
128
-1088
-144
592
-1136
928
1840
384
-448
1008
912
-704
1568
1312
-1040
-304
-1056
-880
608
976
-736
-752
-976
512
432
-784
-288
1168
-112
-256
1472
1200
448
208
912
0
-848
-416
160
1008
-304
-544
-1024
720
1360
592
368
-320
0
144
-864
672
1600
-64
384
1344
1152
1072
1856
-160
-1184
160
1120
160
1648
1344
624
768
528
656
160
-624
-736
48
240
-560
448
400
-64
1152
96
-656
-1664
-720
-672
-368
-272
-1568
-544
-1312
-576
-720
-512
-64
176
400
816
-592
96
1456
1232
1408
528
704
768
1824
1232
336
640
-880
1648
1440
336
-592
-1360
528
768
-128
-800
-208
416
96
-208
464
928
-960
-688
96
-704
352
768
1200
32
-16
528
1328
224
-2000
160
368
368
-560
-608
-864
880
176
-1600
-928
-1152
-1552
-32
464
208
1632
272
-832
-704
1984
592
-896
-704
-704
-16
64
160
-576
-1648
544
1280
32
528
1360
-192
-1344
-1872
-1072
736
1488
1968
336
-752
16
704
-96
784
-1296
-1376
128
-176
1008
-48
-1248
-1632
-1072
-928
-144
80
-1488
-832
-752
0
608
-768
-64
-80
80
-464
-1088
-1264
256
432
736
592
320
-448
-992
-1120
-656
-272
112
1168
960
896
-576
-624
720
1328
-1632
-1088
48
176
-64
1072
128
1216
256
-656
1168
704
-720
-128
480
528
528
1184
-240
1216
1024
1200
-112
-1344
480
-784
1280
528
528
400
-144
-1248
-912
480
480
1408
1424
-528
-1632
416
-1232
-1312
-128
-1056
592
768
864
912
864
-1280
-1520
288
912
896
-1296
-1344
-1872
-464
-448
96
64
-112
-384
448
-304
560
-288
-832
-736
-480
-576
-1376
-288
1440
-384
224
-176
-16
160
-144
-448
-80
-560
-1552
-736
-512
-48
-672
-656
1232
-480
-1088
-640
-288
752
416
32
592
464
-224
960
944
912
80
-1104
-1280
-1232
-624
-1072
560
16
-512
784
240
-1248
-1040
-96
-400
832
560
560
-16
-944
-944
-832
1056
1456
2032
576
368
-320
912
128
176
-448
768
1088
1072
496
-496
-2032
-2032
-1344
240
64
-528
-832
-64
-304
48
-944
880
544
-640
2016
912
-192
-528
-1904
-1760
-1296
-64
-1280
864
768
-528
336
848
256
-1072
976
112
320
-848
-1424
-640
-1152
-1200
320
-464
-80
976
256
496
-240
384
-480
-1744
-1120
448
144
-1984
-464
560
64
96
416
752
80
-320
624
1376
352
1408
480
-736
1200
304
-704
1280
992
272
1488
224
304
128
496
1040
752
-704
-624
144
1456
1024
96
-768
976
1280
-192
560
640
-256
-32
416
-576
224
-1024
-1488
-736
560
304
-512
-1424
-1568
208
-288
-176
1536
1072
-1088
-736
-64
-256
-1936
-928
32
-1088
-1088
48
-656
-48
-208
1744
1568
-272
-1376
-32
-528
-320
-656
240
416
-688
-1600
-752
208
-400
-1616
336
944
-96
240
-64
-336
304
1072
-1632
-1824
-1392
1840
1840
1088
912
1072
-128
-1648
208
1216
112
1024
1216
1152
-128
-416
-208
400
-288
-1360
-608
176
1232
-560
976
1840
-896
-976
896
1600
-48
-1264
-1040
576
1120
-720
-704
-272
-96
1264
-448
-560
-1312
-880
-128
-1216
-1536
-1024
928
704
-832
-192
720
-928
-1408
-1008
-256
-224
1264
80
-1760
-640
16
-64
-1024
-464
-400
752
272
-160
-1120
256
-512
624
48
48
736
816
-416
48
-752
-1440
-192
-368
592
-272
-512
656
352
496
784
1072
256
-704
32
560
-800
-1504
-1248
-1536
-48
-1536
-1120
-896
-880
-512
-208
688
896
-288
-1120
-1168
-1232
176
-1424
-1152
-1152
128
1232
912
928
-688
-768
-16
608
400
1424
272
-1216
-1360
-528
160
1776
256
-816
-1040
-144
-656
-1952
-448
-240
-1120
160
-48
736
720
-960
-1008
-112
704
1904
1664
-112
-80
800
1216
-160
-448
144
1088
1360
-1072
-160
112
-992
1040
1776
1584
1376
752
1216
-64
-1056
-736
-80
144
1216
-1232
288
1360
208
-1056
-816
-240
896
768
1056
-1280
-1360
-656
-784
-176
640
1104
352
-1168
-736
960
1360
-1520
-16
176
-1136
-1040
-400
608
128
1120
192
-544
-368
-784
-1248
-992
432
1040
64
-272
1056
960
848
-752
-912
672
-1296
-848
272
-656
-608
-1264
-800
1072
720
-80
96
224
1456
1152
784
-464
1344
1600
64
0
880
592
-800
-2000
-1680
1984
576
-496
-320
-16
1536
880
176
-16
-896
-640
-864
-80
-32
32
592
464
-1232
-1664
496
-1184
-848
-1264
-784
-224
1008
-48
-224
240
-560
464
112
1248
1104
-192
-192
-1696
-272
240
-1072
-832
-736
384
1296
1376
848
576
1328
656
352
0
-16
-1536
-208
416
-432
1456
-1072
-1040
960
1712
-816
-352
1136
-272
-656
-624
1408
1264
-160
-1280
-1072
-528
528
-112
-1824
-1456
112
-960
368
496
-1104
-1712
-1104
-1328
-336
-224
-480
-1200
32
960
464
832
1472
832
-144
256
-112
-1008
-752
-1968
-208
896
800
-1152
-944
-304
-304
-2032
-592
224
944
-912
-576
-464
-1040
-544
-864
288
704
1392
1536
-688
-80
464
-160
720
-816
-176
-1488
-1536
-624
-544
-800
-1408
80
-96
-1296
-1072
288
-864
-176
-368
992
160
-528
-368
656
1888
96
-352
-640
96
-1984
-624
1488
704
-352
848
1008
144
-1824
592
1136
-368
-256
128
-240
-32
400
592
-592
-1088
384
-400
1520
256
656
560
-736
-1232
368
2000
1792
1504
784
-528
-880
-384
-1424
-352
64
864
-736
-896
-272
-192
-144
608
-112
-912
-96
192
-384
-112
672
1168
912
1696
32
-512
0
272
-32
-1152
-1152
208
384
-1888
-304
-32
208
576
192
-144
1488
576
-288
-896
-1168
320
736
384
1536
544
48
320
-400
-304
-80
160
-688
256
-1872
-688
96
240
144
-48
256
96
400
-128
-752
-320
-1824
2016
1728
-32
208
-528
-768
1088
992
832
32
-688
-1600
-1952
560
1360
-496
-432
768
480
-208
-400
48
1104
-96
112
-256
-1280
-1264
-1040
-464
-544
-2016
672
1712
-224
336
-304
-1648
-2016
-992
-272
-96
-336
-1248
-320
-976
-464
-1072
-288
544
160
-432
512
-1120
-64
-928
336
-384
-1360
1056
-496
1680
1088
272
1680
864
1648
-96
96
-1104
240
176
1168
-96
-624
-784
16
512
-624
-976
-1024
848
1408
608
240
1712
-1104
-1488
-144
448
-576
-160
-752
-688
-416
1552
640
1216
416
576
-272
224
-288
-240
416
-1504
-1600
-1696
640
1120
864
-304
224
-64
-96
-1168
-800
-1088
448
576
480
0
-1040
-912
320
560
288
-544
768
-608
-1552
-416
-1280
-832
-288
1056
1312
1392
-80
960
208
256
1328
176
944
-464
384
1392
-480
-1584
-1600
464
912
1904
512
-336
-304
-1184
-96
-1984
-976
-352
-736
-1648
-1200
-512
-1200
-1472
-656
-864
-288
384
496
-864
896
-640
-1520
1152
848
1920
-624
768
1920
-624
304
96
-1408
192
384
0
1136
832
1216
496
-608
512
1952
784
1760
-1264
-432
-1120
-144
-640
-480
1456
1088
448
-640
-368
-192
1248
1888
336
1776
768
32
0
-992
-1360
1120
1664
1008
-160
224
400
-704
-960
-976
-1584
-2016
416
32
-752
-528
16
-192
-592
-608
288
144
1488
1200
1872
1264
1504
1344
-752
-736
-448
304
-800
-896
-1408
-576
672
1296
48
960
1376
-640
528
640
-768
-2016
448
1808
1968
304
96
1152
896
-96
384
224
592
-752
-464
-640
848
-640
-784
480
672
-176
-672
-288
416
-1152
-1152
-704
816
-272
-960
320
-1344
112
0
800
-848
-512
848
464
-272
-96
-272
-688
192
448
-992
48
784
272
-432
-320
432
1248
240
-144
-256
560
-432
-1600
-384
-1696
-1584
-944
-704
320
752
176
-1760
-2032
560
64
-1936
-16
80
448
-400
64
1104
384
1360
288
-928
-1760
-224
1104
1168
-128
368
1600
832
1312
1056
880
656
1984
544
304
-368
-624
-864
-32
-800
864
112
400
-160
992
112
496
-64
160
-16
-1472
-256
-752
480
-640
-1040
-864
-384
-704
336
-256
-240
-112
720
336
1344
752
544
560
-304
528
352
304
-240
464
-128
-128
1072
656
-448
-448
720
128
-1280
-1008
-288
-816
1392
1472
-32
-800
976
448
1392
400
1280
608
1616
1584
192
-304
304
1088
-288
1200
512
752
-880
-336
-112
800
1888
496
-176
-32
720
-464
240
-416
-1712
896
1392
736
1024
336
864
1008
384
400
848
-240
928
1376
-256
224
864
368
352
544
1520
1776
528
-48
-1296
-1664
-448
1008
-1552
48
832
-752
256
-1488
-816
-560
1008
560
464
720
1648
1728
992
912
-880
-1024
-448
-160
192
608
-288
-944
336
656
-1024
736
2016
176
1344
-48
-176
1232
-960
-1632
-1040
-768
784
-496
32
-896
-32
608
1072
-480
-880
224
1152
-128
-208
-640
-640
-64
-272
560
1328
-1184
-48
-1392
1216
1504
1216
464
-352
336
-576
-976
-1056
-1376
-176
-672
-368
-640
704
512
1024
-576
544
1488
864
1648
1344
672
-1520
592
-96
-912
768
608
-208
-1232
-144
704
1056
1616
-192
-16
-464
48
768
608
-1648
-1680
-672
-16
-304
-224
784
-128
-496
-752
-1376
-96
-768
-672
-144
368
-1008
-560
-1120
-1760
1712
1104
-1872
-16
96
800
-176
704
624
1088
-816
1504
1792
112
832
384
-544
288
-1200
704
928
48
1600
640
16
-944
-896
-240
-1184
-1584
304
-448
-1840
848
1760
-1136
-528
-1280
-1344
-416
-992
-352
-1008
-976
560
592
-400
-720
-640
-144
1120
416
-640
-1200
768
304
1296
-352
-960
-864
-336
-176
-576
-448
-576
752
-400
-576
-224
-496
-64
-1024
208
-704
-816
-176
-320
-16
784
-688
352
304
-32
-592
-1008
-1872
-128
896
784
-656
1296
-832
-240
672
-496
-16
-1008
160
-672
384
-384
800
224
224
1584
832
-288
320
416
-1216
400
2016
-224
-416
-1072
208
-1312
-736
16
-32
240
304
864
208
128
544
1456
-1200
-736
624
368
-544
-1712
-176
1424
560
48
352
-1136
-736
720
-96
112
1152
1232
688
-576
-1632
-16
-144
-880
-432
1344
1200
576
-1104
-672
-288
-416
-64
1248
-512
-1808
-304
432
960
-224
-928
512
1424
576
-1584
-336
-544
-1168
-1200
208
1088
304
992
-176
-320
1904
1104
720
640
-112
-432
-1232
-304
208
-1328
-128
-912
-464
1344
-288
-576
-1072
-1136
960
144
-464
1424
1168
688
592
1136
1408
544
640
1248
1344
592
-144
1552
384
1328
752
-560
-128
1712
-544
-240
-128
-544
-1104
1376
800
384
-272
-736
-32
848
1152
32
-384
-1536
-1728
384
1968
880
-560
-320
464
-1200
208
-544
-1408
-1056
-1216
-688
-320
864
-496
-1616
-624
-448
-1376
-1136
-1984
-1824
1456
160
-624
688
528
544
208
-1424
-64
-576
-1072
704
816
384
-352
432
736
1136
-128
-384
-768
-1360
-1696
320
-320
-528
1472
368
-1296
-1152
-1360
-1408
192
1600
-128
-544
-928
-912
-1088
-512
496
1824
704
1664
1168
-480
1440
160
-1520
-2032
272
320
400
816
1808
464
-448
-1136
-1856
-864
-448
-32
-1280
-480
-1056
880
640
896
-1536
-48
-1152
-560
128
848
-320
-992
-240
1600
48
-1792
-912
-512
672
-848
-368
128
256
352
16
-208
336
80
144
672
848
704
896
752
1760
816
-1392
1328
-592
-1392
-352
-496
1104
1408
-128
-128
272
64
-304
-656
128
-640
1712
1216
-1168
-1184
-272
1248
1328
-256
-96
-1488
768
1376
1184
256
592
-1552
-336
-1104
-448
-1408
-64
-1600
-1152
0
-1696
-64
320
144
1088
768
-2032
-48
992
368
384
-80
320
-368
-752
1184
1696
1824
848
-320
112
-176
288
1680
-1184
144
0
-1568
-768
-368
-1216
-512
-768
-1568
-224
-512
-1920
-1632
-256
-1120
-864
-144
752
-656
-832
112
-224
-1664
-832
-304
-1472
-224
704
-416
-1552
-1904
256
-64
96
1680
1728
1440
1648
96
-736
608
1328
1536
656
-1072
-960
-368
-256
-496
240
1840
1632
640
-272
800
-528
-1040
-112
-688
224
1392
-160
320
288
336
128
-560
-384
1152
384
-1120
-1632
1536
1264
256
-16
-208
720
-176
-368
-368
-1584
-720
1248
1120
-992
-16
-224
-656
592
144
416
224
672
-1296
-1424
-160
320
352
-368
-336
-1344
-64
1520
528
288
1536
704
-1552
-368
-320
1440
-816
-304
256
-512
-80
-400
1280
1312
16
624
-480
-976
576
1520
240
256
-960
-272
-560
640
-544
-1312
-112
-80
896
240
384
-880
-624
1216
1280
-272
-960
-288
-944
-96
256
-1024
-1600
688
1392
-976
-736
16
240
-832
-1744
512
864
1664
1952
128
128
384
496
64
-256
-896
-608
-384
624
-240
-48
1696
-1088
672
-144
-1664
-1856
-2032
-960
-1280
-704
-64
1488
1536
448
1024
896
-416
-1328
-928
752
-448
-1328
-896
-1056
-656
448
528
144
-160
928
800
208
1312
-1184
-736
1584
48
-960
-864
-336
-256
-736
-544
1008
496
208
640
-624
-1408
560
-416
-528
1488
1152
1168
304
1360
752
1856
528
80
-384
-1872
-320
720
-880
-1248
496
720
1232
1520
144
976
1168
-224
-720
-448
832
-144
160
1184
672
496
-320
-1680
-528
560
-320
256
1312
1184
-32
1056
1568
864
448
-944
128
-688
-1328
-1248
224
1760
640
1056
144
-1168
-464
0
-608
-928
256
-224
944
464
-208
-256
-1312
-432
896
-496
320
-240
-976
-1040
-16
-32
192
832
240
-32
288
-496
1376
-768
144
1824
448
-320
-288
528
560
624
688
1024
-1008
-304
-1072
464
-832
-352
528
272
1536
32
976
-144
-176
-256
1744
704
-832
-208
-560
-720
320
1168
672
704
1968
1184
-912
-304
-1184
-256
-496
-256
608
1680
656
1712
400
-1680
-1088
416
256
400
-1024
32
-1440
-832
-256
848
1280
960
-672
-1616
-544
-288
176
272
1120
1040
-288
-192
512
432
-1456
-864
-1216
32
-240
720
400
976
-192
-784
1168
-1024
-2016
-1712
-1264
288
608
128
1216
96
-96
-928
-1744
-912
-624
-784
16
864
-624
-1424
-336
512
-544
-1440
-80
880
320
-144
-448
-272
272
848
368
192
464
1088
-544
-848
-224
128
704
992
32
528
96
656
-1520
-32
-1184
384
1248
-1120
416
1696
944
-672
1712
1008
528
832
-624
-992
-304
-272
288
672
-432
-592
592
896
112
1216
-1824
96
-560
-32
496
208
-320
1072
-336
-720
1312
-656
288
240
336
-160
-1152
-208
-992
688
448
-784
224
432
-1920
-944
-512
-48
-880
-16
-432
-144
32
-256
-1280
-736
176
96
160
-320
-1072
992
1888
192
-64
-80
-256
784
640
1760
352
912
864
-928
1728
1440
-352
-208
-624
-912
224
944
448
704
0
-160
672
528
496
384
16
112
-352
896
912
1248
-640
1584
240
1104
-512
-624
-288
1200
976
1184
1888
960
1232
-688
288
1536
-1488
-1600
-1584
64
496
-1696
-1024
768
800
624
528
432
592
-368
-1456
-240
640
-704
1360
-288
-1984
-592
-512
-528
448
1728
-928
-1200
608
-176
-1920
-896
-1696
-1552
208
16
928
1024
-272
96
-80
192
64
496
1056
320
592
1344
416
-224
976
-1040
-1120
16
-912
-816
1648
1152
-480
592
1408
576
272
-128
-528
576
352
1008
-112
-1184
-1632
-512
-176
976
1696
784
1200
304
-1136
512
864
1248
304
864
1232
1184
128
-1184
-672
1280
928
-272
-160
784
-304
448
-160
-320
-1280
-1152
1488
64
304
1600
496
-1392
-896
592
768
-208
384
-272
496
832
512
-464
-1728
-320
-2032
16
-1152
-800
-368
1856
64
-400
-784
-1392
-608
480
32
-176
-1792
-1296
-1328
560
736
336
144
1104
384
-864
-880
-1440
-688
-784
336
576
1264
896
-1280
-16
128
496
-1008
-272
592
512
-800
304
-400
0
224
560
-864
-192
-128
448
-112
672
848
-1008
-224
-432
112
208
-640
-432
-1456
-896
336
-688
-480
1408
-64
-208
-272
-1248
-464
-768
592
944
576
336
64
1504
336
176
416
-32
16
-288
-96
-960
-592
1168
896
160
-160
-560
-592
208
-1584
-1472
-352
144
-272
176
-288
176
1024
16
-1632
-960
880
-32
-160
32
-288
624
16
1472
144
-832
-432
32
-112
-656
1040
736
-944
-224
800
-240
-1248
-496
-544
-288
-1984
-48
-1200
-1328
480
848
16
-448
-1440
-784
640
-400
672
1520
-720
-1440
1776
1680
704
-752
1488
400
-1680
-688
-1152
1088
-432
-1952
-1056
-1312
224
-736
256
-352
752
880
688
640
-1040
-1824
320
-16
-592
48
-1648
-352
-720
464
-336
960
1072
672
-704
-1536
-1040
-160
432
1024
1248
368
1664
-496
-608
-1072
96
912
48
-608
-848
-16
528
992
-96
-2048
-1328
896
912
80
752
832
-192
-1088
144
0
176
448
-352
144
448
-32
-64
768
1552
0
1024
592
-1248
-976
1408
128
-720
-544
-1776
-288
-192
-144
1040
-256
-816
1504
-352
-1840
-624
-608
880
1600
368
272
304
1280
304
112
1008
960
-672
-1248
-1712
-1888
-1504
-256
976
480
-144
896
400
464
736
-336
-1888
-608
848
1072
-1504
-336
-656
448
624
576
832
1072
160
-80
-240
800
-80
-720
832
-752
1184
672
-960
-624
-848
-288
-1136
-192
-1856
-240
-208
-368
192
1488
1008
-176
-1216
-96
-432
-704
-1280
-800
-896
80
1120
1616
1504
256
1056
768
1504
1904
1104
-112
304
112
896
1376
-736
1200
1008
1712
1136
1088
-1072
-880
-608
176
-128
-144
-480
112
352
-256
-400
-1056
1264
1344
-16
0
-16
-848
-1216
352
368
176
96
-1664
-1680
-96
544
-1568
-560
944
1904
208
848
848
-576
-128
848
496
-576
-896
1136
656
-336
-1296
-1616
-48
-1232
-1456
-1296
-800
-1056
-832
-240
496
-624
-1328
-432
1392
880
48
336
1840
-272
-192
-720
-368
1040
112
592
-832
-48
1104
992
-416
-544
480
768
48
784
1936
720
-912
-688
672
-336
272
-464
-1664
368
848
-736
-656
-496
-1568
-944
-1072
-640
-1808
-1168
-1440
192
1120
640
-752
-160
-832
-1344
-1680
-1904
-1520
176
272
-352
-176
400
-1024
624
752
-496
-944
-1216
-736
-528
-1344
-1328
704
656
416
704
784
352
1088
1120
800
816
-224
-560
320
448
560
32
-192
1136
976
1648
1472
1200
512
1216
544
320
-976
-400
592
544
-400
-32
272
-1040
-1040
-1072
896
1696
1520
-144
-1008
1024
-496
-576
-16
-832
-1328
-1248
-1088
-496
-464
96
144
432
720
1488
-176
0
-688
-1344
-960
-1312
1552
400
-464
288
1712
496
800
176
-400
-608
912
1424
240
592
384
528
-1584
-1248
1472
-480
112
1312
32
-1104
-928
240
-1104
1120
-336
1088
-48
-1536
-1152
-256
336
-464
-400
-48
688
704
64
-2048
-48
-1152
-528
720
816
720
224
144
-1008
-192
-1712
544
1344
720
1648
1760
-608
-704
368
112
400
-144
-64
-752
-272
976
1744
-464
-96
1184
656
-176
496
1392
-544
-1472
-1008
-1664
-1456
-592
1264
192
1872
80
-176
-464
-768
-464
-256
560
-1824
-1760
256
1104
560
496
400
-2000
-1488
880
-320
80
1440
288
656
176
1088
1392
48
-720
1056
1616
544
1424
368
-336
-576
288
-64
-1632
-816
-576
-1200
-1712
-1264
-144
-1984
-784
960
480
1408
272
-1216
208
880
0
-960
-896
-1024
-288
144
-1200
-32
16
912
-480
-768
96
-1376
-256
752
960
880
-352
528
736
112
1296
1008
464
-592
-448
-1904
-1440
-1072
-1088
-1392
-1984
0
-464
512
1808
544
-464
-192
688
208
-512
1440
704
-64
-128
832
1088
-1744
-1360
1888
912
-768
-368
1488
784
112
-272
880
416
112
1504
336
1040
-832
480
-1792
-800
544
-400
-1440
-336
352
144
32
80
-496
-992
-368
-448
-1232
-128
640
-16
-864
-672
736
160
-304
320
448
-640
16
-1504
-288
-1872
-240
1936
-64
1408
1120
1312
-144
704
1632
944
-1248
-1040
-640
208
-48
160
-1696
-672
624
-1248
272
784
592
-48
1472
1440
-80
-320
896
512
-832
512
128
-1728
256
1920
544
1680
-240
-176
-464
-1488
-1792
912
-672
-1680
-880
-368
752
304
960
1360
-400
1344
688
192
-1104
688
1888
-160
48
-16
-272
-1392
-1280
-688
-320
224
48
-96
320
-224
32
-800
-432
640
1728
752
176
-1632
-672
-1200
-2016
-320
-1408
288
-1744
-1360
-2016
-1120
256
-1840
-848
-1184
-624
-288
-272
160
-752
1584
384
-592
992
-512
-784
-80
1312
-384
-1824
1360
-656
208
-1616
-1552
560
976
-480
-1136
464
-1248
-1248
16
-784
-16
768
-160
1248
960
1296
256
-672
-1024
-96
-512
16
-576
-128
-720
-192
320
1744
992
448
240
1216
-1216
-880
-1168
-528
-656
-896
-1776
-288
1328
96
-1040
-144
-208
-80
-144
-1552
-944
16
-256
-752
1488
-752
-1232
128
-352
-672
-848
112
128
256
192
144
-624
-1344
-1056
-128
448
704
16
-144
-288
-1344
-592
-1040
-1504
-1056
-1136
32
-1152
-608
-1504
-96
0
-1440
-384
1280
1360
1520
768
192
1264
768
112
-896
672
928
-480
-128
-16
-160
560
0
608
688
576
-896
-560
112
-320
176
-816
-48
-1680
-400
-512
-96
-672
-16
-48
-80
-1072
-1216
-752
688
-240
-1008
-128
864
-720
-1472
-336
-64
-816
-688
-1840
544
1232
-128
-224
1664
1120
-560
-240
112
-64
-816
-272
-864
-96
1968
816
368
1376
1584
1440
-1072
-320
2000
320
96
432
448
-256
-1600
-176
352
1520
-848
-1440
-528
16
576
768
-1072
-928
-864
-1744
-672
-368
-192
-832
-976
1600
-16
-128
-1264
-544
-48
528
288
1232
112
-432
784
1552
1168
1280
-272
160
224
-112
-1536
-720
80
96
208
704
576
1568
-80
-1600
352
752
880
-576
1168
-1088
-1200
-304
976
784
-960
-1008
-512
944
-864
-96
0
-1968
832
1040
-480
256
96
640
-1072
-1952
-704
-1120
-1104
496
-1584
-448
576
128
-192
-1856
-768
0
-544
800
-528
-544
144
720
1104
1504
-928
-1328
-928
-480
-1744
-1072
-224
800
1648
-304
-336
656
768
0
1232
1600
-320
352
1584
1376
-224
336
1040
80
1072
1088
-576
240
-560
-304
-224
656
1280
-736
48
-176
528
16
-1376
-832
-768
224
464
1696
272
-16
-688
-32
688
608
160
-688
64
1360
1696
640
32
352
-560
112
16
1664
1296
80
-448
128
464
0
816
-320
-864
-32
96
-288
-80
-1312
208
400
640
656
320
-304
1952
352
784
176
464
-208
-48
112
208
1264
1408
1008
1872
112
-688
-1232
-1184
-1264
-320
352
-1216
-32
464
-608
1152
1488
928
-704
624
1200
-176
-432
-272
976
-432
-960
624
320
768
-432
-16
560
-160
-928
-1792
-320
1584
1456
-48
720
-32
-1136
1744
-192
-64
928
1424
1248
2032
448
-400
-272
112
-1888
-736
1264
128
-1040
-1712
-1344
-592
-608
-784
-1360
-976
-544
80
-224
1616
1952
-992
784
1584
-96
-400
-96
-608
-1104
-624
-896
-1584
-560
-784
-672
1136
1632
-496
-432
1728
656
48
352
-544
-672
1520
-176
1120
960
-1488
-864
1168
944
1568
1232
240
-560
384
-32
-560
160
1136
1104
544
160
-1456
-912
-208
-640
-400
-32
-1248
128
672
-752
-768
-64
16
-1056
-2000
-1632
368
-32
-864
-864
480
-1168
208
304
-192
-1008
-96
256
912
512
-1536
-1040
-656
-384
-352
736
2000
656
-1216
-240
-96
576
-672
-976
-1200
96
64
912
336
896
752
1376
-1376
-544
848
288
-240
976
1744
1360
400
1408
1120
656
864
-768
-752
-656
-640
-304
-1072
-1040
-1776
816
976
704
160
272
-64
192
-416
1232
768
1792
1040
1152
-1216
-1248
1552
624
-336
-48
-224
656
1360
1232
128
-1072
656
928
1104
16
576
1584
1504
1648
1696
336
-1488
320
1744
64
1392
176
192
832
432
-608
-1024
-944
-432
352
368
1104
464
272
1072
64
480
-272
-1104
-128
-912
-192
-400
-1168
512
1632
304
624
1088
-400
-1456
-992
352
320
-208
-1040
-1936
1952
1088
944
256
880
768
-576
-1568
-1040
-416
96
128
-1440
336
1088
-192
464
352
-1440
-1440
1024
496
944
-64
784
1136
-784
-432
112
384
112
-672
-848
-336
-1408
-400
880
976
688
-64
-592
-2000
-1344
-1344
-1280
-512
-208
1968
1392
272
416
-400
-208
272
16
224
-336
320
416
-928
-1072
-320
768
1424
480
-784
976
-1264
-656
-1280
1184
-256
624
1232
720
672
96
96
640
240
-320
-48
-624
-128
528
-416
-944
-64
-944
-544
304
1344
-48
-864
-1568
-1216
928
1008
-1488
-1248
-912
-1808
48
160
-224
-1392
-2048
-320
-32
608
-176
-112
-880
-208
-976
1232
-192
-992
624
-1536
80
960
1216
1472
-448
320
640
-960
-1104
656
160
1584
1152
-880
-272
-800
-368
320
256
1856
1072
-528
-560
448
1168
768
848
112
848
976
-368
1152
-16
-1280
-672
320
1376
800
288
-992
-592
-32
528
1104
-80
800
2000
1056
-1392
208
-768
-1296
192
160
-480
400
-960
-592
-528
1360
512
320
-400
-1184
-1552
-640
-2048
-560
1664
-1168
-976
144
208
640
-352
2032
80
288
800
528
-944
-672
-1232
-1248
-608
-912
-864
-624
1280
-192
32
-336
608
240
128
-704
-1456
304
912
1328
736
-640
544
32
-416
-240
-176
-816
-1248
160
960
1392
-592
-224
816
720
-608
336
-1376
-688
-96
1504
-320
-1168
-1280
-1456
32
-848
112
80
-1200
-816
-480
-1840
-576
1392
-928
-1104
-1792
-672
-160
-368
576
1600
608
-48
1088
-464
-256
-1072
-464
-16
1104
-1104
-704
-1120
832
256
-576
608
-464
-1056
1136
1296
80
-208
-1744
864
-768
160
1232
-640
-48
624
-976
1104
784
-464
144
-1248
608
320
-1440
-272
608
-224
-1040
800
1216
304
1584
1040
400
-1056
-944
-768
-736
16
-1248
-272
1824
752
240
224
656
16
80
96
-368
-1104
16
-224
-16
432
-400
-112
-208
320
304
848
160
1504
-608
-1344
-528
976
-96
96
320
-304
-1344
-736
160
64
-720
-1248
-400
0
256
208
-496
720
1440
64
-720
-128
752
-1984
-16
160
-80
208
-1856
-784
720
-672
240
240
1312
1088
1936
1296
800
-848
-1024
576
0
-192
-544
-672
-16
240
-624
-816
752
-384
-352
992
1168
1632
1440
608
1984
768
64
880
1088
-448
-112
-48
-544
560
-896
-80
912
-1440
-288
256
1136
960
544
-832
-912
992
1424
1664
48
1232
832
480
-32
-1248
-64
-848
-1776
272
176
-48
-976
-1648
-1232
-160
-432
1088
1168
576
-992
0
-400
-96
672
48
96
-208
592
1920
1568
576
1952
288
304
800
112
-48
1232
-48
-1296
224
544
-528
-32
-432
-416
496
528
288
1248
-1312
-1520
272
16
-688
-208
-544
-816
-1600
576
80
80
-672
1344
832
752
-704
-1648
-1456
48
576
-560
560
272
64
304
48
-480
80
320
736
128
1904
1008
256
1696
1424
1408
992
800
-128
-32
736
208
-1280
-1024
1328
-608
-128
-1728
-480
480
1072
-480
-544
-336
720
1152
-224
-768
-672
-288
368
-1280
64
752
832
608
-336
1120
736
-400
1088
1520
-368
96
576
-48
640
1088
1712
-1536
-1664
352
128
96
-80
-480
1248
1408
-704
-64
0
1280
480
-944
1248
1680
1344
416
320
1312
1632
1232
160
-80
-208
-16
672
1104
-560
1296
48
1104
1088
960
688
912
400
-560
1232
624
1216
-832
-1024
352
768
880
672
1744
-624
-272
912
0
1120
640
336
1392
-16
-1008
800
1488
-576
-944
-16
1104
1856
1344
-1536
80
1072
800
400
-64
48
1328
608
-176
-992
544
-416
112
240
1552
864
-176
528
1712
480
800
-960
-272
-1664
1024
-640
160
896
448
-304
-368
432
128
-240
-992
192
192
-976
-1248
-480
-336
240
352
1792
496
800
-64
-96
-272
128
384
1136
32
224
-720
16
-128
-1472
1456
96
-1600
464
512
688
672
304
1056
752
-576
-688
-464
-224
-736
-848
96
1456
-32
384
928
-880
320
1152
768
944
-176
1696
1552
-576
-320
496
1200
-816
-512
-192
-608
-560
1136
304
1488
1312
-960
-416
-672
-864
-992
-272
-1760
560
848
176
-608
400
-272
-144
-368
-1904
-1808
-1120
-1632
-1200
-128
-288
-912
592
-576
192
-64
-368
800
848
0
-1216
-64
-176
-464
752
1264
-480
544
1728
672
-336
352
-976
-1200
-1600
608
0
1152
1648
-48
-64
400
-480
-352
624
-1264
704
336
-880
400
880
-992
-272
832
-544
-1264
1232
-512
-464
1008
720
-560
-720
-528
320
768
-48
-912
912
704
32
272
-144
16
96
-1312
-896
560
-1168
80
1424
0
112
976
-736
-1168
0
480
480
1248
-608
-688
1648
176
-96
-16
-464
992
912
608
160
1648
256
-624
96
1504
-352
-816
-368
464
-336
160
320
528
1792
752
1024
-224
624
528
-784
-544
-800
1072
480
-176
544
1040
-320
32
1744
-848
-1472
-688
-1408
-1408
944
464
688
832
-384
-624
192
-800
432
1744
304
272
-880
-48
-224
336
-720
288
-208
1968
800
-256
1024
176
-1504
-48
-48
624
272
-128
240
1664
112
80
1056
1120
288
-192
1040
1072
1008
1872
160
-464
-1712
-336
-2000
-176
80
-960
-96
-912
-704
-1152
800
1040
1136
800
464
-1616
448
1184
0
-816
-272
16
-352
624
272
-1088
-560
-368
-512
1488
-288
-208
832
1280
-1104
-144
48
1856
-1888
-1904
-96
144
768
224
640
-368
-784
-1312
608
32
544
960
1392
880
1056
64
1296
-864
336
928
-1280
-976
832
-1664
-960
128
-656
-224
-976
592
256
272
-960
-1680
-752
-560
-128
-112
432
-832
0
464
720
-848
-1152
-1776
-1968
-240
-768
-224
-832
-1808
-1264
-832
-432
544
-784
-176
80
-1312
752
-496
-640
1440
-400
-160
384
-1072
-688
-352
-656
-336
544
896
1312
272
512
832
-512
-672
336
-192
208
1808
1232
736
544
1920
272
544
-864
-1984
-400
304
-240
-1200
96
1616
1248
-640
304
1360
-1024
-368
-240
-960
768
432
-480
320
-1744
-1664
-1232
896
1136
1008
-1376
-1344
1136
240
-384
384
240
-944
-1392
-416
480
-672
-128
-1136
-672
1200
-768
-1760
-1840
-400
-1040
-1360
-1088
-528
1920
1424
224
1104
1232
-192
-1616
-896
-1120
-1584
-544
-592
528
-128
320
-400
-1008
-16
-1456
-720
0
0
16
-192
-1024
-880
-496
-1376
-1824
224
-256
1536
1488
1440
448
-1392
-1312
-1712
-288
192
-816
288
480
-688
-1968
-1248
32
-608
-992
0
304
-272
-1360
-496
-544
-1328
-752
-1264
-256
-1280
336
-768
-1024
-112
-1152
-1104
832
-336
1168
656
0
416
816
1072
1040
112
896
720
-288
1616
1152
-1264
-1328
-800
-224
192
-112
-848
1488
688
-512
-1824
-1456
-48
1168
400
416
688
288
992
384
-912
-144
1216
-640
-192
-96
-1552
-1008
-896
-32
1568
752
1056
624
-1168
-560
-1008
-960
-944
-224
976
544
96
-192
-240
-368
1152
560
-528
1296
1728
1040
-400
-816
720
432
-1168
-640
-768
-192
912
800
-368
352
512
1680
1984
592
-512
-224
624
1504
928
-112
-496
-1088
624
912
1184
-368
-928
1744
192
-208
1056
-1376
-704
-240
1968
1600
-352
576
-928
-1152
-256
-1968
-128
-1680
160
1280
560
256
-368
656
784
-464
-496
-1328
-656
-784
960
-224
176
624
192
672
-240
624
640
-224
240
144
704
-640
672
-1136
-1424
-624
-1904
32
1552
-448
-1888
-320
-1104
-704
-640
160
-112
-112
-1792
-1648
-720
1168
304
-48
-832
304
128
1184
1456
176
1360
1008
1056
1136
272
-288
-144
496
1296
0
864
832
96
672
688
832
-640
-80
-48
-560
-1296
-608
-1504
-928
-384
480
752
448
-544
384
864
576
-208
656
1712
144
-496
-576
-640
576
560
-1856
-1344
48
-1872
-896
144
800
1136
656
-32
1248
1136
880
1808
1888
576
-544
592
1088
1840
1200
-64
-1408
816
-672
-624
208
1744
16
880
-1312
-800
352
1216
960
-672
-544
-528
-1968
-1664
-1312
-1520
96
784
-16
704
0
-1568
-192
-944
848
-96
-560
144
-416
-288
-288
480
-416
-960
304
-64
864
1600
752
-512
-1248
-1952
-272
-1568
272
1072
-304
192
-832
-624
-960
-96
-528
896
992
1728
992
544
1728
656
576
-624
176
592
384
-16
-624
240
1152
816
16
-144
-144
160
832
576
-224
-80
-240
256
-464
-80
-1120
672
240
-416
-1888
-496
944
-192
-96
-704
-384
-1168
-32
-1440
-144
-384
-688
-800
-544
-96
-592
432
16
464
-336
64
-816
960
1568
1840
1376
-1936
-1456
336
-416
-400
-1936
-1120
432
-240
-1024
960
416
-32
1312
672
880
1488
0
0
-176
-576
-656
448
816
1024
1184
944
1680
512
1600
-400
-80
-1328
224
1264
-1248
-496
800
-704
1056
368
320
64
1600
480
-560
-592
-1792
768
-784
-1184
-320
176
16
656
1536
1632
336
-1120
-160
512
1760
464
1712
1328
2016
352
-160
-2016
112
944
496
592
448
-848
-688
-928
-560
-864
-64
-1472
-96
480
496
1008
1440
1264
-1056
-224
96
64
464
688
1312
-16
-416
-1344
-1088
-480
-1472
-944
-1360
-400
336
-1040
-1504
1744
672
1392
1232
-448
720
-432
-64
544
160
1024
-720
1200
560
976
896
1344
16
-288
784
-80
-1376
672
-32
352
272
1344
1920
656
-1872
-1328
-688
-688
-864
-432
-208
-816
-1840
-384
-464
-288
-320
-1296
64
-1232
-1984
-864
672
1328
1056
48
160
-480
-1984
-880
-960
-1664
-304
160
-800
-400
176
432
-288
96
1296
112
-640
-912
96
192
-256
-720
336
-1248
-1280
-1024
544
832
560
1440
240
32
-48
-976
-1152
-384
-720
-464
-544
784
512
160
320
-1328
-368
-400
400
288
-592
-560
-1440
-688
-816
-288
-2000
-672
592
-1728
-1840
-1280
-448
-1008
-1168
-1264
0
-1120
-1872
-368
1216
128
880
656
-720
64
480
-1328
-480
-272
-1472
-1008
1328
272
-1200
-528
-1680
-736
176
-1296
112
-1456
-896
352
1744
-128
-176
336
-256
1280
352
224
-272
352
-336
-400
944
1104
-1568
-1296
544
-896
-880
-64
128
192
1088
-992
-1264
288
-64
224
192
-112
1760
1824
1120
-1088
704
1184
-976
-432
160
624
688
32
1760
1744
720
-416
-1904
-304
-944
-160
-48
1296
1296
192
-784
-672
-976
-1472
-608
-640
-48
560
-352
-160
912
80
-576
-1184
-640
-368
1264
-336
-1552
32
288
-816
1200
752
1536
-1936
-1696
-1088
-960
-1168
-1168
1232
-32
-432
976
-128
-160
416
-672
-800
688
-816
704
320
304
1616
0
960
1936
-384
816
-384
-1904
1152
304
-576
64
464
-416
-1504
784
1440
-144
-784
160
-720
-720
-784
1472
944
-640
848
1008
-96
-656
960
1216
272
400
592
432
240
-960
-112
64
480
-352
-1056
-1872
-1792
48
656
-752
528
288
-144
-416
-432
-928
-704
-1888
-432
-544
208
784
672
-480
-1152
-240
240
240
768
688
352
-1104
-432
1296
976
1120
240
512
144
1248
656
-80
-1184
-1024
-464
-160
-320
432
-128
-496
640
896
-144
1264
1376
48
-496
-560
-384
-112
496
608
-768
-736
592
320
-1632
-1328
-592
-1280
-720
1136
-240
112
832
1840
848
-544
-560
-1088
48
-496
192
432
-656
480
-576
624
656
496
384
-1424
-16
176
608
336
1248
560
1168
688
-208
640
912
1152
1584
-128
-1008
-1600
-688
1056
1264
-672
-384
-704
1680
160
-1824
-1664
496
-1040
-544
-992
864
-1792
-1616
-1264
-1472
192
1536
1120
-512
-512
352
496
1632
1808
912
-1744
-1184
384
-256
-736
-576
0
1696
-96
-288
-240
208
-960
0
784
736
224
288
-928
-144
-1680
-1440
-256
-272
128
1408
-192
-176
656
384
-560
-832
-176
-1104
-224
-80
-800
-528
-304
-560
1168
288
-1488
96
-1104
704
-176
-864
304
144
-176
-832
752
736
-1696
-432
-1312
-64
-656
576
448
-96
-480
-416
-160
-160
-16
1440
512
16
-64
784
1872
288
-928
-880
80
-1040
-864
-1024
-240
-256
-688
272
496
1728
832
560
304
880
768
1024
464
-336
-1008
-64
672
48
-1360
880
560
-192
80
-768
320
48
48
-368
-1296
176
-272
-624
160
-1136
-48
544
1632
704
336
320
1008
624
-704
864
1360
-32
112
480
1088
416
-528
-1296
-1328
-1072
-848
80
-1824
-1952
528
496
160
-1856
-816
688
608
-64
384
624
112
-640
-480
416
16
608
1664
528
-848
688
848
-16
128
48
368
800
1088
-368
-240
544
1040
-848
-1184
112
544
656
912
784
416
-1104
464
-1488
-1008
-928
-512
0
816
880
1440
304
208
-784
1072
352
-336
-448
48
-288
1520
672
-384
-368
-272
336
-624
-1984
-272
-704
-880
0
480
-400
-544
544
544
704
384
-160
48
800
656
1520
896
848
-320
-608
1088
1840
944
-208
-608
-112
272
1456
1440
976
1520
1792
1120
-352
-1024
-928
528
560
1024
672
-912
1504
1392
2000
1216
-496
-288
-512
-1008
656
560
-656
-976
-1344
-1312
-320
-736
-496
160
-48
-240
-448
208
-1312
-1392
80
-672
-816
-384
-80
-112
928
-352
-656
720
416
704
1264
544
288
144
480
-800
-1504
-608
768
1392
-304
-880
-496
-1920
-528
-192
-1440
1536
1984
1616
512
16
672
-1280
-1664
-1760
-736
64
-464
608
-976
-1920
-768
384
480
1904
32
1440
160
-208
-112
-1792
-1376
352
384
-384
-464
-1952
-144
-1472
1968
1168
-128
-512
-32
-1056
704
160
-1712
-1728
-64
112
-304
-1952
-432
-1504
-64
80
1136
352
880
448
1584
928
272
-480
-384
-1024
-496
304
1504
1040
-80
-464
-944
-576
-32
720
256
1168
368
-416
112
448
336
928
-160
64
112
-32
1200
448
768
960
-384
944
720
1952
624
-832
-656
-272
-1120
272
-48
288
448
752
-336
48
1008
160
-896
-1664
-1632
-128
-96
1008
576
-1392
-1104
576
-128
-144
592
-272
-720
-1936
-352
368
416
1088
368
1184
736
1984
-432
-800
304
-352
-1392
-208
-320
736
160
-1248
240
48
-1520
-800
720
1440
-1312
-368
-256
-1696
-880
624
256
1008
960
64
-1392
-1344
-624
-720
-288
720
720
-272
864
320
-256
-112
592
-240
16
-480
288
832
-752
112
544
-1632
-1376
192
-368
-1584
-160
-1600
-16
1008
464
128
256
-496
928
832
624
-928
-1024
336
-160
-1248
-208
-384
-544
-1264
-960
-896
-336
-112
896
1840
-160
-624
-608
-224
-224
1440
64
-176
880
64
-1184
-288
-480
208
944
576
-352
-208
800
816
1152
672
-224
-2000
-1392
208
-80
-352
880
80
-80
272
480
576
368
1024
-528
-224
-1136
192
736
1200
1552
0
-864
-112
-1136
-1008
-512
-448
688
1792
-288
576
1232
544
944
880
1024
96
208
880
1648
576
1024
-16
-304
992
816
-80
16
-96
1152
-1584
112
-336
320
768
1328
64
992
-240
-1584
-32
272
-304
528
-160
784
480
480
-1120
-1072
-1408
-64
-176
-848
-1120
320
-80
-784
-608
160
-1360
-160
-352
1072
112
560
560
-480
-1744
160
688
432
-784
-1152
-256
-416
-896
-1680
112
432
752
1248
304
1232
928
-816
-16
-368
832
-1712
112
-464
-48
-1680
-544
-864
672
-496
-1680
-656
-688
-720
1904
-16
-1120
864
720
-192
32
816
416
704
832
608
-912
-1280
-2048
-208
320
-336
-720
-704
-192
-672
-816
544
880
1648
128
-96
-816
336
992
-1008
-1808
-1040
-1104
720
-368
-80
-784
-720
-832
-1072
-368
752
1168
-704
96
512
64
-240
-448
-752
864
1568
96
1392
736
-2016
-1728
864
416
-80
-1040
-960
-912
-672
-320
32
-608
464
1776
1072
176
704
304
-368
-800
-208
336
1200
-1328
-1456
960
-1280
-1632
-704
-736
0
560
-352
-1392
-512
-944
-432
-976
-416
-1216
-1552
288
1008
0
-576
1136
-464
368
32
1264
1232
512
1072
-464
1648
848
-208
-1728
192
192
256
-1232
-1696
160
-432
-160
-224
-912
-112
912
800
-176
-384
672
-960
-448
-1968
-1584
-784
-192
-208
-1872
-1088
928
480
384
-160
448
-16
-336
464
576
0
-816
336
928
1568
304
-1568
-1824
-848
-112
976
448
1792
512
-1584
-1584
-1264
-1136
-800
336
320
512
-672
-1312
-1824
-752
704
720
1072
1200
400
-400
-928
-816
192
-336
32
1424
1136
928
192
1328
-448
-720
-128
400
-176
736
432
-896
-704
720
1536
-800
-992
-288
-176
464
800
576
-208
-1264
-256
1920
-352
-160
1312
-1280
-32
-352
1248
304
-1216
-688
672
160
320
352
-128
-928
208
-240
848
656
-304
-160
-1872
-352
480
1056
-192
640
1280
-416
1008
752
1296
1136
-272
-448
144
304
1344
1168
-400
208
-112
1088
304
-1008
-96
448
1312
1680
160
-1152
-592
-480
-1680
-1984
-112
992
-1344
-1520
320
-560
-656
288
544
1424
1680
-352
-848
512
832
640
-112
-1168
1168
464
608
1056
1136
96
256
624
1136
1280
-96
-912
544
320
-912
608
-16
-1424
-1904
352
496
48
384
368
1184
400
16
-1584
-656
752
688
-400
-560
-752
320
672
-80
496
240
-368
-1808
-912
-128
-624
-736
528
2000
-640
-720
-1104
-1248
-512
448
1680
1792
-1424
-864
208
1008
-544
-144
224
-1152
-832
400
1040
-768
-864
-112
-960
-624
1104
1264
-80
-336
80
-96
464
-208
-1712
-1824
-640
1376
1664
1184
-256
-2032
416
1152
-688
464
176
1104
-64
16
1872
1824
1392
-576
-944
336
320
208
480
-16
-848
704
-960
-1312
-1792
48
240
-448
-1280
-1520
-816
768
1600
-176
-944
608
1936
64
-352
-800
-432
912
-32
-208
0
928
2000
368
96
-848
-96
-16
-96
608
960
-576
-384
352
0
-1152
-368
1472
304
0
960
-1376
-80
-208
-1472
-656
256
-1232
-240
-256
-720
-448
-336
-1152
224
1088
496
-256
512
144
-656
752
-976
128
-576
1120
1024
1824
992
-1552
-1360
-1280
-1808
-960
-384
-128
-48
-320
-480
-960
-1984
-1728
-1360
-1008
-1024
-384
-1008
-80
1664
32
-1440
480
400
-592
-1920
-1312
-1328
1104
1056
608
448
384
-1104
-928
-464
-288
-1056
-256
1488
400
1264
-640
400
1616
-944
80
-320
-416
-480
-592
-192
64
-560
-336
1504
976
144
992
-576
176
1312
1936
128
-192
-1728
896
-160
368
-352
-688
-544
-1168
-528
-1296
640
352
-1008
-1392
-768
480
944
176
144
-624
-432
-224
432
288
112
32
16
-560
144
128
240
768
928
96
1552
1872
720
560
-608
-1504
-688
736
848
-720
0
496
-240
-976
352
896
400
992
-368
-1872
336
1440
1696
1984
656
-48
448
-912
112
128
-112
1424
976
240
192
-912
-1232
-416
544
448
-816
-160
-928
608
-528
128
1280
1280
784
-960
-32
192
656
-704
-640
688
80
112
224
-416
-1472
208
880
-1280
144
800
240
448
-1104
112
880
-1152
736
944
448
1680
-400
-1120
-768
1408
48
432
256
432
-1264
-112
-1776
-240
640
-144
256
288
-656
448
1488
368
-112
-1440
-848
-240
432
1056
880
-96
160
272
448
-32
1712
1392
608
320
48
-416
-2000
-784
-576
-880
-192
-784
-704
-1808
-1472
0
-560
-304
1744
544
0
-240
304
736
-432
-1264
1568
1792
-976
1248
1136
1376
544
1136
-416
-592
112
976
656
448
-560
224
560
-976
-352
1280
1328
816
-16
-336
-1328
1648
640
-320
-128
-400
-896
-1568
-80
-752
-1824
-1152
-640
224
-928
1616
48
64
-480
320
-224
-944
-16
-512
-864
-272
-272
1232
1040
1136
816
-1216
-688
160
672
128
-704
-704
-912
-192
1264
-16
464
16
-1280
-896
-800
288
400
1920
736
-672
-1328
272
560
416
-784
-592
1136
-160
-176
288
-240
-496
-320
-384
-1104
-304
-432
-64
-960
768
272
-816
-128
-752
-1872
16
1328
-112
-704
432
-1136
-864
-1136
-480
-288
1104
1088
-480
32
-160
-432
-992
384
368
768
0
1104
432
112
992
32
-1600
16
-736
-176
1072
784
-1152
432
1088
1040
480
-688
-336
-1664
-1504
-1456
-800
-528
-1184
1184
-592
-432
896
1216
576
-144
-1456
1024
-1280
-976
-1328
-304
288
-992
-1440
-896
-176
640
528
-176
560
-224
-1216
-592
-400
-192
464
1024
208
-1440
-160
144
1408
512
688
736
-592
-912
-992
1648
-1024
-1520
-1888
-880
-816
-1328
1024
800
624
-352
-1520
-432
-304
-208
-1712
48
-192
-176
16
576
1024
464
1104
512
64
-112
-192
1488
592
1120
208
-1824
-1280
416
400
32
592
544
224
256
576
144
112
-304
544
-1328
-1328
-48
256
176
1280
384
-768
-448
-16
-304
-752
-512
-1648
-1024
-1920
-176
-1184
-224
1056
1056
688
64
-1744
-1376
1072
1008
576
272
-768
-768
-32
-368
896
1008
528
288
-1200
-1168
-576
48
-48
608
944
-784
-272
1632
1056
640
-1040
160
304
784
128
864
1856
1232
1072
-320
-704
-1792
-1472
-1120
-192
-1568
1680
16
-176
784
-1408
-1072
-912
-112
-464
-752
1136
864
1840
672
1648
-160
-320
-128
992
-1232
-1968
-208
-1232
-288
1776
1760
1184
944
-528
-752
-672
96
-576
96
-1152
-976
-928
-1824
-288
720
112
-80
-480
2032
480
-160
192
-816
-272
-1424
-560
544
-544
-704
32
224
800
304
-96
1472
-1040
-512
-736
-672
-1872
-1712
208
768
1184
-416
-96
-768
-576
240
-128
-240
992
-1280
-1056
-176
384
-352
-48
16
1856
1488
672
-880
1568
1664
624
-192
-640
368
1264
720
848
1664
2032
976
-1072
1376
1344
-464
1392
-944
-16
352
320
-96
-1024
-672
-336
-496
-1072
192
976
1232
608
480
-1088
-944
656
560
160
736
352
1328
32
1120
1616
-160
-1008
-16
1696
704
-768
-544
784
-80
512
-528
848
560
144
-768
-1248
1424
1440
960
-1088
-1376
976
1072
-16
784
-784
-976
176
528
64
160
1728
-736
-816
736
1504
96
-1088
-784
608
-336
992
16
-2032
-464
1840
1536
-256
1968
544
240
1312
1072
224
-608
-192
272
-16
608
144
-672
-944
-528
-1040
-944
-1248
-480
-288
-1856
464
1488
240
-256
-1936
-912
144
480
64
-464
-48
496
-352
-1104
112
-880
-656
-672
-368
608
1776
1232
-1568
-160
1328
480
672
224
-208
112
656
1360
976
-304
-1904
-272
848
1392
1504
384
704
-704
1440
416
-848
-592
480
1248
624
-1504
-1648
-128
-592
-192
-192
-704
-960
-560
-528
352
-1632
-912
-1488
896
-704
-1440
-880
-1248
-1264
-1168
-864
-256
-608
736
816
320
32
160
-784
-144
752
1328
304
-1328
272
-352
-976
-1056
-1200
-1200
16
1360
224
-992
-432
-928
-592
-16
784
-1024
-816
592
-240
-1008
-544
864
576
-832
-1024
960
1216
-752
640
336
1632
2032
800
240
928
1184
-896
16
-48
208
-1008
-320
800
1376
0
-1056
96
-1696
-1968
-288
768
288
-1632
-624
592
-16
-416
-1168
-464
-48
176
896
-176
-432
-208
736
80
912
384
320
224
-416
384
416
-224
-1232
304
896
240
-624
816
480
-1200
-368
-800
1552
528
368
320
-448
-1600
288
144
592
64
-80
160
176
160
160
304
432
1760
272
160
528
-656
-464
-96
368
-640
-1040
768
848
560
-992
-1296
-1648
-1856
-1184
-1088
-704
208
-592
880
1520
192
1328
1168
-464
-1360
-1408
-848
-560
-1920
-1600
-144
-1136
608
400
192
656
1392
608
288
-1424
-688
576
272
-912
288
-752
176
-16
384
-896
-1616
832
-208
1664
1504
592
-112
848
800
-1856
-1264
-384
32
1920
-480
64
-496
-1248
-1040
-608
1200
1104
-192
-368
-192
-1808
-1568
-576
464
800
-1248
-208
816
80
1536
208
-864
768
352
160
-320
1168
2032
-208
-1376
-256
240
48
-48
0
-1104
-1184
752
-208
256
1712
1424
256
-1440
-512
-1264
-640
-1504
-208
112
-240
-656
-1344
960
1296
672
400
288
224
-1536
-16
656
160
1328
816
960
-576
576
1232
-64
-304
-144
144
1472
352
864
352
112
-80
-128
592
1632
80
-384
656
16
-528
-1232
-944
320
16
336
736
-448
-1824
-464
-128
-848
-1008
-432
608
240
-192
944
1952
1424
-16
1248
576
-1056
-1136
-80
176
672
1232
1088
-1568
-1584
16
-688
-928
-304
624
-304
-64
976
896
-576
-1152
-880
112
-256
-832
-1488
-1808
80
-208
-640
848
1152
1136
-1072
-320
-32
-448
-400
-368
288
-208
-320
-112
-640
-176
-192
-1616
288
736
800
896
96
960
-384
-624
-1424
640
896
-160
1184
368
224
112
864
-1104
-672
-1536
640
320
-128
16
864
176
-192
816
-864
-672
-1456
-432
1040
976
304
1440
-848
-80
1856
544
-816
-1232
320
624
32
-496
-512
-400
-928
480
-416
-720
-304
80
-80
-592
-336
224
-112
-624
-1504
-864
96
720
-160
608
1456
1248
1936
-592
-560
1120
-192
416
384
-688
-1568
-672
-576
-416
176
864
528
1152
688
-528
-1104
80
384
-208
-848
64
-192
-272
32
-528
-624
480
864
1232
416
-1376
-1440
944
512
1280
1312
16
720
448
1056
-592
-816
-1840
-896
-1248
-1568
-416
256
-272
-112
544
816
-176
-1296
-1296
-176
-544
368
-624
-1616
-768
-160
-368
288
-384
-1456
400
128
-1712
-1056
208
-208
64
-1120
1520
256
736
-176
-1104
-1744
-560
-1168
1120
256
640
-48
1808
864
512
176
-1920
-736
-1456
96
384
-176
368
608
96
-1856
-944
48
-368
576
400
768
-352
240
-320
-416
864
192
-704
-1312
-192
-816
-176
1072
1200
544
-512
-304
-144
352
-1776
-864
-288
-960
-736
-80
560
-848
-352
128
-320
1024
336
-1024
368
1168
1712
-1184
-768
-16
-32
368
160
-592
1696
560
-1056
1984
1552
-656
-1008
400
624
400
-32
-560
288
1008
1200
-512
720
-192
-528
-640
864
304
-960
-320
-1984
-144
160
896
-208
976
1600
432
144
640
512
-144
368
-1824
-576
80
-1200
-736
-416
272
400
-592
-768
192
-1168
-1552
832
-32
-128
1488
1120
-1568
592
128
144
224
-320
-1120
-1552
-192
-448
-1328
-1392
-304
960
-1296
-640
272
1504
-208
-1744
-896
704
848
912
-1264
0
-512
896
592
464
688
-32
336
-592
-608
-1056
-192
-576
-336
-112
-1184
32
1296
-448
-944
-1456
32
1504
1280
-288
176
144
32
-336
-160
-464
688
368
416
160
-1856
-224
-416
1232
-608
544
1008
-400
288
-80
-1120
-1248
-1904
-720
464
-1456
-144
1232
800
960
800
400
64
-160
-528
-1376
-672
1424
1120
640
-832
1120
-384
1520
1232
656
432
784
528
176
816
880
816
1936
896
1344
-592
-928
-80
-128
672
528
-688
-816
864
320
-1696
-432
-1168
496
608
192
256
-896
-752
-480
-544
224
0
2016
256
224
64
1488
320
-848
48
-64
-320
1184
736
1488
-96
-1280
-352
-752
240
144
112
-368
-352
336
-512
-528
-1328
1376
-80
176
560
-544
-176
1632
336
-288
656
-160
992
-112
-768
-640
-640
-896
688
-48
-464
-176
-1296
-768
-240
1264
-288
-896
-448
-496
-80
-16
256
64
1472
32
-1872
-688
-16
-1232
1392
-768
496
336
-304
288
1216
-1296
-1248
-160
304
-1232
-960
176
1504
-144
1952
464
1248
320
1136
880
-304
-1056
-1120
240
-272
-1568
-720
-400
-432
-400
-704
736
-800
-1328
-192
480
-1488
848
576
-816
336
272
-1792
-2048
-912
-896
-432
-512
-592
-704
1264
-48
-432
-384
544
480
-608
-1408
-1488
48
-800
160
1936
192
1344
544
-944
-576
-608
-768
592
192
736
848
1312
176
192
-48
-368
800
-816
-1712
-1680
-160
1440
1328
-1568
224
-32
-336
1040
160
-544
-1104
64
384
544
-16
864
-592
-288
848
720
-336
-1088
-960
-1664
784
496
-240
-784
-528
-64
1120
-560
-1824
-1008
-32
-752
-320
-784
-272
2032
864
-336
-1808
-512
704
144
1072
720
-944
-896
720
1056
-960
-416
-352
112
-624
544
688
-224
368
208
64
1808
1024
1280
1344
-512
672
1392
752
1120
-240
720
-432
-240
-160
-64
-272
-1184
-400
-1872
32
-832
-224
896
1216
352
1312
176
256
240
384
-368
-496
-624
-1456
-16
-336
-816
-1552
-624
1104
528
160
352
-608
128
-432
-832
-496
592
-1648
-992
-656
1312
1632
784
912
496
272
304
784
816
-288
464
1648
1296
1312
1152
640
-1184
560
752
1328
272
32
304
-1488
208
416
544
-528
-1264
-256
1472
560
-144
-80
1216
832
816
-576
-208
-336
-1168
320
-288
-48
1312
864
-720
-672
-272
1120
-1152
320
288
-864
-1424
-944
944
896
656
-432
-304
-1280
32
896
1808
-64
304
656
1520
1600
80
288
-832
1280
352
160
320
304
-448
-1072
-416
-896
-64
-944
-384
-864
-160
1200
272
-128
-880
-800
-608
-1600
-1168
496
992
0
288
64
736
640
-1248
960
704
-832
688
-592
640
-112
32
48
-192
-688
368
-96
-240
-320
912
208
-1328
-496
1136
160
-608
-816
-192
176
336
1392
784
64
656
1872
1056
-416
-672
0
-336
-1008
336
-256
48
-256
160
144
-352
-976
176
-656
-672
384
208
512
336
-448
-272
-800
-64
192
1280
1184
1136
336
-848
-16
432
1792
-336
-1008
-464
512
992
720
1472
1456
944
496
800
464
1024
0
32
-1168
-1056
-352
-256
-16
-624
-1440
336
288
-608
-464
-1904
656
96
368
848
-416
-160
160
784
864
1888
432
-928
1168
64
-144
-624
-1840
-1632
-592
688
-256
-64
1488
400
1648
576
592
-256
688
1872
336
-320
672
-480
-448
-224
-112
-368
1456
608
-1136
-352
1024
-496
-560
-1088
208
848
704
-704
-1616
112
1584
464
-784
-1072
128
1056
-832
-256
352
560
-320
-560
-448
672
400
-368
592
1808
1072
-576
-1584
-544
448
-240
320
-160
1280
1216
688
-256
-240
-1504
-2016
288
-480
192
160
0
272
864
-512
-1488
-544
-208
-336
-1440
352
912
592
800
336
928
1168
1024
384
320
-48
-1152
352
1488
624
928
192
-304
608
848
1824
384
-784
384
1648
240
176
-1680
-416
1088
992
-176
-1360
-1664
-208
240
608
224
-96
2000
1744
608
-192
-416
-624
624
480
-16
-400
416
832
-704
-1104
-560
-528
-352
-1744
-1456
432
640
1440
256
-96
288
864
-464
-656
208
-1216
-928
-160
256
1776
-144
-640
336
416
-160
1680
-112
496
-1248
-336
64
816
1264
-560
1760
400
1696
-624
352
80
-816
-2016
448
-240
-720
-560
-1440
576
656
-576
16
-592
-848
576
480
416
1200
672
208
-608
-800
-1232
464
1840
496
624
64
48
656
-576
-1408
448
1216
1888
560
512
-304
-1072
-64
1552
1072
208
320
976
-544
-1152
-464
224
784
-176
1792
-480
-928
-272
-112
-112
944
-464
-128
-672
-1216
-368
-224
-944
-128
816
-528
-544
-48
-1312
-1056
176
208
-864
-384
128
-304
-544
1264
944
512
848
1360
-176
-816
-976
880
240
432
-304
-1248
-928
-1344
-80
896
-1280
-1424
-560
0
1536
1968
128
-1664
-320
-1744
-1536
-272
-2000
-432
-1440
128
640
464
16
80
-320
720
1904
-32
-816
1584
-864
720
304
688
240
144
-1312
-1168
-816
-1664
-1344
-1024
-704
192
64
1376
1568
0
-768
496
128
1616
1664
32
-416
-528
-624
-1520
-288
-208
-1488
768
2032
48
1712
1168
720
96
752
1184
1408
352
-320
1024
1488
-544
-32
224
224
304
1088
816
-720
-32
-528
512
16
-832
1424
1088
1280
-192
320
-208
704
816
-752
-976
-832
-368
-1952
-1424
1280
1024
608
192
1120
1104
2032
-1024
-320
-1024
144
0
-176
-1152
-896
-1904
592
1776
-336
-896
-640
-400
-1008
-1344
-16
176
-1872
-912
-1680
432
-992
-16
672
-1376
320
224
1040
-1088
-1040
-1104
560
432
1056
-304
-640
1472
576
-496
192
-544
-1120
912
1376
1232
1408
960
-1168
576
1456
-160
48
-528
-1328
880
-384
-80
-240
1056
80
144
912
-592
-624
-864
-112
304
432
176
960
-1008
-1520
528
-112
368
720
-1264
-288
1840
352
-608
288
96
-1168
-1776
-368
-336
-2016
-1168
-304
-416
-208
368
-784
144
992
-1712
288
448
96
832
448
-432
-800
1280
-528
320
192
-112
-336
592
720
-1680
-1872
-256
-144
656
48
144
-720
-400
1168
-160
-512
832
688
-304
-272
-1008
-848
-528
-1552
-368
-640
-448
1184
304
-672
-528
432
160
-1552
-656
1392
1392
448
-1008
-1312
-1104
-848
-192
704
-1168
-144
-944
1184
1632
368
-448
-208
-1344
-416
-1856
-464
1056
720
1184
1456
1552
-496
-240
-688
-176
640
1648
-208
-1440
-464
1104
-1040
-1120
352
224
1088
-464
-96
800
-48
400
1440
1232
1168
1456
1056
-240
-240
-112
496
448
832
-448
976
896
1072
-32
464
-16
1824
-352
-1168
-368
-384
-976
-496
-608
816
752
-1968
-192
-1600
-560
1136
-592
-1664
-1200
-1200
-1824
-1200
-224
240
-864
-240
624
-384
-400
-1376
-1552
-160
1472
0
-64
-1184
-384
-1088
-1824
-720
-288
208
-1168
-464
-256
-832
176
-864
-288
-1264
-192
352
-1184
-1856
976
-752
-1024
-16
240
704
-800
-368
1904
-256
1056
112
-768
1424
816
-1248
-1360
-1424
-48
192
752
-480
-960
176
688
2016
736
-1088
-1296
432
-912
-1680
-1360
928
-416
-1616
-976
-784
-880
656
688
1968
1408
144
896
496
1072
1136
-112
656
1184
432
32
-992
-720
448
1104
-608
1184
1312
352
176
112
1504
1392
-80
-16
800
1168
464
1968
928
480
448
272
-592
416
-384
-1360
-1088
-672
-464
-848
1904
1680
896
80
-592
-1440
928
64
464
-80
368
896
928
1472
1200
144
-128
-1744
-768
-224
-384
-1984
352
624
224
1312
208
624
352
1120
-448
-896
-128
-240
-448
-1008
-496
240
-256
1472
1584
1040
80
1424
976
-880
544
1504
64
160
464
624
-320
992
1136
528
1072
1232
-128
-208
-304
0
-1056
-1760
-1184
640
32
64
240
688
800
-1120
-1104
-704
848
272
1056
-80
-464
-832
-1648
-1536
48
432
-1120
-80
-384
-624
224
1392
-1376
-608
-1120
-720
-80
272
384
976
96
-48
960
1584
48
464
1472
432
480
224
1008
-96
-272
-272
1328
-640
-880
448
-784
560
-80
-1040
896
-704
-288
112
-448
272
192
-1360
-1856
-1504
1168
112
-784
-1792
-1936
-2016
736
560
-256
672
-304
928
1776
-640
-784
240
288
144
768
-32
480
-208
144
-640
-288
-1376
-32
224
-1440
-1056
-64
160
320
336
0
-1520
-16
-1728
224
-928
-1856
1440
752
-480
-848
-64
992
960
176
-144
-144
0
1168
-512
-1744
464
496
-384
-96
-736
-2032
-80
-880
-864
224
-1472
-1552
-1520
-1248
-1200
304
1392
1264
992
688
-1120
-752
112
-528
-720
384
96
-688
-688
-1040
-464
-912
-48
144
240
-64
-624
-1088
-48
-528
256
-528
-1344
-976
1088
544
448
288
224
128
1440
1280
256
64
800
1696
1168
816
448
560
208
416
-16
656
208
-688
-352
-1472
-384
-224
-128
560
1856
-944
-272
912
48
1088
-176
688
80
-64
-1232
-256
768
-1776
-848
-736
112
1664
800
352
624
-480
256
-608
496
1408
-1312
-448
-1440
960
1184
-1424
-224
-864
1152
336
-608
-112
560
-464
-528
-256
-160
432
528
-288
992
624
336
-400
368
-576
-1680
-352
-128
-160
-48
800
1888
976
-1808
640
1344
560
-480
-960
1120
1088
128
-416
704
1568
480
544
1104
192
-944
1248
672
-448
-32
208
1456
624
-192
-464
128
-672
-1232
-1248
-1024
816
704
-640
-2000
96
-48
1440
784
1632
64
-832
-752
-592
128
-176
-624
96
432
-144
1184
1440
-48
1200
-1152
-1600
1840
96
-240
304
1792
1200
2032
1568
-96
-1488
-208
1168
816
1456
688
-672
336
192
-176
-288
-1552
-1184
-528
1392
1312
240
-32
336
-736
-704
-496
656
-352
-1120
-880
528
720
704
1024
-880
560
-320
-912
-448
688
1648
-1424
-1520
-224
-352
-96
1280
-368
368
848
544
448
224
800
80
2016
224
-1376
-304
-304
576
208
-400
-320
-496
-16
1280
272
368
-608
-96
432
-48
816
1024
1856
-944
-416
768
240
1616
160
416
1264
-1392
-1632
96
944
1616
1408
320
-816
-1712
-736
-32
624
-656
-272
-464
0
-704
-448
-832
704
752
-1024
-112
576
304
-336
-96
720
-992
112
-576
-432
-944
-688
-896
-128
-2048
-1904
-352
-384
-1648
-224
-1104
224
-1328
-608
-464
1504
1648
816
-1488
-1072
368
528
288
-432
144
-576
-576
-176
64
-96
-736
-1792
-720
400
-16
-896
560
-480
-176
864
416
816
-416
-624
1328
-656
-944
-272
816
-480
832
-240
32
112
-544
-528
432
-1040
1440
240
1952
304
224
0
-160
384
192
-784
-64
-240
-640
-736
512
1456
-48
-1088
-80
384
224
352
-608
-1776
-192
-304
-432
160
752
1232
1104
1472
-1184
-528
-1248
-144
32
-496
-400
-352
-96
-1056
-288
800
64
-1728
-416
1184
656
-1232
-352
-384
96
896
1184
688
1312
816
1120
-416
-320
-288
48
-416
-64
-160
-240
128
1616
48
144
-976
-480
-960
-96
1424
-960
-640
448
416
1456
192
480
-112
-1072
1104
928
288
544
0
-960
-768
-144
992
1232
848
-800
-272
-32
784
-1264
-1472
-992
-384
672
1072
240
-16
-976
-320
-720
640
1264
-1504
-272
-288
-528
-192
304
160
272
240
-704
144
736
144
352
-320
-784
48
-368
752
64
-304
-2032
-1936
-176
-160
-352
416
720
96
800
-448
-96
-1152
-1888
400
-368
-1968
-1664
1120
480
-496
192
-448
256
160
832
336
-1536
-32
-1264
320
672
1664
32
-1424
-1568
688
736
1536
-784
-1600
-608
-512
-688
-1392
-592
1184
1040
-288
96
-736
-1056
128
1680
1904
496
-160
-640
-1680
-80
688
1856
-1024
-1056
1408
1216
800
-592
160
-800
-1280
-208
-128
-1616
-704
208
-592
128
-336
-352
-464
-32
-848
-1840
-1792
-16
-1088
-384
-224
32
0
1552
1664
1056
-1040
-160
1232
1648
608
144
160
240
736
784
208
144
-288
-1088
528
-224
-720
-48
96
1712
592
224
-1440
1040
-640
-112
1728
-544
256
16
336
896
304
-1024
-848
-752
256
1984
1408
688
1344
-256
1904
1744
-208
-784
480
1552
1008
-672
-1936
848
1584
1392
1328
2016
-576
-112
464
-336
-464
16
-224
1120
1376
-560
-144
-992
-64
288
672
-320
-864
224
-656
-16
-1376
272
-432
-784
-704
-1552
-1520
-816
1888
784
1168
288
1072
1488
192
240
480
-1104
-1136
-1136
-1888
-1440
-1792
-1136
928
560
1568
-672
144
1408
-80
-960
-464
1552
1552
448
352
1744
-688
-336
-1680
-1184
-1536
0
208
544
80
-1424
-160
-176
-1632
-912
592
1200
-768
-608
640
-320
560
1856
1200
256
-992
-464
-464
-1312
576
1536
720
1712
1744
176
288
256
688
272
1184
1248
-976
-64
896
544
112
1808
-512
624
752
-400
-1520
-1504
-624
928
1136
-384
-1072
-1648
-1568
-1104
272
752
704
-1040
-1264
-752
-1104
-784
-32
560
160
1184
432
-1056
-864
-1776
112
896
-784
816
1168
752
2000
736
-1936
-1216
-48
1584
1232
752
-656
-800
624
-656
832
112
-336
-1872
-1376
-880
-1664
1152
1232
896
1184
96
480
-656
-608
-1600
-1024
864
800
1440
-1600
-1456
-848
-1168
-400
-1424
-288
-1280
-1824
-1776
-1136
-1120
-240
640
592
-640
992
272
-1056
208
1248
1376
-736
-448
336
1232
928
1312
256
64
192
1216
224
-272
1504
688
-560
-112
352
928
-96
-416
-768
-1072
-1216
-1536
96
-912
-1456
-1056
688
368
-848
-1264
-1808
-304
-656
-96
-240
-512
0
-880
-1632
1216
1296
1952
1008
-480
432
-1744
-928
-64
-912
1280
-1024
-496
-144
-448
-160
-832
896
464
1168
-352
-368
1104
352
-32
448
1520
240
-624
1888
-1648
-1472
-656
-624
-1504
208
-576
-1312
0
352
496
1104
688
176
-400
544
1536
-64
-16
-288
-1552
-96
-1008
-592
224
688
-688
-1344
-464
688
0
416
1488
400
-112
-1264
-864
-496
-192
864
-736
-64
336
-1024
-1200
752
1200
1344
256
-288
-560
-592
816
512
-224
-48
-560
208
-336
112
-560
-1072
800
1904
272
-208
-912
-464
-1680
-176
608
848
-400
-1104
112
1440
-432
-176
-1248
-960
976
64
-1104
-672
-944
-96
-176
-864
-48
-432
-384
608
384
1216
928
-352
-496
-1248
-192
-1296
-1632
-880
144
-736
1184
1072
-1264
-432
-512
-912
-592
-1040
-336
672
944
208
-144
176
192
1296
96
-208
1792
448
-688
-992
0
848
1280
976
608
-400
-1824
-288
-672
496
1072
784
240
576
288
880
-224
-736
-384
-496
-96
176
-352
1024
336
1088
-32
-384
1152
-432
544
1936
1568
-784
-1616
-1280
-432
-480
-176
-448
80
1232
1776
512
-896
-1968
-848
-592
-1088
-16
176
608
-800
1248
48
1536
0
1472
-144
-1072
-1344
-1968
-1792
1216
-288
-672
-208
-1248
32
576
192
1456
864
480
1472
816
384
1040
832
-736
-864
-64
192
-784
48
-608
-176
-1296
-1888
-688
-272
-672
-272
-656
48
-1232
-464
-272
336
576
1584
320
784
208
-112
-64
-624
-1312
-432
-864
-736
-1776
-432
480
800
-352
-752
-176
256
1328
-336
-1168
368
-336
400
928
-304
688
864
-256
-1776
-464
768
-272
-176
80
1264
240
32
-544
640
816
896
528
240
-240
-416
-752
-416
-1072
304
-208
160
-704
-944
-976
-448
-288
-1552
-1344
-512
-272
-80
960
1168
1168
176
480
-336
-1024
-1344
-1264
-1264
-192
64
1072
-464
-336
256
2000
320
-32
-1344
-64
-1248
1360
1344
752
1136
928
-736
-784
-288
112
-96
1152
-112
320
-336
-336
1056
560
-96
-512
-80
32
336
-352
-1504
-208
1312
1024
-512
960
-1472
-1216
-16
176
-816
0
496
576
1216
656
1072
-1008
-880
1152
1088
448
160
1312
1008
240
720
672
624
-512
976
256
-1504
304
-576
-1392
-880
1488
1376
1056
864
1216
2000
1120
336
800
-720
-464
-1456
32
1616
784
512
208
1568
304
352
576
640
-112
-288
-1696
-1520
-1360
-1360
-544
1184
-672
-1072
1056
192
-432
-848
416
-592
1056
80
-1072
-448
-1904
-1520
592
432
864
608
928
240
-336
768
144
688
272
-288
-976
624
1088
784
-1568
384
928
960
1040
-112
-1280
-880
-976
-992
80
1328
848
112
608
240
1072
528
-1536
96
-464
1056
1120
656
-256
1648
-400
-784
1440
1936
-656
-704
240
-144
-400
-1568
-624
400
-768
-1440
1520
128
976
656
-864
-560
224
1136
176
1584
912
-864
320
240
560
1328
1088
176
1328
-528
272
-352
-688
-880
-960
-1568
-1232
1072
-240
-128
240
432
-432
-768
816
512
-1136
-576
192
528
112
272
784
208
-208
-16
1440
-160
-144
464
1024
1184
672
-208
48
1488
336
544
1008
1920
768
-1248
128
1376
1120
544
-272
432
800
336
-944
656
1760
720
-1488
-1408
-736
-352
656
432
336
208
432
-1840
-48
1072
1664
-448
528
352
-1488
-640
1632
1232
544
-1472
-160
-432
-928
-352
-1392
64
-560
-32
880
1120
-1072
-464
-1008
272
1424
1072
-496
400
672
2000
288
-656
80
576
-784
-192
1008
960
-336
-1488
400
-640
-752
1488
1056
288
128
-64
1584
96
1008
-1216
-352
688
-1856
192
-16
-1104
128
560
-512
-608
-1648
-1920
-768
-752
592
240
464
400
1712
976
48
-896
64
-272
-1088
-544
-832
-80
-816
-736
-896
-1872
-112
336
464
-496
-1232
576
592
928
-880
-512
960
912
16
1104
-528
-112
-896
80
-832
-1216
-256
560
-592
-544
544
336
64
-368
-544
672
-224
1808
1104
736
1936
-688
-400
576
-208
768
208
480
-1408
-1264
-848
-1456
-960
-976
-448
-432
-1008
-640
-96
-192
384
1136
1184
-16
-2016
928
224
-912
-816
-80
144
-512
-304
64
-800
-1216
0
-1840
-1440
64
-352
-1728
-784
-1584
-240
-112
624
-288
16
80
-336
-1104
-352
976
512
-672
-1200
-1664
208
368
-1280
-1216
-496
-80
-1072
-656
-1168
-176
-752
-1136
-512
-848
-320
1088
1088
864
-128
1152
1760
1424
-64
224
-112
-512
944
64
160
176
-592
-624
336
256
-736
-1168
-640
-1056
208
608
-576
-64
-1248
-1792
-1184
400
-96
304
-96
1104
-384
944
-192
-16
800
1200
352
-1232
-1552
576
656
1040
-144
-800
-1360
-48
0
240
-512
-16
-816
512
1152
-1680
-1584
-576
-96
-512
-80
256
384
-528
-1488
112
-1808
-560
-1152
-48
-976
-272
272
720
-672
-48
880
1056
1152
352
-240
-544
-1648
-1216
192
144
1120
-352
352
192
-112
944
160
640
896
752
976
1376
256
-832
-96
640
-16
448
1088
1856
768
-1280
448
-272
-1168
-384
544
-496
144
-720
-1680
-48
-160
816
1984
560
16
336
528
144
688
-272
1200
1856
1536
240
640
32
352
480
464
-416
-96
-368
-656
-464
-1040
-1056
976
-528
-96
832
-624
-896
1552
1152
-528
-1552
-528
48
96
-560
208
-480
-1120
-544
-416
400
-304
-576
-1184
-784
-1408
-1200
-1520
-1760
448
-256
-944
-1120
-320
592
128
784
-336
-816
-480
-80
-192
-160
720
-1248
-1680
-688
-896
-112
672
-1248
784
-1168
-1184
32
-16
-464
-320
272
-192
400
640
1472
96
1072
1472
1136
-416
-1808
-1888
-1136
-208
-352
-1088
1680
1680
-512
-1424
-320
-1824
384
192
-736
-624
-464
208
-128
-192
-864
80
704
272
-336
400
1472
432
-1296
-1120
-688
368
496
960
256
528
1888
1712
720
112
784
-1408
256
1056
1952
720
304
-704
-176
-128
-64
-160
-1024
-1904
624
848
-224
1584
1024
-368
-272
336
-992
-896
-1072
-1488
-544
-1280
112
-16
-288
544
320
-656
304
736
928
-880
-544
1344
912
-592
64
-80
-1136
784
112
-1712
-1184
-112
320
1360
656
-80
-144
-848
-768
96
-912
-864
528
1024
704
2032
1792
-176
-128
-752
0
576
544
576
-640
-1456
-320
-48
-688
-304
416
1232
928
352
-176
400
-896
-1648
-64
-352
-112
1536
-672
224
-704
-1552
320
-960
576
1408
-784
-1104
304
688
464
32
112
-432
-416
1040
496
-352
288
800
480
-176
-1072
-448
-144
160
-944
-1024
-832
-704
224
320
576
-112
160
352
-160
-528
-928
-704
-1616
-384
1424
912
880
-48
576
624
80
192
1120
-480
240
-480
-32
-448
-96
-144
304
-1424
-16
48
1056
576
-1024
-512
528
1728
512
1552
704
768
1424
928
1008
160
1264
816
-256
1136
-1168
-432
0
1248
1424
448
-1568
1200
1136
224
528
1824
-416
64
1424
960
1360
896
512
64
-432
192
464
432
768
-976
-1440
-1312
448
1776
1584
416
112
1824
592
944
1008
-448
464
992
1264
1760
1744
1616
1408
208
-1440
-784
-528
-704
-752
208
480
1552
96
272
864
1744
-32
736
-1008
720
-1680
-1328
224
592
1920
176
704
48
224
624
-848
-672
-640
-1808
-1200
-1936
-1088
784
1312
-800
1616
-1008
-528
-352
-32
-128
960
896
-176
688
816
448
448
-464
-640
-416
-144
720
1760
288
-608
-864
-640
-400
-64
-1824
-1328
-400
-960
-208
544
-784
-624
-1088
-1312
448
-208
-1872
-464
-608
-448
-560
96
1184
256
-16
-1712
672
1024
2032
368
-608
336
-704
-1088
-16
1200
512
16
-448
-1600
-160
-1024
-384
1296
-256
64
-1072
-688
-1392
-80
-464
864
-320
400
976
368
176
-640
-336
-256
592
1904
720
-432
816
1872
688
896
-672
-528
-592
-1328
1600
1056
240
1264
1024
-752
-1072
-736
-1168
-1456
672
1264
-960
608
-416
416
1056
-1616
-1648
-880
-320
1696
-160
-112
-1184
-720
1152
608
-496
-832
48
400
208
944
736
1456
-96
-688
464
672
176
80
-144
672
1088
320
1808
64
368
-112
-736
48
1360
512
-1856
-1840
-1088
-640
-800
-480
192
448
560
272
1248
896
464
112
-496
-1856
-1712
-1296
-736
-80
-1184
-480
-848
528
-96
384
464
-16
1376
-208
896
-320
-208
144
-352
-1296
-416
848
864
304
-128
768
-336
704
720
880
112
576
1184
384
960
-800
-640
960
96
-800
96
1600
16
-896
-848
-272
-656
-256
-384
-2048
784
176
240
368
-256
16
512
128
1728
64
-928
-1120
-976
-320
-640
-112
832
672
480
-800
-80
-1008
-320
-176
496
1424
-368
-1056
1520
1920
-864
352
2032
1120
336
1248
848
1040
816
1216
720
-320
-272
416
-224
-1136
704
0
1440
800
1072
288
-224
928
1264
1968
1056
576
768
816
-608
-912
288
320
-1120
1024
464
1024
480
240
944
320
256
656
672
144
16
912
752
2016
160
16
-560
-1296
-640
928
432
704
736
1936
1088
-624
-96
608
-384
-1232
-384
608
-960
-1360
-1328
-1680
-624
720
-352
1376
1248
816
1728
1040
400
-144
928
912
1840
912
1712
-480
-224
672
1792
48
-112
-1344
1040
176
368
544
-464
-640
-1008
-1472
672
112
224
128
-1088
-288
1824
464
512
272
896
944
-208
-768
-240
784
752
-208
576
1280
496
1744
-192
-144
752
928
-160
-1472
-400
1344
208
-240
-688
384
-304
-816
-704
-704
-544
-272
-160
-608
-496
352
1712
1056
240
704
-592
-144
-528
400
-112
-336
-208
-720
-880
720
1232
800
1632
1872
32
-1328
-1488
-80
-592
-16
1936
496
144
32
-16
736
-384
800
1616
800
0
-240
32
-816
-272
384
-1056
336
880
752
-256
0
1088
464
912
464
-320
-48
-1344
656
1344
1104
1008
160
912
544
720
-80
-464
256
560
-496
-1280
1280
-336
-480
-416
448
-432
-896
-1440
-720
496
272
416
-1232
-1264
448
784
1248
-336
-256
-1488
-1200
-816
-1568
544
48
704
-816
-160
768
1104
-144
-416
464
-112
544
704
-304
1056
-880
-112
1456
-256
544
-224
512
32
-240
1392
288
1072
-320
1104
-800
240
-576
1232
992
1408
-272
496
592
-320
432
320
528
208
1792
1056
-448
-16
1040
96
-64
1520
1648
-656
-688
656
-1888
-320
672
-608
-832
-912
-608
-1120
560
-592
-656
-800
-480
-1104
-320
-144
-1056
272
1328
864
848
1248
1904
1520
1680
1344
-656
-944
-640
-816
1280
-384
-1920
-688
-1104
464
256
128
-192
-64
-272
-1008
-1920
-560
-240
-1424
720
1760
544
-1536
-64
64
1104
-144
-992
-880
784
896
720
640
1616
160
-608
1120
-784
736
1632
80
400
1552
80
-704
-400
496
448
1136
640
-432
880
-480
80
-1040
-560
-864
-512
0
224
976
-544
960
704
-848
-1296
-816
224
-1328
-624
80
1488
1424
1040
832
-528
464
832
2000
-64
880
816
80
640
-880
272
1552
240
-656
-128
-352
-2032
-32
1664
768
672
608
384
592
688
224
576
768
160
496
1536
880
-800
-1040
-704
784
1888
1680
-1392
192
496
-96
-1376
-1984
-48
-144
336
-1568
-1872
-656
-128
-1072
1152
416
-384
-640
-496
1344
960
288
-208
-1376
-240
-1024
240
832
-1008
-1200
1248
1008
-240
-1392
-1728
528
880
-96
352
-1184
-432
-144
368
-864
-1344
96
192
608
192
-656
-320
0
-848
-144
-1536
-1328
-496
944
928
1056
-160
416
-912
-1008
336
-1472
-16
-544
192
1456
-176
-464
-656
-576
64
-1072
-144
480
16
-880
1296
368
-976
400
848
224
-128
-1616
-1120
1040
256
528
1216
-272
-1648
64
-1568
-1440
-592
192
464
304
-704
-576
-1024
-384
-240
-1568
224
-128
1600
160
1648
-288
448
864
448
-1120
336
288
-624
32
512
-1104
896
-608
-1504
-992
-192
1600
912
-288
800
1888
336
-128
-608
-32
-1968
-272
-128
-1072
-800
-1328
-560
736
560
1216
-800
-1808
464
784
-1232
-80
-16
368
-304
-304
-800
512
128
-48
208
-480
240
560
-768
-848
1968
2000
1280
-80
-1552
-832
1120
-704
576
-672
-672
-544
1168
80
1232
-224
720
1568
384
800
912
160
-1488
-816
-720
480
800
-256
-2048
-752
32
-544
-144
-528
-288
352
384
1552
608
1296
304
160
176
336
656
1984
1152
-64
-32
-304
224
224
-544
448
-352
496
-896
1040
784
672
528
-208
144
-1056
-368
16
592
1296
-128
80
560
32
1344
1776
912
784
-784
-16
-480
-592
1760
-544
-624
-1104
-80
-1040
-656
-48
-128
-1344
-864
0
-432
464
-400
1008
448
1344
352
-912
-1008
400
-624
-752
800
-224
592
1136
160
-224
-160
1504
944
64
-176
160
-1440
-1392
-352
-1360
-1872
-1872
-1824
-112
496
640
1664
32
-544
0
320
256
-448
-192
-608
592
-1424
-976
-832
-1072
-1552
-1056
1456
736
16
-496
-432
-256
1040
304
432
224
80
-1440
0
1408
1904
1392
736
-640
720
-144
880
944
-1536
-624
-1984
-1840
-752
-912
-720
464
1152
576
-400
-1168
-48
496
1344
640
64
688
672
656
752
-144
-176
464
1680
848
976
1264
-320
-1616
-464
80
-832
-752
-1024
-1168
-496
1776
736
736
192
672
272
-560
-736
-256
576
-544
-48
48
-16
-816
-368
-336
64
880
-720
-528
-448
-896
-880
-608
-1536
-1296
480
1632
640
784
-32
-1872
-512
320
-672
-96
2032
1488
176
-1712
-368
704
320
1488
-128
80
416
-1600
-1728
-1984
-1088
-928
-32
208
-1136
-624
48
592
304
-880
-416
288
-464
-80
112
416
1664
1264
-816
-1664
64
1648
96
-1152
-1040
-1520
-1024
480
-880
-1168
-80
-448
-768
-1360
-48
560
-2032
-1552
320
-1200
-672
-576
432
1872
1712
-1680
-64
1520
1552
-544
-144
-1216
-896
-352
624
1408
1472
1520
-96
592
1472
656
1120
1120
256
800
928
-256
384
1248
112
-480
-1184
-32
-336
-224
-752
-1616
1296
112
1120
32
-304
304
-352
-1120
-512
464
416
1760
-16
-320
-1232
-416
992
144
1456
0
-80
1024
-400
-640
-816
224
416
480
-256
-640
-80
-944
-1008
592
2032
-400
-1296
-784
816
624
-656
-368
-1856
-560
304
1184
1824
1696
-2048
-416
-1568
-1296
816
1680
16
-96
592
192
-1424
-656
976
208
1376
1040
-784
-240
80
1120
800
-944
-1152
-1216
272
416
368
1040
768
304
160
-864
-320
-1744
-160
976
1520
-1072
-464
-1216
-704
-1968
-736
1584
752
416
-704
848
256
1072
-352
-768
-1552
-848
-112
-432
-736
-768
-912
-1056
-1424
-1104
1680
976
592
160
816
1520
-1536
-1104
-1008
1520
1376
176
192
304
1760
656
16
-1264
-1520
-80
-1472
1024
-1072
-368
112
256
-1728
-1168
688
96
-1104
528
288
-1472
1520
1504
528
1888
1616
-96
496
-576
-800
-400
-112
-48
1040
-368
-816
-16
-384
16
-704
-112
-960
-1024
272
960
-64
496
352
448
608
1408
1776
-1808
-32
912
-336
1184
-192
-240
832
1296
-560
-1264
544
800
272
-400
-656
-176
304
-688
-608
1776
-192
-192
192
464
80
704
272
-560
304
496
-736
-1264
160
1440
-448
-832
-592
640
1024
496
-64
-464
-1184
144
1120
176
496
672
-1408
-2032
-1504
-368
-1360
-1840
432
576
368
-464
576
-224
192
832
800
208
-640
576
-544
-1376
-848
-832
-496
928
1056
-688
-496
-1488
-1680
208
192
-1312
-1696
160
-640
-1872
-336
-704
-336
-192
832
-560
-928
704
576
-480
656
1104
-96
-656
-592
-1088
976
1360
-704
288
1136
320
1168
864
1088
592
-64
-768
80
1632
512
272
1568
912
-288
-576
-112
-480
160
656
1376
320
624
240
-144
544
-288
-528
704
-384
1008
-1104
-480
-640
368
-112
512
1776
-64
-1008
-1392
-1200
336
-208
-368
-288
-208
656
112
1296
160
384
1216
592
-16
-336
880
1184
640
224
-496
512
1008
992
-176
64
-512
-832
-1776
-1824
-800
-224
336
-80
1024
288
1312
736
112
1120
656
-416
-416
-464
-432
-1120
-224
176
-736
-1888
-320
464
-16
1472
48
688
1184
-224
-912
16
960
544
-1296
-112
256
464
640
-320
-656
-864
-720
1216
1216
1104
-656
1232
720
-624
368
1072
768
832
-64
16
-272
1456
1088
-1392
-528
1104
-16
-32
736
352
-192
-464
272
1600
1120
1424
-240
192
1120
768
-752
-592
-1024
-1168
-592
144
-160
480
192
528
-912
-208
-832
336
1024
32
-1376
-320
768
112
0
-624
-1216
-1280
-256
1584
416
-1248
-448
-448
-128
944
176
-80
-1664
-1840
-432
112
-768
-320
112
-48
-144
528
0
-768
112
336
736
-432
384
-624
-544
-512
-608
-960
1168
832
848
-576
528
1776
-1152
480
464
-256
-144
-192
832
-1088
-1680
-64
96
-560
32
144
352
-1760
-496
208
736
64
-288
-720
-1760
-832
-640
-256
-80
-544
800
-128
976
768
240
912
-176
-1568
-80
384
-816
320
912
1248
-560
-752
1104
752
560
-1376
-288
-288
-928
-832
752
128
592
384
-1744
128
1568
464
-192
-912
-944
208
304
-1184
-1616
-720
736
528
1424
480
-432
-736
-1152
-400
272
0
-560
-976
-48
1280
1808
576
1296
-320
-80
784
1824
1728
128
-304
-864
-1072
-1488
-1088
-80
-1040
-1360
-64
-1008
-800
480
-304
896
112
112
208
-1280
-1376
-592
-144
-928
496
1008
-128
-1312
-96
528
1616
192
864
128
448
896
224
192
-1312
336
1424
32
2032
912
-160
-64
752
464
784
848
1424
-800
-960
-128
-128
288
1664
112
-416
-1584
-672
64
816
-272
-32
1168
1232
-864
-1296
-192
-1280
1216
864
-896
224
-1200
-992
-464
320
816
-1760
-1408
1888
1296
-544
-880
-176
-304
912
224
-496
-96
-672
-1168
-112
-144
-416
768
880
-16
-768
272
-864
48
1040
1568
0
-736
-240
-160
-592
-384
720
-224
-1200
-1072
592
1088
-128
-368
-112
-64
-1792
-1744
-144
1536
160
64
-96
-368
-384
-256
-1536
560
1136
-1072
720
-544
-688
-736
-560
1536
-80
-512
-1280
992
1408
144
416
-752
-624
576
128
32
-1248
-432
-496
-1136
-752
-1344
944
-448
720
1360
-416
64
272
-1056
1200
-128
-1536
-176
-976
896
-704
208
-96
-496
-288
-1088
-528
-1360
864
32
-816
-864
480
-656
-1056
464
-400
-608
1680
432
192
800
-176
-688
-1232
-240
-1168
-1792
-1136
960
96
-464
-1584
0
-368
1376
-1088
-1968
-640
1552
1296
1072
-192
1136
1136
-752
-656
1296
1216
816
-544
-416
1040
992
1808
112
-128
0
-944
176
720
-224
-240
0
832
96
1328
0
544
-144
-608
-1568
-1936
1152
448
1424
304
400
640
480
1200
-288
-32
432
1104
272
-208
-832
-32
-288
1200
1008
-560
-480
-80
720
32
992
1104
-128
-96
-80
-704
-400
-48
-112
-144
1344
-288
-48
288
1104
624
-1296
-1680
-784
-32
416
128
304
624
1008
1040
-576
240
-1968
-704
-960
-416
1056
400
-720
-1712
240
-528
592
-1104
-688
-480
-384
368
704
880
-464
-160
48
464
704
-736
640
-1440
-800
-976
-144
224
544
-832
-96
-1376
560
80
64
240
-432
-1008
-1360
144
-1104
480
656
48
-288
-1984
192
528
-320
992
1136
1568
-160
-1136
-1296
128
592
-1088
-1552
-1600
512
320
-848
-832
-784
1104
-1744
-896
-208
304
-160
224
560
-1280
-1648
896
384
1040
960
-224
-640
-1744
-32
-208
-496
-1264
-208
256
-1792
-1376
-1824
-1360
-1312
-672
-1712
-608
-704
1408
1664
800
-64
-1760
-1440
-1424
-1312
-272
-416
528
-416
176
528
32
-336
176
208
-992
-688
-384
-160
768
160
64
-1024
272
-128
-48
176
112
1040
32
-304
880
1920
-16
-688
-1248
1520
-336
-1904
-1104
-656
-1472
-1872
-1200
560
-768
-1120
976
-128
-96
-832
-2000
592
576
1520
-272
592
896
128
-1184
-1264
-512
-240
-480
992
800
-544
-848
-768
-1024
672
176
960
-208
1408
432
-112
-208
-816
704
2016
544
-656
1312
512
864
1200
1904
928
-256
-1456
-1088
-160
-1760
-1264
-432
-1312
48
304
1136
640
-192
-336
-320
128
736
912
-496
304
176
224
256
1312
1744
768
-1808
-496
304
-432
-512
-608
-1264
-1552
-32
0
-672
112
1248
1440
-1488
-1520
-656
-80
-1744
-1728
224
656
896
1856
1152
784
448
-560
-400
-1280
144
-720
-1520
-768
544
-16
-336
-800
-1104
-32
-400
-16
-304
1152
320
928
-80
-1376
-1312
-816
-272
-656
672
-80
-336
64
880
752
1008
1216
-896
-1232
-1536
608
112
384
240
992
-848
160
1136
384
-512
288
1696
32
-112
464
-1264
-416
112
880
-1008
-224
240
2032
864
1808
1424
368
-112
-304
-624
768
272
640
-736
-1696
-992
-1280
-1664
240
160
-304
-1968
-560
1104
560
-192
416
176
1136
-928
800
208
-864
48
1952
1968
80
96
1296
672
-1600
-304
-1056
-1424
-720
-848
384
-1232
-1072
-640
-992
-688
256
-80
-544
1984
1216
-1248
-1008
-1296
1616
1808
912
-576
816
128
1440
-624
-480
-992
-1680
-896
2016
1056
-832
-1584
-560
-848
-224
1344
-592
-1008
208
16
1408
480
-704
-976
496
864
928
1136
352
-544
-1008
-672
-608
288
-144
1424
1200
1104
1536
688
1040
1024
112
-240
-736
-80
864
1216
-128
-1728
-384
-1056
-448
-864
352
688
1808
112
112
1056
1040
192
672
1568
-944
-1136
368
160
-1472
-720
-704
144
-240
-32
688
-1376
-560
1168
288
-416
-1264
1104
1216
-928
-704
304
32
-432
-512
-928
-416
-800
1296
1344
848
688
-1360
-1264
-304
960
1104
-32
-1648
-448
-272
-624
-352
-752
-1104
-144
1760
1024
-528
144
864
1408
272
-576
-688
1840
112
-1472
272
720
-128
-1488
-1904
-96
1648
560
1600
1568
880
1600
112
-384
-416
-144
-528
-512
832
-1088
288
1152
224
16
160
-48
992
192
-368
720
224
-1008
-480
-1600
-576
416
736
432
656
-32
-752
32
-624
-320
384
-1280
-1824
368
1488
624
-624
1152
-720
-1312
-496
1152
1824
176
-1088
256
624
-656
464
1136
1056
336
-192
208
1008
560
1152
576
-720
64
208
416
-1904
-1312
32
2000
-688
464
96
-816
-112
-640
-432
-1456
-672
-1264
-1216
-752
256
-1360
384
1664
864
1632
-384
-48
32
352
928
1632
16
1472
272
-528
496
-400
-624
336
304
976
0
-528
-336
-1280
-16
352
-224
-912
-432
-1248
880
176
1312
-1152
-1056
-352
-656
96
624
448
-608
272
-112
-592
480
976
-736
-352
1568
736
-816
1104
192
480
512
-1280
736
1392
320
-128
1488
848
1200
1456
752
-1632
-928
320
-864
624
912
-752
-1424
-1424
-1184
352
-1248
-32
-240
928
1456
1200
-144
-1776
-1648
-848
496
1184
-384
-432
-1040
-96
-848
-80
416
48
-864
-352
-1216
-1040
368
-192
-1600
-816
-1392
-336
-944
-768
640
448
400
112
1168
80
608
-32
112
560
976
576
16
-768
784
1168
-480
0
-384
416
-1168
560
496
464
-80
-864
-432
368
-304
-320
32
288
1600
1744
64
32
976
-384
-1760
-560
-48
704
-32
928
832
560
640
992
-1024
-704
208
-960
-1184
-1104
-1024
-1024
-864
128
-256
816
336
-1200
-1712
-1952
-48
96
720
1232
704
-1552
-1008
960
544
-1152
80
-336
-928
-784
32
544
1648
496
-1088
-1680
352
480
-144
-512
-1632
96
1072
512
208
-192
64
-1072
-304
-272
480
-1472
-528
-1200
-192
1216
976
-640
-528
-64
-992
320
-272
-384
528
-16
528
832
-944
-1664
-528
64
-672
-496
64
-416
800
48
-1424
-1184
-544
-352
-400
-16
-1712
-160
736
1264
416
832
-560
384
128
592
560
-896
-304
-960
416
992
-64
0
1024
720
528
192
-560
-592
-128
-1344
-192
256
496
-1152
-1504
-144
784
1104
560
64
512
-288
224
-336
32
192
-496
-864
-1536
-1072
752
576
-320
1888
-704
-1168
-288
-1728
-560
480
-96
240
1808
240
528
-640
576
224
1584
1568
80
160
-880
-96
-1136
256
752
1104
-400
-160
1504
304
144
64
-1744
-400
-432
-1024
-720
368
224
-96
112
-1280
-1024
1152
2000
1136
-1184
-576
928
-160
-416
-832
-640
272
16
112
-560
-240
-176
-320
-160
-1184
-816
-1216
-448
640
864
-576
-736
480
-352
864
-624
-1728
-1184
-736
-272
-32
-160
48
-96
272
272
640
864
-976
-96
1632
-208
-672
-32
64
784
-1280
-688
1632
1984
1696
640
-640
656
16
720
1648
656
832
1456
-80
-144
32
928
608
-688
-1536
-1296
-1408
320
0
368
-512
768
0
640
1520
-432
416
-512
1408
1552
448
96
1568
32
-656
912
224
0
-608
-1408
-944
960
464
624
752
176
352
-1152
-1504
1264
-672
-1824
-64
976
960
48
208
-560
-400
-352
-336
-432
-304
672
-224
0
192
1504
112
848
1504
-688
-1184
-224
592
-544
-80
-240
-944
-1248
-1360
-304
-1056
480
896
-1600
-1392
-688
-544
-192
-1264
-528
320
-208
944
432
256
1072
1264
1552
208
-272
528
-704
-832
-1344
848
560
512
592
1712
-128
-1888
-1616
-80
576
-912
512
-992
-1360
448
-656
-928
-1120
688
1488
128
-1328
-896
-1760
-1088
-1488
-448
-960
-208
704
432
432
-304
48
-656
704
224
-80
-496
224
-96
112
1056
1344
64
-512
-720
-320
-624
-1424
16
-560
432
1520
1264
848
240
144
-208
-32
896
1104
-320
-1488
-1408
-624
-576
352
-720
496
16
-880
-720
192
560
-1488
-1488
-416
352
1376
240
-48
128
-1264
1584
1440
-336
-384
-1664
-1680
-1216
-704
224
720
1296
928
256
-1520
-96
16
864
-32
112
-592
-1072
-704
192
-1376
-240
1616
1696
1056
176
-1120
-1280
-1584
-2048
-1440
-928
768
-752
-752
-48
-176
-720
-96
16
1296
-96
-976
928
960
-256
144
320
112
1040
608
592
1456
-368
256
-832
-1888
448
1024
1664
1680
880
1616
720
-176
-400
-656
0
-272
-32
-1040
-672
-736
544
672
-864
-16
-1376
-1056
-1680
-1376
80
80
-496
-784
96
160
-416
320
1936
-800
400
320
-672
-480
-464
-944
-1360
-1696
-880
-224
-160
-304
304
368
-144
960
1328
736
1920
1248
-480
192
1392
1472
464
1296
464
768
-1392
-1424
96
-560
-784
544
-560
48
384
416
720
1056
1488
896
128
-1728
-64
-1664
-656
-1984
208
-464
-832
-32
-416
-368
-96
400
-1696
704
-352
-544
-128
-96
-1216
80
1264
-80
64
-320
-1568
-1488
960
496
816
-608
-640
1056
1296
368
1392
-384
-688
-848
-528
-256
464
544
0
1472
64
-880
640
1728
1072
720
-16
-1824
-608
-1008
-368
-1136
-1008
144
144
224
384
432
352
208
368
-880
416
96
672
528
-448
144
944
-32
-560
464
-128
-320
-96
288
-1504
784
80
-304
-240
-736
-528
-928
-240
-176
-192
16
16
-912
208
1632
-480
256
1504
320
176
1104
1264
-512
208
96
1440
192
-496
496
-96
-400
-1376
-608
-1216
320
-960
-1152
352
-32
-400
96
64
-224
-32
-80
464
-624
32
608
272
-1552
-1760
-1104
-512
-304
-1024
800
-96
-112
-32
304
2032
576
864
-48
64
768
1264
672
-608
-1648
-384
608
1216
-864
928
768
-1008
-624
-288
-384
-1168
-624
272
176
-992
-608
-160
-832
16
1040
1488
656
-1456
-736
768
1520
400
1408
496
416
272
176
-800
96
704
688
336
-288
-144
-160
-1120
-192
272
1040
0
-288
-512
1744
-448
-448
688
64
-112
-224
-960
-1408
1312
288
-272
1232
928
272
112
-624
-112
752
720
-464
832
688
1904
304
1072
1872
-112
-480
144
976
1936
-512
-832
1216
192
992
1024
1056
-384
1168
432
1744
992
960
496
192
688
304
1312
1488
112
-400
656
640
-160
976
752
1936
272
448
-96
-960
-944
736
336
1440
96
960
-400
-1312
-160
-608
-320
-352
224
1984
96
336
-144
832
96
-384
928
992
608
-480
-192
1536
1104
1936
1184
512
1792
512
-624
-848
-128
-1328
-1200
-784
-400
-1056
1344
-128
-608
-864
1312
160
-832
-512
1184
832
784
672
672
16
-1328
-224
1136
224
-1296
-1312
432
128
-96
-160
-1664
-16
-928
224
-112
512
-64
-1120
-656
592
-480
0
-640
208
928
1792
752
1072
1296
672
176
-608
352
80
464
128
-416
-368
656
1280
624
-1360
304
592
16
224
1584
1072
16
-848
1376
-336
768
480
320
-48
1040
1104
160
352
1856
608
-368
-96
176
112
1280
-272
-304
704
-144
-240
-176
960
672
1008
-1104
240
-384
-1280
1280
-208
-368
-992
-144
304
-256
-480
-944
432
-1840
-736
-1168
144
80
-272
-1328
-1760
-704
-1536
-736
-1152
-800
-1360
-1408
-1120
-736
-256
112
176
-48
592
1264
1328
1264
288
1104
-112
-1104
-1728
-1488
-1552
864
-288
-192
384
-448
-288
-256
-720
1312
-416
-1520
-960
-32
-1888
-272
1168
224
96
512
384
208
272
-704
-928
-1136
96
928
192
-240
-272
-992
-1760
-784
160
1632
384
-64
-1280
-832
-352
-1872
-1808
-1392
176
-1184
-48
272
-128
288
864
-720
192
-1088
80
-1008
-688
672
1824
1168
256
272
-752
-720
-1184
-848
-240
-656
-496
-1104
-1136
-1952
-1232
1088
1408
-1200
64
656
784
240
1216
-640
-272
-656
528
112
976
-1040
304
640
352
720
1104
-1216
-64
1744
752
-448
-1376
-1360
-1072
-1392
-1008
-2000
-816
256
192
672
80
224
432
-320
-736
-1136
592
640
-1360
-448
1616
1536
96
1104
-592
-528
368
-880
80
1184
864
-144
-544
848
1216
176
752
-1184
-496
-496
1536
0
-640
1888
-592
-1024
-16
464
576
-240
528
544
-944
1008
-960
-32
304
1536
64
-1088
-1008
-2016
-1456
576
-624
-624
944
64
304
-496
208
-64
368
-912
-400
-528
-96
-560
-528
-736
48
-224
-64
240
-384
1488
0
-1056
-560
160
1744
96
272
192
-144
592
736
1280
608
1136
1200
-384
-1360
-1152
512
256
272
-128
-1008
-304
-688
448
48
960
592
-64
-1472
-288
-336
-16
-512
464
-1584
-880
496
432
208
-1152
800
656
-240
176
32
752
1008
464
-64
-1584
-720
-1200
-752
96
1328
816
1280
160
-160
-784
-1648
-64
-416
-1344
1168
560
-512
-80
720
-1424
432
-384
-1072
-704
-112
848
-576
512
48
-1472
-1808
240
976
-544
-240
-336
640
448
-944
-32
-496
-1008
-1184
-560
-448
816
-288
16
1632
272
560
608
-864
560
432
-16
736
688
-240
-656
-256
608
-448
-1040
-1008
-144
1312
592
-128
112
-768
-800
-656
1152
384
-496
-496
1984
672
-512
1168
1024
208
-1360
-1616
-1072
-48
1984
1760
352
-720
-128
-336
848
896
-448
-400
-448
-480
-1120
-1824
-1312
672
-368
-144
-608
-336
-80
-128
1440
1824
560
80
1520
-704
0
368
352
-1632
-656
-1408
1040
384
432
768
-384
448
-384
912
240
1040
112
-464
-640
800
-1440
96
416
-176
1504
480
-464
-976
-176
176
-368
48
656
-496
-1664
-1456
240
-752
1056
448
-976
-16
-64
176
864
624
-752
-320
672
-96
-272
-720
-1728
-704
272
-1200
-944
-960
480
864
-112
800
496
816
240
144
32
96
912
1168
-752
384
-144
-1120
-144
-976
-320
1616
160
944
48
-720
224
320
-432
624
-1376
-928
1088
1488
272
528
-80
576
1056
1616
-544
-64
-816
496
1872
1296
224
784
160
-736
-112
-512
912
688
96
208
-304
432
-928
-1440
-560
-176
560
-160
384
192
-64
-1936
-448
-1952
128
-512
-1184
-576
0
1776
96
1120
-1648
-1264
928
928
208
-1808
-752
32
1200
480
800
864
-96
-736
-624
1728
256
-112
1040
992
688
320
-1776
0
96
912
400
336
256
208
-656
-928
-208
112
-416
944
992
320
864
-848
-448
960
-448
-1584
-112
1344
-384
576
-1632
-1728
-368
112
64
704
544
-320
880
1136
1088
-480
48
336
336
384
-336
-832
-432
-1280
-1616
-1712
-288
1216
-96
672
144
1280
384
400
-928
-1472
-1344
-480
-400
-1312
-1904
-1200
-1072
752
-496
976
-592
-256
-896
-288
-96
-512
-240
416
-528
-128
-1056
-1424
-528
-224
80
-16
-416
-1104
-288
1360
448
416
1216
1168
0
240
96
-576
-496
640
1440
160
608
-192
-528
368
160
-1408
128
-544
512
672
928
976
208
-192
-240
-736
336
1056
-160
-112
448
-432
1120
1552
-240
1088
912
944
-1152
-176
-32
976
-48
-1184
448
-640
368
1120
160
464
1104
1024
1312
-144
-864
-304
768
640
-176
176
1296
-480
272
-2032
-1408
-480
-224
496
-64
-720
-224
-640
-1088
-1744
-1792
-864
-1984
-96
1760
-720
-544
-256
-1904
304
416
336
-720
-1504
-352
464
-1040
-496
-368
-272
-64
704
-544
1024
512
-784
-1648
-960
-688
-1728
-496
-400
-400
-176
-1072
336
352
576
160
-336
80
-16
384
560
-160
1792
1056
-480
-768
-528
416
-1104
-416
-1520
-32
352
576
192
688
176
1232
112
-848
-512
-720
-1296
-1296
192
-128
-816
-1408
-1648
-416
176
-448
-1120
-416
624
208
768
-960
-384
-320
-240
-1216
-848
-304
-1536
-448
528
-2032
-592
960
-432
-112
-1360
-272
-1792
-896
-944
-1072
160
-448
-576
-800
800
-976
-336
624
672
32
-512
640
800
1696
-1088
-1920
-368
-400
736
176
272
112
160
960
400
848
928
80
-352
-1248
-336
-320
48
1776
224
-192
-496
-208
-752
-560
1056
-528
-1072
464
688
352
-1632
-672
48
-576
-1280
-288
-1824
-1440
784
1536
928
-288
-368
272
-80
-2000
-80
448
-112
-1392
928
-816
-336
384
-192
192
-752
-1008
-1440
-16
-32
80
672
608
880
1728
-352
-192
-880
-1952
-384
-928
-1680
-80
928
-1280
-1216
-992
464
1616
-576
-1152
-896
-80
1632
240
-672
-416
-368
304
-1488
-592
-752
96
-1056
-784
-1200
752
608
-160
-144
-1280
-768
-432
-144
-896
-1632
-592
736
512
560
432
1056
416
-160
-416
-160
240
528
-528
-80
1968
864
-400
-304
-1424
528
1968
-368
-400
1280
-352
-1104
368
1776
1280
-528
-592
144
640
1136
1008
-48
-800
-592
-1696
-1360
-1440
-1760
320
-64
1808
0
464
-32
-192
-560
-688
176
976
512
1504
-240
-1968
-1344
-1520
-384
-1488
-464
304
-640
-1088
336
512
960
-160
-592
-848
-736
-1616
-352
960
624
416
-240
-1008
-912
-752
-624
-432
384
240
752
640
704
368
-48
-1712
-912
304
-1312
-80
-1024
608
-880
-496
752
-176
-576
-208
-896
-448
-768
160
80
-960
-144
592
752
-176
-1200
416
80
-1344
288
272
-1568
-1264
512
-144
-704
-880
192
944
1008
-1392
-880
-1424
-1328
-224
528
736
752
400
384
960
-160
352
-304
-752
-144
16
224
656
0
576
704
-1344
-1040
-1104
-704
-304
-1280
-1072
16
1184
2000
1488
-416
-832
176
944
352
-832
-752
-2048
-816
-624
-1456
-1728
-240
-528
1968
1616
496
-1024
368
-800
608
1232
1168
816
-224
96
-752
-880
-96
192
656
1488
304
-704
128
-1168
-1296
896
656
416
288
-720
-160
-48
1040
-1200
-272
176
944
1216
768
848
720
160
-912
-1424
-2000
-1072
-224
400
368
1600
1296
1168
64
128
352
992
-32
-224
-80
32
288
-160
-1088
-256
512
-848
-496
-432
-1040
-1936
-80
-176
-768
-896
-352
896
432
32
-688
112
-208
-96
-1584
432
256
400
-528
1216
1152
624
-1584
-112
-16
1248
1696
80
-1168
-1472
-160
176
-1120
-736
-304
1104
624
-224
-192
160
-368
-1632
512
1536
-560
-992
288
1232
-1168
-1632
112
800
-352
496
352
96
1376
1872
176
-384
1136
-496
-624
-192
-1104
112
-80
416
528
400
-320
-448
320
-32
-1184
1408
1360
800
-176
-48
-1104
-464
-848
-608
-432
-656
-32
528
144
512
-80
-880
352
-576
-752
112
160
576
1856
896
1648
192
-48
816
704
880
880
144
1248
704
-640
-368
-80
256
768
-1056
-192
-448
-144
-1888
-800
-1136
-1296
-336
-736
-1600
-176
-944
-1616
-160
-608
-144
336
1552
336
-944
-1232
-864
544
96
720
-608
-1696
-1152
752
1008
816
-16
-976
-768
48
-192
-1040
-480
-768
-832
-1440
352
320
-176
-800
-1520
-224
560
752
-144
16
64
-640
-864
-784
112
496
1120
960
992
1248
272
-336
1088
144
1376
1264
-656
1152
752
-944
0
128
-976
-576
-80
-1024
-1760
256
-416
-352
-880
544
-272
128
480
48
80
544
656
-752
-800
-448
-176
400
432
848
-592
-928
-720
0
-1424
208
880
1840
-336
-288
1392
992
512
96
1728
848
96
-176
-256
-464
1248
-256
-416
-1616
336
-1104
-1344
224
-448
-800
-128
-1520
-336
-480
-576
-384
-48
-944
-368
-592
-192
-2032
-1792
-1984
-1424
1088
528
528
-384
-1216
-1024
-912
-1168
528
944
1664
112
-576
528
304
496
1472
160
-1008
-624
-144
336
1520
1568
-416
-688
-336
-1264
112
480
704
-784
-720
-2048
-272
-384
-192
576
1280
448
768
992
816
-288
-432
80
-1488
-1600
-1120
96
96
1488
912
512
1008
1712
-1856
-544
400
704
-1088
-816
-352
336
736
128
960
-1120
-448
-896
-384
1200
1440
784
-160
-48
-880
848
1296
848
1072
224
-1616
-112
1616
-112
-928
-976
368
992
240
1536
320
1120
560
-1104
-160
1776
1936
416
-1184
-1376
-512
16
528
1104
-656
-1776
-144
848
816
-80
-192
704
432
576
-240
368
-576
112
16
-48
-832
1088
400
160
-1232
-1056
-384
176
-416
384
400
-512
-1152
-2032
384
-144
-1376
-16
384
-1584
-1584
-352
-592
-144
992
1248
560
-1280
-896
624
784
1696
-768
-528
208
432
1136
-1136
-1472
192
864
432
1680
864
1168
384
288
16
-480
-1360
624
1072
-496
-544
512
-304
528
176
576
176
816
944
192
-1616
-1392
-368
1248
-464
-1264
-864
-1264
-624
336
1808
96
1216
992
416
-304
-752
640
608
1056
2016
-576
304
544
768
-368
-1888
-640
240
96
80
16
-1728
-1840
-304
-1248
1520
1888
-48
-288
-48
992
-144
-1072
-592
816
112
1280
-544
-416
1424
96
1216
1328
976
832
-992
-1536
-592
-336
1216
240
416
1104
832
848
-256
-752
1024
1504
896
1776
-112
1392
976
-176
560
-512
-48
-1280
-1136
240
1072
-608
144
480
-1456
-80
384
16
-304
32
-592
768
-144
-512
288
672
1440
-384
-1056
304
496
-592
-1392
-448
224
656
-384
-496
-96
-144
-1088
496
256
-144
-1216
240
128
-112
208
-1200
160
1184
-896
-32
896
800
304
1744
736
560
48
-240
-1904
-1024
-656
160
208
752
320
-304
-272
656
560
-480
1280
512
-1648
-1152
-48
352
896
-384
-96
576
160
1920
288
944
1264
1296
496
-1072
688
640
816
512
976
48
928
-1488
-112
-1600
-496
544
1232
32
-1504
-208
-240
-304
1392
1008
0
1760
1376
-80
-272
240
-96
-800
-928
-1312
912
1200
288
-448
224
560
-416
-256
-656
80
336
-1248
-160
-64
-672
-272
192
368
416
-400
-480
-1792
-720
-320
-384
144
288
128
-272
-784
144
624
-656
1856
1984
1424
-112
672
1008
-32
-432
-896
-1280
-1104
-240
192
-96
1984
992
32
688
-336
448
320
-1104
-1440
-224
576
1056
208
352
48
1376
240
592
768
1184
1136
416
1280
512
336
-592
-784
1632
-640
-128
1472
144
464
80
-992
-1040
-80
1808
784
-896
384
-528
784
16
64
-1472
-928
1920
720
-128
96
496
1376
1040
-688
224
-864
608
672
-32
-560
832
1472
896
-368
-768
-320
-464
-32
-544
720
-192
-1776
304
1728
624
608
-1216
-512
1216
672
16
-608
-960
624
240
-272
208
448
320
400
80
-544
-304
464
-656
-1344
-1520
-64
-1296
-1184
-512
1600
-640
-80
1184
1472
-1664
-1920
368
-432
880
-320
816
896
1104
1440
-1216
-1008
1088
400
896
-1136
-544
944
1296
496
-688
-416
-464
-528
-640
-624
544
0
1312
512
64
1040
1248
1488
400
272
-1408
128
0
-32
976
-480
-448
624
448
-432
608
336
-1568
-880
-544
768
704
1312
1744
160
-16
608
992
128
80
576
720
-1168
-240
-1712
-512
208
-144
528
1120
-1792
-352
-1072
1344
512
688
-368
-832
1264
352
-336
-688
-1264
-1168
-1680
-1040
-256
-480
-64
48
-320
-496
512
1952
416
448
-608
-1648
-720
640
-144
288
-256
-1008
-144
1232
48
176
624
1328
592
-448
-1760
-1472
-1120
-912
-144
-96
-1232
-176
1056
-304
64
1200
416
-816
-176
-1104
-368
1456
-352
-1232
-144
-80
-1456
-1808
-304
-736
-512
-1616
-256
-1840
-160
1248
96
400
1104
688
-576
-1248
944
1696
-224
-224
48
16
1056
-144
704
-1696
-1072
96
304
416
-640
528
-832
704
464
-992
-528
-944
-64
-1504
-1152
-352
-896
-448
-400
-624
-800
1328
928
160
-400
-1120
-352
-736
1584
1200
-768
-1696
-160
-1328
176
624
-416
-368
-384
-160
816
256
112
368
1632
1104
928
496
-896
-896
-608
-1184
-912
656
208
-352
1856
816
832
96
-80
1216
640
400
-144
-1456
-272
208
-96
-848
-176
1056
144
-1232
-976
-320
-1904
-704
-144
-208
-656
-992
-960
-656
240
-1072
-608
-1104
-1008
-1424
0
720
80
-752
-1872
544
416
-192
-704
960
960
1392
416
-96
480
672
1072
-736
-720
1600
1312
768
-384
-96
-48
2032
544
-1072
-1136
144
560
240
32
-368
336
-944
864
400
-1248
1344
-304
-1200
-480
-2048
736
-16
-384
-656
176
-224
624
1616
800
-688
288
848
816
-944
-16
400
-1088
336
1632
-336
944
1184
-624
-32
1280
544
816
-1120
-64
-528
1936
304
48
-784
1552
1504
80
896
-480
-592
-192
-1552
128
1104
1136
-80
-1328
-1392
112
1040
-192
-1296
-736
-272
-160
-16
-960
-1552
-464
1152
1024
1328
112
976
-160
-1184
-1056
1088
256
352
784
-576
160
1312
-576
-384
608
832
-752
64
896
384
192
-576
320
-48
944
-128
-544
-736
1392
752
-720
80
1456
-1072
1200
608
-192
-1328
-880
-544
-1136
-208
-960
-1328
-1040
-240
-1136
160
256
1952
416
1520
1024
528
-592
-1264
-1744
-1520
-208
-1952
112
480
0
992
592
-512
496
656
-320
448
592
224
336
528
-896
48
-96
336
-880
-304
-1120
-288
720
256
-896
-960
-864
288
64
544
384
-592
-128
-1088
-384
992
-1040
-768
-288
1024
256
-64
-1184
0
-16
128
-1376
-944
-496
-224
-1456
-2000
-624
-1520
-928
656
592
912
-320
-240
-176
464
368
-640
592
704
80
1328
272
1328
1456
320
-1344
352
304
1072
368
-976
720
272
-176
-544
464
1312
1888
496
1520
1104
-128
80
-32
304
944
1152
816
-16
-1568
-1840
-144
-464
-848
736
816
-368
272
256
-1280
-1040
1088
-320
224
1520
752
608
1632
880
16
832
752
-1280
-960
272
-464
-80
176
96
752
560
-960
-688
-48
-208
-1200
-880
-624
800
992
1280
928
-656
832
-1136
-1504
960
736
592
1664
1520
1648
-928
-1856
-320
1168
-32
160
544
896
80
-144
-880
976
528
448
64
-80
848
1296
1312
544
48
800
368
-864
544
-16
-96
496
48
304
-960
976
1680
352
-48
-928
176
1600
-416
-1584
-160
-1056
-592
320
464
-64
672
16
-592
-1552
480
-112
-608
-1120
-1648
-1680
-1440
-1200
-1024
-576
-1232
-1088
-16
720
1632
400
-1088
-352
-416
400
-128
512
304
-160
-128
304
176
-1680
-640
-496
-800
256
720
-736
-2016
-320
-496
16
-752
352
-192
-1008
128
1744
1536
896
80
-1040
16
208
256
176
-976
32
416
-848
-1248
-816
-368
-400
896
0
-672
336
224
-1168
-1216
-1008
656
1040
1568
1040
-1344
-1904
-192
720
-624
-928
176
-80
-112
464
544
-96
-1152
-96
16
272
-1088
-1216
-416
-1440
-1376
-144
-400
-1184
-256
-144
-672
-624
64
-1024
-304
16
1376
1840
144
-656
608
0
-1264
-432
576
656
-832
-704
-448
-240
-64
-912
960
384
48
-1632
-672
320
288
976
-480
-528
-1360
1328
400
656
-176
512
512
-336
1744
1104
944
2016
1280
1952
1360
-608
416
-128
-1056
-1008
-416
-768
-1120
128
448
-64
-896
-1088
0
656
-208
-320
-208
-2000
-224
336
80
-864
96
-80
-848
1168
496
-1280
208
896
-496
256
-944
-224
400
512
352
-848
-1312
-16
-1040
-208
1648
304
-896
-1104
-624
416
-1136
768
992
512
-816
-352
-1008
-1040
-576
-1008
-16
1184
-144
-32
-1856
-160
-976
-32
1968
-256
-1296
464
-832
608
1616
272
-1808
-64
-1216
-1904
-1264
-64
-656
1392
336
-784
288
624
624
48
848
-1488
-176
704
-464
-1168
-368
-528
96
560
464
-656
-1264
-1312
-1856
448
-336
-224
-1376
-624
304
1376
-400
-304
1024
-528
-1264
-560
880
1488
144
432
272
1472
784
176
448
608
400
448
-1184
-1168
-560
-896
-112
1696
-560
-480
432
-496
-1552
-1168
-1440
-512
128
1072
-160
432
32
64
-992
-1888
-144
1440
944
416
1936
-16
-1280
384
-1296
-48
-272
448
1264
304
1296
48
-368
80
96
-448
-384
-416
-1296
112
272
-864
-192
624
-144
-1312
-1008
-1840
-832
-848
384
-272
-144
-48
960
1088
448
-32
48
-1328
-64
-112
560
176
0
-1008
-512
160
-1840
-304
1760
1440
-432
-128
-80
672
-272
-656
-2048
-1616
-64
-1152
-1344
624
1760
-320
-1008
-736
-656
1536
224
864
-672
-112
528
32
1792
928
-96
384
-16
672
192
-336
256
1360
-480
944
-672
-1312
-160
1456
416
-688
-176
256
-896
-656
-800
336
48
-1984
-1792
704
-160
208
1696
-64
720
752
144
1840
352
576
1456
832
368
624
-992
-1024
-64
192
928
-592
1248
1120
48
128
288
1168
832
464
-816
896
736
-1648
-672
368
560
240
-464
576
-784
16
544
304
720
784
-416
-592
-176
-640
-224
1824
1648
-336
176
-304
-672
160
240
-304
-256
-240
-480
-176
624
-688
-1248
1024
1136
1008
592
-528
-688
-800
1232
1024
1936
1200
-80
720
-160
128
-560
-544
256
112
384
240
144
784
-752
-32
-928
-1024
-816
-448
544
704
-272
-48
192
1184
752
240
-848
784
1104
-800
-1904
-1120
320
768
448
-432
-1264
176
1456
-480
48
336
960
80
192
-160
-160
-784
16
704
1184
-64
848
64
-640
992
1136
-1696
-1328
352
160
-688
-1520
-1024
-16
-1408
672
496
1168
-240
-416
448
304
544
-1840
-80
-48
656
-272
-704
256
-1488
-736
64
640
240
400
-1120
-1776
-608
-256
1376
-688
656
240
-336
-1376
576
528
-464
-672
1152
-704
-1776
-976
304
64
32
-592
-1024
-960
-1568
-368
496
560
1104
1360
1056
464
-96
-1040
-48
416
-240
-1248
-384
1264
-64
16
-1008
32
624
-16
944
1200
-240
-1472
-128
496
1776
336
544
704
416
400
-320
-1056
-1056
704
-16
-688
-1136
-1600
-960
-880
-1376
-1776
-832
-416
560
496
1184
272
1264
2032
48
16
1056
1936
1184
32
-336
320
-704
112
-656
-1840
-736
1184
-384
80
1328
352
848
-544
-16
-224
-592
-816
-960
-96
192
-1392
-1408
-1104
768
576
-1184
528
272
1024
-112
1536
-336
-992
288
-624
-192
816
672
720
-304
-928
-416
-912
-144
1120
144
688
-464
-976
192
-848
-368
176
-560
-240
1456
640
368
192
880
-272
496
-992
-864
-672
-48
-1712
-768
880
64
-464
112
-656
-320
1856
768
-1456
-192
-1824
-1200
-992
0
-176
-816
768
1776
496
-1664
-496
-112
832
-848
-496
-1280
-992
336
-1504
-656
-656
496
432
-32
-1040
-48
528
432
-848
-1472
-32
1952
-1840
-784
512
800
944
-720
-64
528
1120
368
160
1408
1856
128
688
1072
208
-992
960
576
-304
800
448
896
-112
-496
320
-128
64
-688
1200
-656
-656
-592
-176
-1232
-240
112
704
-272
-1440
864
592
1248
1520
1344
576
-1136
208
848
-16
896
1968
1056
1440
1920
816
-960
608
1680
288
-240
768
-864
-1360
-112
-448
-1136
-1664
-128
1728
-448
-976
864
448
-144
0
-704
672
-720
1056
1520
304
144
-848
-608
-752
1120
-480
-624
-544
304
48
-784
-1216
208
864
1360
992
-160
80
-944
-368
1584
272
-1008
-304
-704
-512
-1696
-560
112
64
704
-928
416
2016
528
1488
272
-336
-1280
-800
-656
-1280
-144
-400
1712
896
-816
400
816
-544
704
640
-384
-1376
352
1120
-1616
-256
-1840
-1408
-624
688
352
960
1136
1136
112
-32
-48
-1216
-944
-1376
128
-496
-720
-624
-624
-672
-784
-160
176
1472
960
-1040
384
656
1088
-32
-64
144
128
-288
-320
-1088
64
1488
-256
-64
480
-368
-240
208
-960
352
-80
-224
208
48
976
-576
-1440
-272
576
-144
1200
544
-160
336
-160
144
960
1216
-1360
-32
-1648
304
-896
-1120
-96
1776
1472
656
-1168
-704
-1808
528
1024
1136
512
192
-1056
-720
-400
-800
1040
816
-1200
-912
-1264
144
1600
-240
0
-816
1088
-16
864
992
976
624
1280
912
96
992
-384
-1328
-432
-1440
-288
736
-128
-48
896
-1232
-1200
-1472
960
656
1216
208
-352
-1152
-1424
-1408
-112
-320
48
-448
-688
80
720
336
-896
512
-1536
-1984
592
96
-768
-1600
192
-992
-736
-160
64
432
1600
-624
-1824
-2032
1408
688
-464
-1040
512
-1792
-944
-1728
-848
208
1488
592
256
784
1984
-64
-800
-1136
-880
-1712
-592
-1200
-576
-1120
-1424
-672
-416
-16
192
-624
-128
-960
-272
384
624
480
1808
96
1280
688
976
-368
-272
1584
2016
720
48
1584
1552
-1392
64
-416
-624
-176
512
224
-1456
-672
768
-768
-544
304
880
1776
768
64
-32
32
640
448
-800
-320
816
80
-976
-976
-240
640
-384
-112
1600
-48
-1552
-1184
-1120
0
-1040
-480
-288
1344
1344
224
272
-96
-96
896
656
1168
-272
-1648
-960
-48
-336
-16
256
928
-1712
-336
-592
-736
-672
496
-432
-1136
912
976
688
1520
1456
1600
-112
-448
352
1056
1552
1536
736
672
144
-1600
-1264
-768
1088
256
672
-512
864
-864
224
1280
-48
-1872
-320
240
656
-688
-272
-1296
-1168
384
912
768
-304
-800
1232
544
-464
-560
960
864
608
1152
1392
272
-960
240
-112
864
-256
-1056
-304
-1392
-640
736
-592
464
-1056
112
-672
-560
-640
-1408
-688
816
704
960
-544
-320
80
-1152
-1872
384
16
-896
-1088
-128
944
1984
80
-48
1552
-544
-480
-256
-352
-1680
-800
80
1088
-896
-1200
-576
-64
176
-448
224
16
480
1552
-384
-304
1856
432
48
752
1584
1216
1088
-96
992
336
1600
272
704
-688
-928
-160
-432
-544
-672
-1392
-352
752
1104
1312
576
-736
-224
1776
-1424
-1056
320
1168
1840
1664
704
576
-560
-1952
-960
832
-128
944
-624
-1168
-304
1072
304
-592
-512
48
-1488
-304
-1504
-240
160
1776
880
-32
1072
-528
-1792
-1520
-48
-176
752
352
-400
-592
464
432
-528
-48
1024
256
-320
-528
-928
80
-288
752
-1808
-480
-352
384
-64
112
1120
432
-560
-1376
-1024
96
-1136
-224
-16
-624
-128
96
-176
1856
560
-416
848
176
1552
608
-80
-1120
-1056
-576
512
-288
256
-464
-1088
-1024
0
1616
960
1792
-352
208
16
-144
-80
-1200
-176
-256
560
832
1520
-864
0
-144
272
-528
928
1536
912
-1664
320
1088
1232
1584
432
-1440
-848
1600
848
-1152
-288
1296
-704
-384
-224
1072
832
832
224
-16
832
-384
-592
448
624
944
272
-208
544
-144
-448
-848
-80
1088
864
-192
-256
-752
144
-1472
432
592
624
-544
1168
912
-784
-96
-640
-688
1296
1392
1616
1120
832
752
960
-176
-704
512
240
-336
1632
1808
528
-64
1024
544
-64
1104
1168
576
176
592
0
560
-768
-352
64
672
672
-80
-816
128
-912
-1424
-736
560
1392
336
-128
544
-832
-1744
-944
-1744
-768
-704
-480
-384
-288
-160
-432
96
-288
-416
480
368
192
-1568
-1712
-144
1920
1296
-1200
-432
848
-400
-192
-784
-704
-608
496
-848
-656
752
928
32
928
288
1264
112
-352
-144
-208
-528
-288
544
816
-1040
-1696
320
-800
-2048
-240
1904
64
1200
1568
624
192
-688
-736
-304
-832
-496
-400
-352
-1216
-128
976
1840
-464
-1360
-1360
-64
-624
-736
-272
-1504
-368
-656
-1472
-80
-80
256
-640
-560
768
1040
512
1120
1200
528
928
-336
-480
32
-224
64
96
-1232
-1472
928
1488
-64
-752
-64
336
176
-528
-208
512
1712
720
1792
1600
1760
1456
1600
1488
608
176
752
1200
1072
-960
-1584
-656
-1872
-1376
192
-80
560
-1184
-1232
-480
-224
-544
-1792
-656
-672
-384
816
-496
-624
1312
464
-1072
-32
1696
1568
768
1536
1264
-1136
-1456
-1056
-272
-32
-1760
-352
1056
1152
-752
720
480
-1040
1712
1568
1120
1456
-512
688
1056
1392
544
160
528
496
240
512
-1024
-128
-176
-832
-352
-1424
-1024
-320
-848
528
-80
-704
-1424
-1824
128
-592
-816
-16
-1024
320
-384
-1136
-160
1760
-608
-64
144
976
592
1264
576
-1344
-224
-384
1040
-112
-112
96
1664
336
-320
-240
-1376
512
176
-1360
-1872
-1200
-784
-1904
-944
-1360
-1392
-592
-1408
-1424
-1008
-944
624
1072
-1200
-480
-1472
-816
-1904
-992
-176
-144
-192
-928
-1696
-800
-800
-80
-656
1536
-192
-736
96
0
560
-816
-1360
-96
464
496
160
400
1280
-16
-1424
-1008
-432
-1056
688
1136
544
912
256
-1664
-1072
-448
112
-2000
-640
576
-1280
-976
-560
-1424
400
1360
464
288
-896
-32
-1552
896
560
-48
240
-32
1680
736
-352
-448
-304
1328
896
624
720
-928
-832
1440
1088
848
80
-272
368
896
-208
-928
-1312
224
-112
-640
880
-624
720
-368
-736
-48
160
-32
-224
-1440
336
240
-544
32
1488
1008
512
848
64
128
-288
544
-224
-368
-1376
-1472
64
1792
624
1040
640
0
384
-1456
-880
-1360
1392
-384
-1872
-752
-528
800
192
-240
-640
-560
2032
1552
-464
-192
-1648
-1280
-1568
-1088
-16
-736
-496
688
384
1824
1936
256
-1856
-480
848
1248
576
16
912
1088
576
480
224
928
-16
496
1728
64
1632
1728
16
-816
-1344
880
1408
-800
-1504
-1504
160
112
-1648
-1248
16
848
176
-1472
-1760
400
1584
1920
736
1504
-48
-64
64
256
832
1040
-464
256
320
640
-32
-496
288
-1280
-1184
-16
368
448
-720
-1024
-1136
-1536
976
1072
-352
-1552
-496
208
-384
368
416
1552
1808
640
16
432
1504
-1056
-64
1376
-272
-1136
-592
-1664
80
272
-288
-240
-1248
-880
-1136
-1472
-432
528
352
1392
-672
-1088
-1040
-816
672
1200
-464
-400
-1232
784
1632
112
1776
224
-400
-1248
-576
544
944
576
-304
976
1920
768
-640
-1088
608
-208
-976
-1616
-512
-1888
384
560
432
176
816
560
448
-1664
-928
-240
512
304
1408
1392
-880
-224
80
1936
800
64
592
-864
-1296
-64
-192
-960
80
-80
-1984
-1312
-1584
-608
1520
1456
1584
1200
768
-800
464
1424
528
448
1216
-816
-1184
-832
-432
-48
400
-320
240
1648
48
-1472
-1200
784
256
-1104
-304
1216
1232
528
-192
-1808
-560
-1456
1328
-368
-1248
656
-528
960
1072
-224
-32
1232
0
16
-48
-400
-288
976
1392
1552
208
416
1360
-432
-1264
496
576
-1024
-704
-448
32
-352
352
-768
-992
-496
128
-64
-288
-768
176
624
-960
-416
-800
-272
1744
-16
-1456
-1232
-384
928
704
-1232
736
288
976
336
-400
-816
240
48
864
960
1584
-16
-1136
-1088
1216
-800
-1040
592
368
160
1072
576
-576
-1104
-592
880
1488
1280
-1632
-16
-144
-976
-576
-816
752
-80
0
-1504
-1216
688
336
-544
-80
-640
848
544
-784
-736
-1056
-624
-192
240
-1136
-592
-832
-720
-384
912
-336
-160
1456
128
-1136
80
1504
704
-320
-64
592
-32
160
928
64
-432
544
-688
352
352
-384
544
-816
-1664
-656
-208
-368
592
-352
1072
416
864
-672
-656
-864
1712
1216
736
-1200
-208
-928
-688
688
32
-960
-416
-208
-512
1040
1744
352
-192
-48
-128
-784
1008
480
1056
432
1440
368
1056
816
-976
-848
-256
544
176
48
496
880
-128
-368
-16
464
-304
352
1520
1392
-64
-832
0
768
1520
-688
1456
2000
1008
256
-976
-784
-144
-576
1808
1488
-128
416
-400
-1232
-864
32
-592
480
1328
192
-304
848
944
96
1872
1328
-64
1552
1728
352
432
864
320
112
-976
-672
-1712
-1424
832
48
320
1440
1376
1184
-96
-864
16
-1056
208
-320
-16
32
320
-752
-1520
-1296
-304
-1040
240
-128
-1440
416
-64
-48
96
-768
-336
272
-192
80
-944
-560
768
1136
1952
80
-1008
-1264
-752
96
-304
-336
-400
688
736
528
-176
1184
-384
912
608
64
-192
-48
432
0
-976
-1488
-1152
2000
352
624
32
-496
-1200
-336
-336
-1408
-176
-544
80
-624
-240
912
-208
544
-288
1616
912
1296
192
-496
-736
-32
-1088
-1184
896
-672
304
64
-560
-256
832
1456
-384
-864
416
-320
1184
112
-1728
-1344
1552
144
-464
-1568
-752
1056
-208
-96
-368
-240
96
-272
-800
-48
48
-1184
-752
1920
1312
64
464
-1008
-1424
-1168
-832
-640
-368
-1232
-320
-864
-32
384
-352
992
496
1088
-480
1968
112
-624
432
-896
-1280
-496
-208
-896
176
1216
-1264
-928
592
656
1184
752
-720
-480
-192
-1680
304
-848
256
-176
512
-416
-1680
-1248
-448
-720
-608
384
432
-800
-1808
-720
1664
-1488
-992
-576
192
2016
-160
-688
-320
-1392
-1328
-1216
-512
-1600
-640
-736
512
880
-80
-1584
-1664
944
-272
624
1328
-720
992
224
800
752
384
-1136
-704
496
928
1120
688
-336
-160
-144
752
1344
1808
592
-1552
-1088
-1888
-144
-144
-112
1040
1744
-256
384
1136
-720
-256
1344
1216
-224
-592
-1312
-1392
848
-16
-1632
1344
768
-720
-560
832
976
-256
768
-624
-816
-272
272
1360
1104
864
1424
1712
192
48
544
1168
768
-272
-48
-1696
-1328
-96
-384
144
-1312
-1024
-176
-448
944
-1888
-832
368
-1184
-208
-1264
-1584
464
224
592
688
-176
-1136
1296
672
-16
160
-80
464
-544
848
-1664
-96
-1408
-240
-1312
-288
-704
816
1488
976
-160
448
512
-64
-32
-80
-256
-176
-544
656
496
1472
1152
800
-816
-1200
-80
-1440
48
48
-1168
-16
-464
1040
272
-432
-832
-80
-288
1600
1984
-1328
-912
-576
-1040
-544
496
544
1152
32
-624
-208
64
-832
-912
544
176
592
1120
-992
48
1008
448
976
1472
-144
-192
-544
-752
-464
576
1120
736
960
496
816
-304
-1280
-672
-1616
-1120
-992
-816
-1264
-1168
288
-256
-560
720
1632
496
-304
-512
32
496
240
560
1280
1088
656
2016
-512
-384
-272
1440
0
208
80
-784
560
816
1120
-672
-736
1232
976
1040
-112
-1984
-736
-1392
-816
304
64
272
224
-1280
-16
80
-208
672
-576
-496
448
-496
-256
-800
-752
464
1120
192
272
-512
-1136
-912
784
80
768
960
-240
-1952
-352
-1008
-976
-384
1376
272
-1488
-528
-720
-992
-592
-48
288
-928
-480
-288
1808
1200
896
-1552
-1888
-1216
-736
-48
1536
944
1552
512
720
1056
736
-1104
1152
1232
-896
-1632
-448
-320
1472
848
-480
336
-96
-480
1120
112
288
-1136
-1056
-832
-1248
-1280
-544
-624
-64
-1392
1008
368
-736
-400
1040
944
1248
208
816
-160
1408
1472
-1184
-720
-1520
-1328
-1952
-736
-80
-16
-672
-624
304
1312
-192
752
288
-2032
-1104
-432
464
480
-528
368
976
1552
784
624
-528
-768
224
688
-352
1568
480
432
992
1616
1408
592
-1104
-208
-304
640
416
1360
1456
976
592
784
2032
160
384
1680
432
1664
1792
448
496
752
1136
2016
-240
-768
880
1536
1488
352
768
672
240
-144
320
-1200
320
544
256
240
464
1920
-48
640
304
-704
176
272
-480
-1472
-48
-1040
-944
-864
-864
896
1120
48
1248
992
944
368
-1008
-960
416
1696
-400
1152
688
992
32
192
512
352
752
816
-608
-352
-704
-1248
-96
-544
688
176
-128
-352
-32
576
-176
-848
-1424
-192
-432
1088
1120
1392
0
-832
-144
64
64
-1648
-1040
-1424
-1776
1024
1104
-1392
-704
-912
-48
1968
1648
416
-336
-592
0
-1120
-1600
-704
-32
-1424
-96
-64
-48
-48
-1024
-864
-1296
1216
672
-832
-576
-576
-1136
1344
384
128
208
448
400
192
1680
816
1280
576
1008
560
-304
-1136
-304
64
192
-576
-1456
-1216
-928
464
464
1184
-336
-544
-160
1232
1776
1152
464
1968
544
272
-912
432
-160
1440
16
80
1344
-112
192
1488
1216
1152
624
-1728
-784
288
336
512
-432
368
1072
-496
-272
-1392
-976
-608
-384
224
-688
320
688
16
-480
-336
704
-1232
864
-256
-64
320
-432
-240
1360
1328
208
768
1104
-32
-448
-1024
-832
32
-224
944
-176
1232
448
-192
400
48
192
-544
80
-1408
224
160
944
-32
-1168
288
560
624
1168
-496
224
-752
1024
496
960
320
-384
-528
-1632
32
-1104
-64
-368
-784
-560
-32
-1008
-560
-1456
-512
256
-496
224
1184
-464
-528
336
192
-384
-80
928
864
1760
-688
-1152
-464
688
896
-384
-1264
64
704
880
-1216
1152
1440
752
848
416
-1664
1904
1968
-336
-48
96
720
560
496
736
1424
1344
-288
-1328
-560
-368
-1504
144
32
-176
688
224
208
-272
880
288
-448
512
144
784
-1408
-1680
-528
-752
-1920
-96
-912
-304
16
656
-224
-848
-1120
-1952
-624
-1296
-1408
-576
-1040
736
1568
448
272
208
1664
320
-160
-160
0
-64
416
-272
-304
832
720
432
896
-1264
64
672
480
-80
608
-1904
-272
-1280
-1856
-1712
-848
-16
800
-464
928
1168
-688
-1344
-752
-720
1136
48
-144
-176
-160
352
-224
1232
416
-112
304
-960
-1424
-240
736
1328
816
688
512
1312
288
-768
-624
-816
-192
-112
-416
-1312
-208
-1216
-336
-1616
-64
1136
1728
48
688
-1280
-2048
-432
32
1104
480
1424
432
-176
320
880
16
816
-704
-464
928
1472
1152
1168
912
1184
-320
-1424
-768
-160
272
-560
-64
1664
32
1072
1344
-480
192
368
-256
-736
-688
96
1152
1536
1056
832
832
672
624
-1760
-688
-1136
-256
-384
-624
624
304
1632
848
-576
-1616
688
544
128
368
-1184
16
-640
-208
-1456
-320
1360
144
32
1952
752
-1824
-1136
-176
-1952
-720
16
-752
-960
416
-464
-1408
-384
1520
656
-272
432
-16
-176
1216
1120
560
-608
-336
-1376
816
1504
400
416
-1120
-1200
-704
-592
176
-576
-1296
-1344
224
-1888
-944
32
1328
32
2016
608
400
208
528
-1760
-1232
784
1776
1104
-704
-192
-1136
64
1456
592
368
960
1184
-144
-576
-528
16
-1168
-208
144
1104
208
368
-608
-1456
-528
-656
-1616
-1680
-1360
48
-384
-880
64
-496
528
336
832
656
-592
-352
1200
-32
1152
1696
1392
1952
-528
1248
1184
96
1056
-960
592
-1520
-1072
-848
-976
752
848
-1360
-208
-1136
-944
-832
-288
-544
624
1872
1120
1808
1024
1136
-160
-448
-784
-1312
-1472
-1088
-1664
-880
-544
160
640
896
1504
1792
1744
144
-1168
1456
672
-448
-160
480
1184
64
64
1296
160
416
640
-704
-1280
-224
1616
1616
464
1136
1200
752
272
-832
-800
-560
32
-656
-1104
464
1216
672
-176
-1872
-1488
-1104
-1408
-112
544
928
-544
-560
-1856
464
672
-48
-864
-400
704
-864
-1968
-1200
736
-592
-512
-160
-1168
-896
448
1088
816
768
-128
-48
-336
-128
592
1728
-80
608
1632
480
-432
880
1568
960
320
1600
-560
-48
-16
1264
368
176
-208
608
608
384
1296
1120
144
784
352
-688
1264
1024
352
-1184
-576
-192
224
1072
1120
1312
512
1024
-1648
-1760
-240
1280
896
144
-1744
-192
-816
-736
240
1424
256
-368
96
272
-32
-16
512
1056
-208
-784
464
-1616
-1408
1296
528
1072
576
-1440
-720
32
-144
1472
912
1296
592
832
1664
-240
-272
-1616
-2016
-1104
-688
-880
-256
432
-288
-672
16
1168
496
864
-2032
-512
-208
-864
-768
208
192
-592
-720
-1536
80
944
-80
-32
-352
1216
288
768
-784
-672
-1648
-16
272
608
656
240
1168
1216
880
-128
1424
736
720
-336
-1696
-256
-672
496
-704
-1280
48
-304
848
1712
512
1664
-800
-352
-480
-256
192
-288
-32
-512
-528
48
496
-752
-96
-64
48
-864
1360
704
192
-720
-864
-2048
-1424
-448
-112
464
432
352
-128
-192
1232
512
1808
-240
-704
544
880
2032
848
256
1440
96
816
1648
992
-1568
-928
-784
512
480
96
-720
480
-560
-1328
-832
528
832
-192
-768
-448
576
320
16
-240
-192
160
-1072
656
576
-1408
-1040
-512
-1200
-528
-32
368
1328
992
64
-432
-752
1040
1936
1632
896
496
1472
-320
-32
-192
-1648
-1680
-1104
512
-160
272
32
1632
704
608
96
656
368
-288
-96
-864
-1520
-192
-2032
-784
224
272
-1184
-32
416
-928
-256
-1408
496
736
-16
-944
496
240
-576
192
-144
224
624
1008
416
-448
-320
704
768
512
944
-480
-656
352
496
432
-80
96
-224
48
1376
1616
-48
560
176
-864
-816
1472
-304
-320
-1536
-1728
224
288
112
-1056
384
1488
1520
528
896
448
560
2032
-240
1104
944
1088
-144
464
800
480
864
640
-64
-16
672
416
-16
256
1248
480
896
544
-1632
-320
288
-816
320
352
-1200
-592
-880
112
-1632
528
752
-1104
448
-720
-1328
-160
-1120
-720
1936
624
896
96
-1552
784
1376
816
-640
-240
320
1744
64
-1600
464
592
976
848
-192
-240
144
-480
-784
-1104
-320
-400
-144
-880
304
592
112
-768
-720
-192
432
-64
-1376
-192
-176
640
112
-128
272
-656
608
544
-64
208
-272
-336
-672
-960
1632
-16
-960
608
944
-1408
-1456
-832
-240
-224
992
1136
-976
-1232
-608
256
48
-64
288
-448
-560
-336
288
-368
-704
-272
1712
544
-880
-1424
256
672
-688
-528
-416
384
288
1616
304
-608
-528
-1424
48
-832
-208
-1568
-208
1264
880
1680
768
1584
896
544
-1584
-1616
1424
-1152
-464
-560
-1360
-576
224
-1040
-80
1216
736
-336
-432
-528
-800
64
1488
-144
1040
176
1760
800
-464
1376
-48
-880
-1520
-640
-1280
-128
-1184
-1872
1152
352
-816
-128
240
-496
48
160
-592
-1424
-976
-352
-944
1248
-240
-288
576
32
-112
1312
912
-16
608
32
-688
640
1728
256
384
1248
128
-544
832
-448
-784
560
-896
-1120
-608
-416
-1264
-336
464
1264
-672
-672
752
368
-1296
-144
-800
-816
-528
-1808
-1152
-592
-816
848
1568
-48
720
1184
-80
-304
240
32
-992
-448
-208
928
208
64
-800
-704
-496
-624
-1328
-752
624
-608
-1200
-800
-224
-288
-416
-784
-1216
-128
-192
112
1296
224
336
640
-2000
-976
16
816
1040
1216
272
-544
-624
240
-304
592
96
1136
1456
256
-1648
-1792
-1792
-496
-240
-752
-1312
16
-256
96
976
272
1056
1664
832
-1616
272
368
-480
-1184
-816
-1344
-480
272
288
448
96
-1328
-720
-384
1552
416
-160
432
-176
-544
400
304
-432
-960
848
-160
496
-352
-1744
704
928
-960
-1024
32
-768
-288
-1296
1568
-560
400
-704
-1184
-32
-1136
-1056
-880
480
-1888
-1504
848
1024
1168
1952
864
-528
-976
944
1616
-256
-1152
-1520
-1088
-64
0
-1136
-336
464
560
640
576
352
1472
1616
768
496
672
0
560
1328
48
-1312
-1824
-1568
720
1264
256
1488
1408
-624
-528
752
1456
-1120
-560
480
-1024
-1408
-1776
256
96
-1504
-640
544
1312
-16
944
-464
-960
48
752
-784
224
944
-896
-1328
1024
-32
-976
-1504
-464
-256
304
240
848
784
272
960
176
848
-80
-560
-352
720
176
-1008
640
-432
-384
400
1808
240
304
1216
-608
656
208
928
768
1328
1296
832
288
64
-848
-640
-96
-496
-80
-304
-272
-1792
560
1200
1072
-1120
1088
1552
352
-208
80
-16
-816
-624
192
1536
-400
1776
1088
16
720
96
1968
1392
992
688
-768
-544
912
640
1088
960
1552
1744
1216
1984
496
480
336
1456
1632
-1520
-432
-304
-704
-544
-384
928
576
-944
1968
736
-1168
-816
-528
-368
-272
-480
272
1264
-592
-944
-944
976
-896
-1072
-528
-32
336
16
880
48
528
592
368
1152
-512
-416
-240
-1792
-256
-1376
-112
704
1056
352
-1312
528
1184
-288
1040
1312
272
1088
-480
176
32
1312
752
1312
-1296
-1840
-288
-1136
-208
1056
176
-464
-656
-1408
-1392
-288
240
-880
-64
-416
-640
112
48
1872
1760
1680
496
-80
-1120
-384
96
720
-528
1168
-48
-752
-1152
16
-64
-1792
-336
144
592
16
0
256
208
-304
720
496
-320
-560
-560
-320
-384
448
656
-1184
1264
-448
-304
928
192
-2000
-960
352
1056
-1040
-656
-1152
400
-608
1328
1424
304
720
-352
-1648
176
304
1584
-336
-1104
-160
-1232
560
64
-288
1072
1008
1424
688
1552
1088
704
368
96
-176
-1456
944
1072
-1040
-2016
-1712
-432
-880
1008
1728
464
1520
-48
-112
672
2000
128
656
1872
1168
592
-256
-480
-1664
-1728
80
-640
240
912
688
464
816
64
-1536
-1312
1248
736
608
96
-128
-144
-608
384
912
592
1392
448
256
-496
-80
192
96
384
1056
-944
-592
-560
-1008
928
1280
-48
-16
160
-32
-160
1744
1984
1264
-336
80
640
624
880
640
736
-1120
-432
-176
-1360
384
320
352
240
656
-496
-144
704
304
1168
960
-192
-752
-48
-1392
-592
496
304
-80
-496
-720
-80
-688
-160
960
-288
352
192
-32
-16
816
-1552
208
944
-896
304
-96
336
112
624
592
144
224
-256
-672
320
16
-320
-48
112
2000
704
-304
-560
-544
32
-112
-336
-320
-816
352
32
464
-304
176
1568
560
-544
-624
-320
-64
-272
-1056
-848
-64
-1200
-464
-1536
-336
-112
864
1696
-176
704
1984
-960
-128
800
-16
-496
-1072
544
-144
-1360
-304
976
1184
-32
-480
512
0
-112
224
480
-720
-1216
-1264
-1264
-496
320
-1536
-64
32
-16
-176
-768
-992
-1056
752
1680
624
192
-544
-256
608
624
-800
304
-1008
-752
-1104
-1792
-912
-896
-1520
32
-432
1040
144
-848
-912
-1136
-1328
-928
992
384
272
1264
608
-528
816
848
400
464
1472
-688
-896
320
-1136
-288
-320
800
1120
112
128
160
976
-1584
-1072
80
-1008
-1328
-992
-1712
-1632
-832
1040
-1456
-624
32
1328
336
-1248
-96
-160
-272
-1520
1136
-416
-1232
0
-1504
-48
-1072
-1776
720
-416
-1440
-896
-224
-608
-720
-272
-688
896
1120
608
400
240
32
240
-944
-560
80
528
-624
-656
1696
64
416
-128
-48
1680
480
-432
-1232
-1040
-1104
288
-272
-800
176
336
992
-848
-1520
480
1328
1920
1360
304
-1328
-1504
-1568
-160
-816
96
-1232
-992
864
-1168
-544
-816
352
1072
-128
-1776
-1936
208
256
208
-304
656
1152
576
1472
-96
-1104
-1072
-224
-368
576
-544
384
-592
-1792
1312
-176
608
1072
-288
688
944
-784
-128
-80
-1280
-768
-352
528
1184
176
944
1984
816
288
320
192
-1088
-1824
-512
-1296
-192
416
-784
-208
-416
192
560
1040
1072
1296
576
-880
80
800
96
560
960
-1760
-544
-672
-432
-1216
-1152
-1152
-400
160
752
1920
976
896
-736
-704
-576
352
-624
-192
256
-1520
256
1872
1616
768
-528
-1264
1360
496
-400
-336
-640
-432
-992
544
-336
-1312
-1376
-560
1808
1488
-704
1040
256
-624
-384
320
768
-384
-736
-800
-464
256
1056
1392
1376
144
-624
-480
-1376
-816
-688
-1760
-288
-400
320
-640
272
1728
1344
-192
2000
1664
2032
944
224
1648
32
-400
-64
-320
-368
112
848
544
1696
992
528
1408
0
-1840
-176
-720
-736
272
320
1088
48
-1152
192
-592
-768
-912
416
496
800
-304
-16
-480
-624
144
624
-768
-528
-816
512
-928
-1664
192
-464
624
-400
-1232
-768
-160
-256
400
400
960
240
-224
-1056
48
-80
1008
496
-528
1600
1136
-400
592
-240
-256
-560
-1440
-896
464
1184
1120
-176
-240
-1792
-1360
496
-1072
-32
496
1296
1456
1888
576
-176
-192
656
272
32
640
640
-768
-528
1120
864
-128
-1232
-112
-416
256
304
256
640
464
1472
160
-592
-832
800
-592
-1072
16
1328
32
208
464
1968
944
880
432
144
-1264
-640
-336
96
-128
-48
-352
-1296
-1440
-688
-1936
1184
-272
-1696
80
-1520
-896
848
1328
-16
96
-592
-1392
0
720
-272
896
1744
400
1104
1600
576
384
672
304
96
-96
-864
-208
448
608
-1488
-16
1856
1744
496
-752
-144
192
-224
944
-704
-1520
96
-784
-1456
-368
-816
-1088
-144
-144
624
1280
448
832
-16
1984
80
-640
-2032
-1008
784
224
-832
-1408
1024
448
880
1392
1664
928
1968
1264
640
1184
1856
1376
1408
-960
-624
-1328
-544
-1104
-560
-768
96
48
-1920
-224
1280
-384
-160
-480
-832
-1040
368
-1120
-448
1280
-32
128
-1712
-480
144
-1008
320
960
672
1248
816
656
528
752
16
704
784
-48
-912
-784
432
-384
320
1328
-480
-96
352
-1200
-1584
-1776
1216
704
112
208
-720
-976
-80
-144
-720
-1056
-800
-192
576
400
128
1056
-864
-624
96
512
-448
80
704
-928
704
976
608
1232
944
1280
48
-368
-144
-256
-384
1088
240
-1648
-800
-512
-1344
-320
176
400
-672
-624
624
1920
656
176
96
64
0
336
-272
-128
-240
224
160
-208
224
-480
-1184
-1552
720
-368
-880
144
-112
128
-832
576
-832
-656
-944
528
1840
896
-336
-1280
-1552
-432
-96
-848
-576
-816
-224
-1248
-96
112
1120
752
128
1488
-816
-1392
-1248
-400
464
384
240
48
-928
-720
272
384
480
0
-1888
-1200
112
672
-1200
176
-256
-176
352
-224
496
-496
-224
80
368
288
144
32
-1200
1712
-128
-1776
-1664
-464
288
256
-192
-880
320
1696
576
816
1056
1456
-992
-1408
-480
-1696
352
-752
144
-320
-464
720
1312
368
-1840
0
448
-32
-768
-352
576
-752
-1680
1344
-1024
-640
-704
2000
256
80
624
208
368
-1072
-1456
-944
1280
48
-16
480
-416
-1440
-1248
-608
-1360
-352
-672
192
-320
-368
-1456
-416
-1392
-1728
1040
1648
592
1776
-464
880
112
-624
464
368
1104
1056
-560
960
976
1648
896
672
-160
208
-400
-1824
-1024
0
-64
-864
-272
-736
2000
896
-256
624
880
1760
368
-1424
-96
224
1520
576
352
704
-704
1024
-176
800
80
1328
-400
-448
-768
1056
-1072
-2016
-992
672
624
560
1136
736
-80
-320
992
1264
816
-704
640
112
-1584
-96
400
320
-576
-608
1136
1072
992
-112
-496
1040
416
-176
-720
-112
-544
848
800
-32
192
-1008
-688
368
720
-1248
-1440
720
1504
-832
-688
-848
1312
352
752
1632
736
1664
1136
-496
752
336
768
-1344
-512
-512
1616
432
1184
-144
1456
1008
-720
256
-896
-800
-256
-512
-528
-576
-176
-1456
-80
1152
1552
128
592
-1584
-1296
-224
-656
1072
1152
-208
-512
-1296
-1792
-144
-464
624
1072
-304
-240
-528
144
-800
-832
704
176
160
1104
432
-1936
-704
784
-1024
-272
1152
80
864
192
576
-128
-1104
-1280
-576
720
-16
192
-704
-432
-544
1856
320
-80
448
-1568
-80
512
784
-896
-960
1712
1984
-368
-1760
-1344
-1088
304
288
-768
-272
800
656
-848
-1680
-320
-208
80
-816
-480
-2016
-1232
-1344
-624
-736
-1056
96
-176
-1536
-720
160
624
400
-1536
-688
640
144
-96
-64
1120
768
1872
288
-912
-176
-144
-304
1408
768
-128
-864
992
1248
-480
-352
336
-592
272
-144
-400
-192
-1216
-1536
-144
1712
464
384
992
1520
512
1776
1280
-48
-96
-192
544
288
304
1552
1008
2016
80
-1568
-304
448
192
32
1168
656
208
-176
704
-464
-816
-912
752
304
-400
-400
-1168
272
848
1504
-416
624
1552
672
-400
-816
144
144
-944
-992
192
-800
-304
1584
640
496
80
208
1392
-512
-736
-400
-1392
-1248
-1648
-816
928
432
80
-32
352
1888
496
1344
1648
-816
640
416
1520
1296
64
-864
-1312
-928
-1040
-368
560
832
1056
1904
112
1728
384
1056
48
-48
-288
-720
-1712
-304
-624
624
688
528
960
-736
880
864
144
-752
-672
304
-1168
-1184
656
-528
-736
-1808
416
368
1712
1056
1024
400
-1216
240
32
-1040
144
432
128
-1024
192
1808
-832
-672
-624
-784
-176
1024
192
-144
-784
608
224
1312
1840
-416
-1120
816
-1024
-624
224
-1184
-1504
336
-192
592
496
1344
1296
128
-80
-176
336
368
-16
-448
-800
-1504
-1264
320
1392
1216
-576
-448
848
1264
560
976
160
-368
-448
-128
-352
-1472
-672
880
272
-816
544
-256
-128
-240
-832
-1936
96
288
-384
-1504
-1056
-384
-1024
-592
-400
-1472
-368
-336
-1008
-1632
480
-1456
0
-928
-1536
272
-64
-448
-464
-1840
-192
1168
-768
128
1952
1264
272
-240
-816
576
160
1552
-80
-272
-304
64
80
-64
-96
-784
-912
-1248
80
560
-1040
-1776
-1616
464
1344
992
64
320
672
1136
-32
-256
-240
-1152
-288
752
1488
-96
-496
-720
-320
-304
-1376
-224
1008
-656
-1200
-608
448
-352
128
-176
-784
1472
848
944
1424
-1040
-432
608
176
752
736
-1536
-640
1008
-800
-16
240
-144
416
1424
1344
-864
112
1504
912
384
-192
-80
544
-1104
-560
368
944
-1520
-1392
-1168
-832
-1600
-1856
336
1024
-256
464
496
-464
512
848
176
-48
736
160
640
-160
64
432
1504
0
-1408
1440
992
-16
16
1232
-560
-592
1264
-672
-496
448
304
1200
-1888
-560
-1600
-1296
-1408
1216
592
144
-640
-1984
1136
-208
-1040
-64
256
1392
1584
-608
-224
-240
-240
864
624
576
-512
736
