-224
-208
-144
-304
288
-208
112
128
384
-160
-368
48
-320
-256
144
-48
144
-96
176
448
288
-224
-64
-272
-208
192
-16
-16
-416
-704
16
-256
-416
-48
-336
-176
-480
-32
320
112
-112
192
128
-144
192
144
-224
80
0
64
0
-256
176
272
48
16
304
-64
80
-192
-448
-384
-96
-240
144
-80
-128
544
-144
-144
-256
-48
480
448
288
128
16
-256
32
-224
-256
176
224
96
-128
176
544
-16
-144
48
64
176
496
320
240
320
416
-32
-128
-48
48
352
224
-64
0
-320
-256
80
256
0
80
320
320
-256
-704
-720
-480
-192
496
352
144
304
480
160
0
112
-288
-224
-112
-224
-208
-480
-512
192
640
80
-144
16
64
304
-32
-32
80
64
-208
-144
-48
176
96
-128
368
128
272
-208
-192
-272
-768
-240
288
80
256
464
224
32
144
-320
-272
-16
-432
-224
32
-32
-272
-144
16
-48
240
80
-272
-32
208
512
96
80
-160
304
256
-80
-48
32
320
304
16
-352
-624
240
496
-32
-48
-304
240
16
-368
-288
-96
416
208
-128
-256
-304
-80
-384
-144
288
-48
-128
-224
176
464
144
96
224
176
128
64
-288
-320
-128
-272
64
32
304
160
-464
-208
-208
-192
-128
-64
64
-208
-144
-144
160
32
384
-112
96
48
-160
-112
-496
-272
-176
176
208
-192
-256
-32
-96
576
176
64
304
80
-336
-176
-304
-256
-112
32
-256
-208
176
128
80
368
464
-224
-32
-32
-240
-256
-16
112
240
128
176
272
448
160
512
128
-112
-448
-160
144
-576
-544
-192
-64
144
192
-208
-96
32
-32
-48
-128
80
224
352
112
432
512
368
-192
-400
-192
16
208
-384
192
-80
-192
-320
-176
352
288
192
-176
-112
128
-48
144
288
288
240
256
16
32
176
-272
-32
-96
-192
-560
-560
-64
-192
-48
-272
-256
-288
-288
208
-16
-32
288
16
128
-496
-272
208
-80
-336
-256
-160
-240
48
80
144
304
-432
-320
128
352
64
16
-96
-368
-32
80
-128
144
96
-320
-208
304
80
96
192
80
32
-48
-32
96
240
-208
-16
-32
16
16
-352
-128
-144
80
-128
112
-448
-544
-176
64
-144
-256
144
432
480
128
416
176
-16
-80
-224
-384
-48
272
-64
-112
0
-176
208
160
-208
-112
-368
-112
-192
-288
-144
16
-672
-688
-32
-224
256
352
64
-112
-256
-240
-336
48
336
32
-64
-144
304
256
512
288
368
0
496
720
96
112
-112
-48
96
144
272
-160
384
400
192
224
288
0
192
96
-144
240
128
-96
96
-96
-96
-240
-32
-400
64
-96
-80
-400
-320
-592
0
0
-16
496
928
512
64
-160
-160
96
48
-160
368
-96
-144
-64
-128
-368
-144
-608
-176
-192
-288
-320
-592
-272
224
160
96
48
-368
-240
368
-80
128
272
176
160
-240
272
512
432
112
-144
32
128
-336
-240
48
-368
-208
-96
-352
160
256
-208
16
128
64
288
288
304
176
576
320
512
384
16
320
528
-64
-368
-144
176
-176
-176
192
-176
-144
48
112
144
32
-336
-128
-112
-240
-128
192
48
16
384
-272
144
528
592
224
-224
-96
-128
-192
-144
-96
-240
-96
288
160
208
-32
-176
-320
-64
-160
-384
-304
-480
-64
-112
-64
240
16
-416
96
640
608
80
-144
-16
176
320
-48
96
-48
-224
-432
-336
-224
48
-480
-768
-144
-256
192
112
-192
112
-160
-32
32
416
336
112
224
16
48
-160
80
-80
-160
96
112
-80
176
-96
-144
-96
144
144
368
400
-112
144
32
128
-256
-16
-176
384
0
336
0
192
-192
192
-48
-448
0
64
-288
-240
16
-128
112
-624
-560
80
-96
16
0
-432
0
224
16
-192
80
-16
80
-80
-160
-304
16
32
112
96
160
416
48
224
-64
112
128
-16
224
160
192
16
128
176
-368
224
224
352
-176
-256
192
-96
-288
-304
-112
208
0
-272
-400
-176
112
352
-32
-512
-544
-416
0
400
256
-144
48
176
0
112
224
224
112
96
96
-80
112
32
288
624
592
352
192
-64
-496
-208
32
320
352
-48
-16
0
448
336
-176
-288
80
0
16
112
64
-16
608
-208
-560
16
336
16
-352
-384
208
-16
368
352
528
368
256
96
-352
176
-112
96
-400
0
-208
-48
0
-384
-48
-400
-192
16
256
64
-240
-16
0
-352
112
-112
-16
-160
-208
-656
-192
128
368
96
544
384
32
-224
-192
-48
144
96
304
336
0
-304
96
-208
128
592
112
-96
144
448
-160
-256
-32
400
384
336
-144
-48
-96
-80
-240
-256
-144
-384
-304
192
336
400
16
-224
-80
352
208
96
368
16
32
-144
336
336
848
400
256
240
224
480
48
96
288
-160
-96
528
144
-160
-112
240
176
720
-64
80
32
208
80
-192
96
-368
128
176
32
304
304
64
32
-144
-336
-208
-144
-144
-304
-224
112
272
32
400
-48
192
-80
-256
-160
-32
288
80
176
0
160
624
48
-272
-32
-640
-528
-368
-320
-288
160
224
-144
160
-64
112
224
128
-512
-640
-336
-128
-176
-256
-80
-144
256
480
-48
-64
80
-256
-64
80
512
608
496
336
112
384
-80
16
224
-640
144
240
-224
16
-144
-224
96
-16
288
-48
-496
-208
-448
-16
128
-16
80
48
-96
-144
-192
-304
-336
-112
-96
96
160
576
336
208
336
224
-304
96
-96
-128
-128
272
-16
-256
-80
0
304
128
-16
-352
-496
-640
80
336
-288
-528
-48
16
64
-128
-336
-256
64
208
96
32
128
448
544
160
-48
-32
-96
-416
96
256
-160
-528
-48
208
304
416
352
48
-128
96
80
240
-272
-128
-320
-64
-272
48
128
16
16
-544
-304
-352
-416
-400
224
400
0
256
160
-304
-112
256
-192
-80
-320
-208
-16
-448
208
-272
-64
320
-64
-208
-704
-368
-144
16
16
-240
16
48
-144
-208
-336
0
-32
-64
-400
128
144
-16
448
64
-128
-160
32
96
112
-176
-112
144
48
-384
32
160
-48
-496
-608
-32
-144
144
0
80
-64
-208
-256
192
112
-32
448
-256
-48
384
480
416
80
-400
192
304
0
0
528
256
144
256
16
-288
592
144
-240
-16
544
320
288
448
80
192
-144
-528
-320
32
-256
-304
80
144
240
432
288
-128
-144
48
48
48
320
-80
-240
272
208
-160
192
-64
-336
-96
-48
256
416
-192
-352
176
-112
-128
-304
-128
192
288
0
-208
-304
32
144
-128
-144
-288
-256
320
-32
64
336
416
176
-288
16
48
-336
-384
-208
-256
288
128
-368
-160
-160
448
240
48
-64
32
-128
-64
-336
-384
-304
-32
-64
-320
-176
416
320
224
0
-320
-224
-464
-640
-560
-880
-80
48
112
192
208
-96
144
384
-416
-32
112
-320
-480
-256
112
-304
-160
-16
-128
256
128
-176
112
592
352
0
-656
-224
208
-224
-672
-512
-464
-208
-336
16
-64
-208
272
-32
224
-64
-480
160
512
320
-48
-288
-144
96
16
-144
96
-352
-336
-112
32
176
-288
-352
-48
-560
-176
-224
0
-192
160
-96
-432
-272
64
-416
160
304
256
-368
112
-240
-96
0
-304
-128
-208
224
272
320
64
-304
-224
16
-128
272
272
-144
-144
144
48
192
256
208
48
-112
144
32
-576
-240
-608
-352
-160
64
240
64
128
32
0
-224
-320
-128
160
16
-432
-160
-112
-304
-368
-352
-160
-176
224
-96
432
224
304
16
176
496
432
400
-192
-432
-224
-144
-48
320
128
256
-16
-336
80
32
-464
-96
-240
-16
160
432
192
80
-384
-672
-560
-256
400
448
480
32
-240
208
48
-256
80
-272
-704
-256
-96
-560
-704
-272
224
128
96
-352
-416
-304
160
-112
-144
-64
-80
-80
144
-176
32
160
192
-80
-400
160
-32
112
0
192
-224
-48
224
208
400
336
336
-224
-208
144
-224
-112
80
-432
-288
160
384
240
176
-16
-400
-352
-96
304
-80
-400
-448
-112
-368
-192
16
336
48
-304
80
0
-208
-96
-304
48
0
-320
-176
-384
48
-384
-496
-256
-448
-16
-144
16
-64
176
416
-64
-304
80
272
128
128
0
-192
-32
-208
-224
352
576
128
-496
-272
-160
-512
-80
112
336
320
-208
208
240
-80
-736
-352
-480
-224
560
416
-176
48
16
32
128
336
112
-64
-288
-48
-128
-32
416
128
-400
176
64
-336
-320
-272
-144
16
128
208
256
48
-160
-160
208
112
432
80
192
112
16
480
-112
144
160
-160
160
-176
-208
-128
32
-144
-208
32
64
-80
-144
-192
-288
64
0
48
80
-64
-48
176
-80
288
432
400
224
-112
528
512
352
272
128
-336
-368
-448
-224
48
528
192
208
336
416
192
-288
-512
64
128
-16
128
-416
-544
-256
16
320
64
144
32
-624
-16
96
-112
-288
-160
-64
176
208
0
-80
-176
64
-96
-96
320
192
-528
-304
-528
16
384
-208
96
240
352
288
128
32
336
112
-256
112
0
32
-96
-272
-16
224
-16
-112
-320
-400
-416
256
144
-192
-160
-256
48
192
80
-64
-288
-464
-320
0
96
-192
352
320
272
704
192
208
32
-128
320
16
-48
288
240
-96
-96
-256
128
-272
96
272
-192
112
-272
-352
-400
-496
-464
-32
-160
-80
-272
-320
48
-352
288
96
-48
32
368
-64
16
-336
-192
32
16
-160
-144
-112
-192
-544
-320
-64
240
-144
-96
-608
-272
-464
-176
32
-256
-624
-112
672
528
576
64
-256
-336
-48
-160
-368
-224
-416
-416
176
-400
-112
272
112
144
16
-240
-32
-32
240
224
-144
-112
112
336
320
-144
-192
64
272
0
272
240
240
176
144
96
32
-144
-256
0
48
-32
224
-304
-240
208
48
-256
-128
144
16
144
176
-192
64
-192
-320
-160
-112
-48
-144
240
448
64
128
-368
-368
176
176
112
336
384
144
-80
224
160
-160
-128
-688
-624
-64
-64
-544
-96
400
672
-32
304
384
64
-112
-240
-32
224
544
384
32
-160
-32
224
0
-320
16
176
96
-176
-560
-416
96
96
-368
128
-240
-320
-80
272
32
-208
272
592
160
-368
-352
-336
-176
576
320
32
-336
-272
-112
-288
288
224
144
32
64
224
16
0
192
816
112
-80
-64
128
432
0
16
0
176
-416
80
-144
32
-224
64
240
192
16
528
-96
-512
-256
208
32
-64
208
176
-496
0
320
-288
-256
-64
32
272
-208
-272
112
144
112
-32
128
112
-64
-176
112
-112
-16
-48
-176
-96
-160
64
-128
-624
-416
-80
0
80
272
320
-336
-640
-304
-192
256
-96
208
64
-32
-48
-80
-48
336
240
32
0
320
80
368
480
336
96
-160
-512
-496
-384
48
80
288
400
0
128
592
224
128
-16
192
464
128
-64
-80
-176
-96
112
-16
-128
-16
-112
-208
-64
-144
64
48
-160
-16
144
176
432
384
416
-48
384
176
176
96
48
208
-32
-288
-176
336
-64
-16
-416
-512
64
48
336
320
-48
-288
-128
-240
272
-256
320
704
176
-384
-352
-176
-80
-400
-464
-304
-160
-32
-512
-160
112
608
240
272
368
208
144
-288
-160
32
224
256
-224
-96
-192
160
288
256
336
208
64
-144
16
-64
-272
192
-192
48
0
96
-272
-288
-416
-256
0
192
-336
-464
-128
-240
-16
-64
64
96
160
160
208
400
160
-128
224
-80
-576
-752
-128
-16
-64
-128
-528
-480
-448
-752
-528
-240
-608
-448
-64
224
-304
-208
-176
-112
240
160
224
384
480
80
-448
16
-16
272
512
-208
0
-208
160
96
-512
-464
-128
-192
-288
-352
-432
-336
-112
-16
144
-96
-144
0
-288
-368
-64
320
128
-208
-144
416
-192
192
352
128
-288
-32
80
-160
16
304
-320
-272
16
-448
-80
48
-192
176
176
-32
368
192
-16
272
80
-96
-128
144
112
-272
-448
0
0
32
352
448
-80
-496
16
144
-64
-192
400
336
128
-32
-320
688
384
176
192
256
112
240
64
384
560
-80
-240
224
144
-192
-224
-144
592
-64
-464
-592
-64
192
-96
-48
-272
288
288
-272
-672
-240
512
464
32
256
176
128
480
-352
-448
-640
-496
-144
-64
-80
-192
-496
-64
-32
240
80
-240
-144
16
-64
-288
32
-288
-240
-288
-96
32
-528
-272
112
304
320
-176
-304
432
-16
-32
-48
192
224
80
-48
-512
16
-272
-576
-288
160
512
320
-80
128
-432
-208
-320
-48
0
-352
-224
16
-176
-48
16
304
320
-352
0
176
96
-80
-96
-144
272
-96
16
-256
-256
-272
-48
-416
16
-96
-224
-304
304
336
-288
-352
0
144
224
224
112
96
48
96
304
288
144
-96
112
-16
176
48
-272
-288
-224
-224
-464
-384
-368
-352
-32
16
-48
-192
-112
160
304
-112
-48
32
-64
-144
-272
208
576
64
-288
-128
256
192
128
176
80
128
96
192
192
-48
48
-16
-208
-384
-64
32
32
-160
-16
32
-320
224
416
128
416
480
400
192
-512
-304
-16
16
-16
160
80
352
16
64
144
528
-32
-512
-80
48
-16
496
384
-400
-480
-352
192
336
384
-16
-112
-32
256
64
160
-240
-64
176
512
352
336
208
160
496
352
384
416
96
272
128
-272
-208
-320
-272
0
-80
816
672
112
80
96
240
384
256
240
432
144
208
128
96
304
-208
-448
-336
96
432
224
-192
-192
208
432
-64
-48
48
0
-160
-128
-320
-32
800
240
-96
160
400
208
-128
144
288
0
-112
-128
-128
-336
-176
-16
16
160
16
144
112
-208
80
64
240
96
-128
-320
-304
512
-288
-160
-304
16
-320
-384
-160
-480
-224
176
-48
112
-224
-464
0
-32
-272
-240
-336
-608
-304
-224
-320
-112
32
208
320
-48
-240
-208
-336
-48
-64
-432
-352
16
-16
-176
0
-64
-224
48
-384
-416
176
208
-352
-400
-128
-112
64
-176
-176
-160
-240
16
-48
-96
-128
400
288
-80
-224
32
80
128
288
-304
-544
112
160
-32
-368
-48
240
-240
-192
144
48
-96
160
0
128
192
-48
64
192
304
80
0
-64
192
320
112
208
96
128
192
272
-416
-432
-128
-32
-64
-240
-144
224
272
432
272
-96
16
-176
-480
176
352
336
48
-128
-112
112
192
48
-432
-768
-112
0
80
560
80
-432
-32
80
48
96
400
864
240
-112
64
-144
-176
-272
-144
64
-368
-64
224
-32
432
-240
-48
304
-80
144
48
-128
80
416
208
176
96
32
16
64
256
-192
64
240
112
-16
432
448
128
400
336
-32
-528
-160
320
-128
224
16
-144
-32
-432
-720
-144
-144
-176
112
0
400
496
-272
320
336
-80
-368
-352
-128
-176
96
656
160
-64
224
0
-320
-16
0
224
176
224
-64
-208
-192
64
-208
-336
-48
-176
-192
176
160
0
304
-16
80
-64
-240
96
96
-240
-528
-336
112
-32
256
176
128
304
272
16
-112
-32
176
48
80
32
16
-208
-64
48
192
-256
-352
352
144
-16
448
448
-32
304
144
192
-304
-64
64
-64
-48
288
224
-112
176
64
-320
-160
192
-16
-160
-144
-208
96
-224
-592
144
224
16
288
432
304
448
160
208
208
-192
-160
144
-224
-480
-512
-96
128
160
64
-320
-304
176
-32
240
-144
96
-240
-192
-96
432
192
16
-176
272
80
-48
96
-416
-144
128
-192
-384
-656
80
-304
-48
368
96
96
-128
128
144
48
-160
-112
-352
-128
96
-32
144
-288
48
-160
-400
-320
-160
32
-32
224
304
176
-160
192
192
288
-96
432
144
-96
0
-112
-624
-176
32
-32
-112
112
-544
-432
-64
-272
-144
288
336
288
32
144
-304
-160
432
128
-32
-176
128
32
-192
-288
-592
-720
-208
-160
0
64
16
-128
-16
288
128
384
64
64
160
-144
-496
160
-80
160
-32
-128
240
-64
-448
-336
-32
96
-128
0
-64
-432
-48
80
-64
-16
32
240
112
-240
-48
-128
-352
-96
384
176
32
-368
-144
64
-144
-64
0
80
592
352
112
160
112
-112
-112
80
-144
-80
144
64
-176
32
528
640
224
-416
96
192
-528
-208
-144
544
608
0
144
80
-208
-272
432
80
-64
-272
-80
176
256
320
-288
320
176
-160
16
176
160
-176
304
272
-128
160
272
160
32
48
-304
112
640
-64
-336
0
-32
-144
112
128
336
-80
-64
304
-128
16
464
80
-272
-592
-416
80
-48
-144
16
-48
320
-32
160
48
48
576
800
-16
16
48
-80
-64
-192
-624
-144
-384
80
32
80
-128
-384
-208
-672
-688
-496
-784
-240
-176
-96
-80
-320
32
-16
48
112
16
16
400
48
96
96
96
-208
-352
-96
-288
-144
-128
352
576
656
-400
96
176
-208
-80
48
64
128
-208
-368
448
704
464
208
-16
-272
-48
64
256
240
32
128
432
240
-128
-336
368
640
-256
-288
-368
-224
0
80
96
240
400
80
-400
-256
272
432
-32
-144
-224
-112
-48
-256
-256
-160
272
-144
-208
-128
-16
272
528
-16
32
-400
-240
512
544
608
368
-48
144
384
144
-48
0
32
128
224
192
-208
-80
-144
16
16
128
48
-64
-256
-144
-496
16
-192
-624
-240
240
-512
-256
-384
0
-112
-128
512
304
208
-144
0
-576
-384
-192
304
-192
-480
-272
-160
32
96
224
-112
-176
-448
-496
-656
-640
-368
144
-80
368
32
-80
-16
16
-160
208
192
-304
-592
-320
192
144
0
-192
112
-128
208
64
288
592
256
160
64
-160
-96
-144
-48
-80
-48
112
128
400
16
96
352
80
48
288
384
-192
-384
-304
-272
336
96
592
304
144
-176
32
480
160
48
128
256
304
496
384
176
32
80
256
16
-160
112
160
-64
16
0
-64
-224
-112
-96
32
-256
-64
-160
-176
-288
-336
208
368
96
48
80
-256
-320
-320
-240
-288
-112
-144
288
112
-144
-272
-256
-80
-96
160
96
352
64
-160
528
352
64
336
128
-112
-592
-144
128
-80
16
-96
0
-80
96
176
-416
-384
-480
-224
176
-80
-80
-32
208
-48
-192
-112
80
-112
-224
512
-256
-48
336
224
96
-336
64
-96
-368
-128
480
-64
64
-368
-384
-128
144
272
48
-368
-160
208
144
128
128
0
-48
-32
-160
-336
16
192
384
256
-144
-48
-320
-208
304
128
-368
-96
128
-240
208
-272
144
-32
-224
-128
192
112
-128
48
-192
-208
224
-128
-224
-96
-16
-240
144
192
48
32
64
16
-272
80
208
48
-352
-528
-80
-224
16
592
192
240
592
80
160
-272
-224
-32
432
-144
-48
240
192
48
176
-192
-496
-352
112
-384
-112
32
-112
-112
-96
112
-112
256
192
-80
176
416
-304
-144
-256
-448
-80
304
336
304
32
64
16
448
176
384
176
-160
-192
160
-160
-80
-560
-256
-304
160
384
-272
-256
320
368
-160
-608
-368
-192
-128
-80
96
224
-256
272
608
80
-48
32
-112
-112
400
64
-16
368
-64
-48
-304
-112
32
-320
-336
-240
224
144
-32
-352
144
240
-160
-64
576
672
384
-256
-160
-32
-176
-352
48
-240
-560
-96
112
400
112
176
224
32
-64
160
-304
-304
16
128
-176
48
432
-160
-48
416
-64
-128
128
160
48
-32
-448
-352
-64
-176
-416
-160
-128
-112
96
416
256
64
240
304
304
304
208
144
16
192
352
160
80
224
128
352
-80
-176
256
192
-128
16
368
128
0
64
240
32
192
368
400
80
288
-112
64
-128
-128
-16
368
400
-112
-128
-128
-16
336
192
-176
-80
-224
-144
112
80
144
16
224
208
560
256
-16
-32
288
-112
48
32
0
512
224
320
128
-592
-288
-256
-224
-432
-208
-112
-80
-144
560
352
-32
-416
-576
-592
-496
-304
-176
-144
0
32
144
480
336
352
-176
-64
-112
-416
-304
-48
592
768
352
736
560
-128
-192
-384
-160
-64
-256
-352
0
-256
480
320
-160
400
-224
0
208
352
-160
-464
144
-176
48
-48
-240
144
0
-112
144
-112
-80
-32
272
432
-192
-704
-208
144
336
256
-112
-224
-80
32
368
-16
-256
64
192
240
-48
-448
-432
-304
-96
-192
32
-240
-320
144
16
48
-224
384
320
224
288
240
-240
-240
64
240
0
-192
224
32
-208
-432
-512
64
272
-32
512
448
-16
96
32
-576
-112
-304
-64
384
-32
-160
-64
-32
-32
-48
32
64
-128
-256
-144
112
-96
112
368
544
-16
96
80
-16
32
512
400
144
-80
-16
-96
-480
-528
-608
-112
-48
-304
32
-192
-176
-144
240
-64
16
-352
16
240
288
-336
-480
224
528
480
224
-128
-64
160
16
320
768
448
288
-128
-96
-32
32
-48
-320
96
720
240
304
240
-176
-240
-304
-112
160
96
144
368
304
-96
128
816
304
160
416
128
-80
368
-144
-240
544
224
-400
48
144
-544
-144
0
272
208
-416
240
96
-64
192
-96
-320
-208
32
80
-240
-304
-688
-336
-192
-96
-128
-192
608
112
-192
96
160
-160
-304
32
-128
-32
-128
-64
336
-208
-256
-144
16
16
-32
-128
-176
-208
192
432
-288
96
80
-48
64
448
336
112
496
624
576
288
-560
-48
160
128
448
368
224
176
16
0
160
-128
-496
-368
-112
-384
-208
-256
-144
0
-256
160
0
-208
-64
-160
-416
-336
-32
224
112
-336
-112
352
96
-64
208
336
-464
-384
-272
-368
240
256
-336
-176
144
-256
160
336
208
-112
-96
256
-112
176
-80
-496
-128
144
320
-96
0
-112
-96
176
-128
-80
128
368
-576
-272
256
0
-112
-240
-192
-16
80
-384
48
448
208
-544
128
240
160
-304
-304
320
96
-112
-320
-288
96
-96
-224
-224
-128
320
160
-96
-64
64
112
-64
16
144
-80
-304
64
48
336
-224
-720
-400
-496
-624
-496
32
448
224
16
448
224
272
288
-96
272
336
160
304
-224
-160
64
0
112
-96
-128
112
320
-144
128
448
-64
-576
-528
-160
-240
-384
224
288
48
-352
-208
-48
384
-48
-32
32
128
96
336
128
144
48
-112
-432
-544
64
-16
240
496
144
-32
160
304
64
304
80
240
-16
-128
0
-144
-48
272
208
-64
-304
-96
16
48
-464
-416
-160
384
752
-304
-496
464
32
32
80
160
0
352
16
-16
-48
160
560
-32
-368
208
-224
-368
-176
-80
-256
352
336
-368
-432
208
-176
-752
-736
-432
-320
-448
-304
32
240
16
240
240
160
128
-80
368
464
128
-16
32
208
-16
-224
-192
0
-48
-64
-272
-80
80
-16
-16
288
496
128
-416
-272
-80
-432
-528
-352
-416
64
224
176
-192
-16
16
48
-48
-304
-192
-144
224
144
-224
-48
192
-224
-320
48
480
176
80
-240
-368
-96
64
320
320
416
-16
224
144
-32
-416
-128
-48
-352
0
304
176
-48
160
-16
-192
-224
-80
48
400
80
-48
144
192
176
128
288
176
-96
224
176
96
0
0
112
288
-208
-528
112
512
-144
176
0
-240
160
384
448
176
32
-288
-208
208
96
-416
-144
352
128
-304
-928
-416
128
-80
32
-400
64
32
176
272
128
64
-224
-160
32
368
-112
-352
-240
-256
160
-32
208
96
-352
-208
16
-160
-304
-576
-368
96
512
-272
-96
160
-112
-224
-608
-224
288
-112
112
-32
176
496
128
304
320
-80
256
80
-144
0
80
96
176
-96
-240
240
480
320
-32
256
256
-48
64
-336
-512
368
112
-496
-112
-48
-272
560
336
352
-144
-80
-240
-432
-208
-336
64
336
-128
-432
-464
96
-32
-48
416
288
144
16
-80
-80
368
416
-32
208
640
176
48
256
336
-336
-464
-352
-496
-160
-672
-448
-496
-256
-128
-352
-128
-64
-352
-48
64
-48
224
-80
-48
272
-16
48
16
160
208
-192
-496
-656
-176
-64
-224
128
-16
176
-96
-144
144
368
448
208
-16
320
16
-336
-480
-432
112
-128
-208
-256
-352
-384
192
-48
0
416
-112
-320
-208
-128
-80
176
-224
-624
-96
-80
-48
-560
-336
-288
-416
-320
-240
144
352
-16
128
448
-48
-128
-64
240
32
320
176
-32
64
128
560
368
96
48
336
224
48
-16
112
-448
-112
80
-176
-416
-336
192
640
672
272
304
368
176
-96
16
144
176
784
256
32
688
384
176
128
128
32
16
256
-48
-64
-160
-16
160
-208
-176
448
48
-208
208
16
-384
-576
-256
-80
-208
160
112
-96
480
208
-208
-400
-576
-176
64
-384
32
-112
-128
-144
192
-64
-96
192
224
48
-320
-352
-160
96
512
112
272
128
-320
-288
0
336
112
160
272
240
-272
-64
-160
16
-80
-224
48
-192
-480
-256
192
320
-16
288
80
160
80
-80
-208
-288
-160
64
-400
-448
-128
0
528
480
-32
-32
272
-80
144
-304
-192
48
96
-96
-352
-16
-96
-192
-80
320
96
-128
16
80
96
-384
-336
112
336
112
80
-368
-304
-448
208
208
288
-64
-304
-288
-384
-96
304
256
-176
-32
128
-144
48
352
48
-592
64
-224
-288
-64
80
96
112
256
288
208
0
-96
-192
-496
-208
-96
-112
-96
80
240
-96
-16
224
80
-240
16
-80
112
0
-144
144
368
368
128
176
-144
-96
256
-16
-144
128
-384
-176
-176
80
304
-624
-592
272
-64
-48
240
304
304
144
-368
-64
-224
32
208
-368
16
208
-192
-112
-256
-192
64
16
-160
-272
-96
-208
0
224
224
32
160
16
-240
-544
-240
16
-272
-16
96
320
-128
-240
96
64
-224
-240
-304
-272
-208
-352
-240
80
-432
-16
288
160
-32
-112
128
0
-288
0
160
-272
-560
-144
112
-160
16
-64
-160
160
304
192
-112
-208
-256
128
368
-112
80
224
-128
-16
-416
-112
128
144
192
16
144
-496
-240
-128
-128
-256
-336
-160
128
-96
-64
0
-128
-80
-352
-416
-336
112
-128
-400
128
48
-288
-640
-32
96
96
-256
16
-320
-176
144
304
48
-128
-176
80
192
304
0
-480
-400
192
256
16
-464
-496
-64
272
-96
112
128
48
-352
128
-112
64
256
-240
96
-368
-512
-304
112
176
-352
-320
-432
-432
528
496
384
48
-544
384
80
-48
80
32
-368
-64
112
-64
-704
-672
-640
-64
-64
112
-208
-160
-240
32
208
64
0
-128
-176
272
-240
-144
32
16
-32
64
208
-64
-304
16
-144
0
-352
-144
112
176
96
-368
64
736
512
-304
-224
96
96
-96
16
240
368
112
112
-32
160
192
-80
80
-240
-416
144
240
128
224
272
0
16
-16
80
-80
-48
-16
-176
-208
-464
96
176
304
496
544
320
0
-384
-368
-128
-464
-496
160
256
1056
448
-304
96
64
0
-208
-80
-96
32
-160
160
352
448
272
-64
-304
-160
-112
176
-224
-512
-736
-432
256
112
-240
-432
-208
48
112
32
0
224
208
80
160
-368
-448
-48
176
368
-272
-400
-112
-16
256
112
144
560
432
-272
-432
0
368
448
-192
-160
-32
-176
-48
384
160
272
0
48
-384
-16
560
272
304
0
384
608
128
192
-320
16
496
176
-224
-192
80
-192
208
208
80
208
176
16
-32
-32
-16
208
-80
-96
80
336
-192
-240
-384
-144
192
784
208
48
0
-320
-128
480
416
128
-80
-336
96
-384
-224
0
-160
-208
-80
32
-544
-112
-224
-320
-160
144
416
96
48
-32
-224
272
144
-64
-80
48
64
64
-224
-192
-48
-16
384
160
-96
-176
-224
80
-160
-608
-320
-128
208
-256
-80
-80
384
-16
-384
-48
16
-320
240
272
-144
-464
-672
112
-192
0
304
-320
32
272
592
576
80
-128
-272
-432
160
48
96
-112
192
224
64
-384
-96
48
-352
224
192
-16
448
-48
432
80
256
-176
304
240
416
224
448
96
-272
-96
400
32
80
64
80
16
208
224
-112
-528
-208
16
-96
-32
-288
-336
-304
-240
-272
-48
64
160
256
-432
16
80
-176
304
64
-128
-176
-224
-256
-96
-48
-96
-208
304
192
-32
-480
-704
-176
-224
192
-176
-64
224
-80
368
384
-128
-368
80
304
176
64
160
-48
-272
-304
-336
-112
-224
-512
-160
-288
-336
-400
-112
-16
0
-192
-224
176
48
-304
-128
-272
-112
128
240
320
224
-96
160
-272
-192
448
384
-528
64
704
96
-384
-96
32
96
80
-576
-608
-384
288
256
144
-48
-688
-512
-224
-32
-32
32
-304
-144
-64
-112
-32
-272
-496
16
-240
-240
-448
-336
432
304
48
-160
0
-608
-576
-544
-208
224
240
-128
512
512
-32
-32
144
176
112
144
128
272
80
-160
-400
-336
-48
128
112
-352
-272
-416
-112
208
352
-208
-272
-432
-432
-320
-448
0
-96
368
-80
16
48
32
-160
-16
96
144
-48
-176
-192
-208
-256
-192
-176
80
-272
112
64
-192
-48
48
0
240
176
128
672
480
400
256
64
-224
672
736
32
-144
176
160
-112
-208
-144
-464
-144
-64
-320
-352
-128
256
-160
-160
-384
-400
48
0
400
80
-128
64
448
-128
-368
-192
64
-272
-192
-48
-80
208
304
-32
16
384
112
368
32
-304
-352
-672
-288
320
48
208
48
176
336
256
288
416
-32
32
400
160
144
176
-288
-192
-16
-480
-16
560
368
-64
-352
-208
144
-64
-96
-224
-32
-320
32
400
32
-240
-368
-160
-208
352
512
128
-496
-16
144
-352
128
304
176
-16
-208
-368
-112
240
560
112
-144
-48
-272
-256
224
208
-48
176
544
640
32
-160
-656
-320
-384
-416
0
-256
128
144
-176
176
352
416
528
192
432
256
608
0
128
-64
-144
400
-128
64
448
336
160
-32
-240
64
-176
-624
-48
112
-240
0
384
368
-160
192
288
16
-112
32
144
-384
-176
96
-352
192
-224
-400
-512
-208
-144
112
-240
-544
-480
272
-160
-208
32
64
-176
256
32
-448
-128
128
-16
0
320
-160
-176
-336
-32
-208
240
272
-208
-64
-208
-32
272
304
16
-256
-192
-96
-480
-448
-48
224
320
80
-128
-176
448
144
80
80
336
288
-64
272
160
336
320
224
-48
-336
-176
-336
-208
-192
192
160
-128
0
192
192
-32
112
-256
-480
-256
464
-64
-64
-224
-112
-16
192
144
-32
-80
112
32
0
400
64
-176
320
-256
-656
-528
144
144
736
112
-352
-64
64
176
208
544
656
448
48
-208
176
-32
-464
-240
-224
-384
-352
-320
224
208
496
0
-208
-368
32
-112
128
32
-304
-144
-192
-128
-240
-80
-144
-288
-144
352
336
128
-496
-624
-400
32
832
208
272
224
-320
-240
-320
-16
288
400
0
-624
-288
-32
-160
32
0
16
-32
112
48
-144
-112
-112
-400
400
0
-128
-352
96
-64
-32
-16
-208
-496
-544
-176
-208
384
560
0
-496
-256
-80
32
32
-192
-368
-224
304
272
192
192
192
-112
128
272
208
-304
192
0
368
48
-336
-112
-144
-352
0
576
352
-112
-16
-32
-16
144
288
64
112
144
-176
-176
-304
-384
-304
16
-192
0
-48
-32
64
48
-64
-112
208
-352
-48
176
192
160
48
-256
160
480
-80
64
-80
-112
256
-16
80
80
-80
-224
80
-32
-112
-448
-624
-256
-544
-320
288
-16
-160
528
32
176
0
-240
-64
112
48
-96
-288
192
-32
400
48
272
288
48
176
368
-432
-64
240
0
-160
-128
-80
64
176
272
224
-64
272
-208
-160
16
208
368
384
208
112
-64
-416
-240
256
-256
-240
-192
-384
-160
112
160
-432
-304
160
64
16
240
-384
-208
-192
368
576
-112
-224
-352
-176
-128
-256
-32
-16
208
304
128
-64
-224
-496
-176
-96
176
80
368
432
48
-48
-192
-64
-256
-208
160
368
112
-144
208
-208
-912
-16
48
-368
240
416
144
-272
-464
-528
-320
32
144
256
-32
-304
-368
-144
-224
112
-208
-176
144
-272
96
256
0
-608
-144
-128
-144
112
272
176
48
256
288
416
320
32
160
-160
-192
512
112
-224
288
-208
-176
-496
-464
336
336
96
-64
-512
160
48
64
400
192
0
352
272
-368
-208
-48
-32
48
80
256
-320
-256
-128
16
240
-160
0
192
80
-416
-464
128
-112
-176
464
336
160
16
-560
-176
112
-192
48
128
-336
-336
32
-192
0
224
-64
-160
288
144
-128
-48
-352
-368
-512
-448
-240
-160
-208
160
-64
224
416
-64
-464
0
-80
192
320
-112
-112
-480
-512
-64
416
80
-464
-256
16
64
320
240
-16
608
336
400
-48
-288
48
624
288
-464
192
304
128
400
224
112
480
432
-48
320
80
-256
96
-240
-176
528
608
224
176
16
128
48
288
208
224
208
-464
-432
368
240
-64
-272
32
304
-368
-80
224
96
208
160
-192
-192
336
-240
-688
-448
-224
-112
224
-240
-400
288
464
-272
-192
-384
96
-288
-432
-720
-576
-208
144
464
288
176
16
-512
-128
-160
-16
496
-352
-96
-160
-336
-224
-368
-336
288
464
96
-320
-32
-208
-80
320
96
-240
-416
-304
-352
48
160
192
-160
0
176
48
160
448
272
592
320
-32
-368
-32
224
448
272
-112
48
-192
16
656
176
-336
-64
160
160
352
32
144
-368
32
0
432
512
288
304
528
112
400
592
208
-368
-432
-144
-160
-112
160
-16
-432
0
-64
-48
-96
96
-256
-528
-224
32
-32
352
176
0
112
80
-16
-96
-192
-32
-96
112
-224
256
544
208
128
688
80
112
-128
-592
-320
80
256
208
-304
448
528
240
496
-144
-304
-208
-512
-400
-96
480
208
-16
-336
64
128
-128
-560
-512
-240
144
192
448
336
432
208
48
656
384
208
-528
-128
-32
144
432
240
-336
-32
96
-176
-352
64
48
336
-352
-336
-16
304
80
288
240
-96
-304
-16
-16
-128
-48
112
208
-112
-320
192
160
-16
208
576
160
224
272
48
-192
-128
-64
96
-128
-112
224
64
-224
112
384
32
224
288
704
-192
96
-496
-304
-48
112
624
256
32
-128
48
0
48
-96
16
-80
-272
-144
-64
80
-176
-304
-128
16
-144
-64
-96
160
544
352
0
-80
-192
256
304
272
32
-208
32
0
16
288
-48
-112
-112
16
400
-128
-176
304
464
384
64
208
-32
160
-128
208
32
-336
240
-288
-32
272
-128
16
400
112
-352
-16
336
336
176
448
48
240
752
-256
-576
-64
-96
80
176
-128
-224
-240
-384
-224
272
16
176
288
96
128
64
48
176
160
448
-208
-160
176
-400
-368
-336
-112
-272
-64
-48
-112
160
192
-48
-32
288
288
-304
-304
48
-32
48
-176
-112
64
-224
-272
48
-48
-96
64
-320
-304
16
64
512
512
-128
-288
-32
-32
-208
-336
-64
-48
-208
752
384
256
416
144
-192
-160
-112
-304
-80
-320
-272
208
112
64
-320
96
-144
0
144
48
-96
-32
-64
144
176
48
-240
-128
-128
192
240
160
-96
-128
80
672
304
160
192
-192
64
400
240
-400
-448
144
-240
80
-144
-304
240
176
-240
-432
-16
368
256
-144
192
608
192
-16
224
320
32
0
-96
-192
-128
-128
112
144
192
16
336
352
32
-128
-32
-32
208
-240
-272
-352
-16
-256
-480
-576
-512
-304
-480
-208
-112
128
240
16
-128
16
320
272
224
-112
400
464
112
-272
16
-192
224
208
144
-560
-512
224
48
-256
-608
-448
-320
-48
368
-16
-80
-192
320
288
48
336
416
176
-288
0
-416
-176
48
128
-144
-144
272
-368
-800
-432
48
160
-384
-672
-64
16
-112
-160
64
80
272
512
448
240
208
64
-48
-272
80
-160
-656
80
-32
-176
-176
-160
0
-128
-112
64
368
400
208
-96
128
160
128
64
-112
-208
-80
752
384
0
96
608
128
-96
-80
-144
-480
32
80
160
304
112
-224
208
112
192
-112
-48
208
-144
80
-240
32
-16
-128
-128
-64
144
-48
-368
-80
-480
-304
176
-480
96
-32
-240
96
656
336
384
-320
-560
64
192
192
32
16
-192
-368
48
256
128
-240
-208
32
-288
-224
-128
400
160
80
-320
-32
400
320
176
-80
-272
-240
-16
-176
-544
-144
32
-48
288
384
496
464
208
416
624
304
-112
-320
-576
-384
32
-64
-176
-128
-304
-144
304
-224
-352
-368
240
-224
-640
-128
-160
-96
208
-144
-128
80
304
-240
192
-32
80
320
-144
-160
-400
400
16
-80
-224
-144
144
-96
-352
-48
-144
-256
-16
80
-64
-80
-96
-208
-208
-80
128
176
208
48
-64
-336
-320
-48
-560
288
288
-64
0
144
320
192
96
0
384
512
-160
-112
-80
-112
-368
48
112
-160
0
-144
-224
-16
-256
0
-224
80
-48
112
32
-112
-64
48
96
208
368
288
-112
-96
240
272
160
-192
-176
64
192
-240
64
416
224
-80
-240
-48
-256
-16
-160
128
144
-272
-304
-32
-48
-64
96
-32
336
-320
-416
80
-48
80
-112
144
-272
-208
96
144
-160
-256
-240
16
224
-112
192
576
400
-128
-496
-464
368
-32
-160
-64
-48
96
288
128
-176
64
128
-160
112
0
32
-224
-352
-16
-160
0
240
144
16
-96
-64
128
0
-224
128
192
64
0
-112
-160
144
32
-128
416
-32
-304
-400
64
416
304
96
-112
-192
-256
-192
-112
-416
-352
48
-400
-128
224
32
272
272
-16
112
240
416
-240
-64
176
192
304
64
128
288
128
-80
-64
-80
-496
-208
80
-64
-208
112
672
736
848
48
144
224
96
96
64
0
720
496
48
96
48
-416
208
352
512
224
-304
-128
-64
32
-176
192
496
-160
208
256
576
544
-32
80
304
240
0
288
496
224
0
-64
-368
-144
-144
-48
-224
-144
-192
-128
-192
-240
-80
-160
48
336
192
48
80
128
-16
-160
-144
-144
-208
-288
-688
-352
-112
96
128
224
208
496
-240
64
160
-80
-80
-400
-544
-96
400
-16
-496
-304
-64
-48
-208
-32
-272
-528
-208
-144
-256
384
528
192
-16
112
-96
304
240
192
80
-416
-336
-304
160
576
32
-432
-288
-176
304
-16
-128
-224
-16
-32
96
-80
-272
128
304
144
-192
-400
-352
304
0
-496
16
128
224
192
-208
128
320
608
160
-496
-16
176
128
0
-32
-112
-64
-144
-112
32
-320
-32
-128
-160
-384
48
-48
0
-304
144
144
-352
-96
352
560
208
96
-96
-304
-304
-176
-192
-192
-16
128
-336
176
48
-160
96
-144
-416
-32
-480
-64
352
-64
16
96
96
240
80
176
-240
96
32
0
0
-320
-176
-288
416
624
448
640
176
-112
-112
-240
-272
-208
-256
-480
-384
-32
176
-560
-80
128
-400
64
32
-496
-640
-432
-96
-320
-160
-208
32
448
-16
192
208
-160
-144
-16
-224
-272
-176
-672
-192
-416
-448
-32
112
-128
-176
288
432
368
-176
96
160
-112
80
224
48
-32
48
-80
320
192
480
512
224
-192
-240
-192
304
512
-96
-352
-272
192
608
272
-272
48
-272
304
608
544
-176
-208
192
80
16
32
-112
-64
192
192
-96
176
-416
-432
-256
128
-208
-16
80
112
-144
-416
-128
560
224
-256
-288
80
-80
336
384
352
336
352
128
64
-208
-480
-304
80
-192
-96
256
0
48
368
448
-480
-304
-176
-144
-128
-192
-32
-64
192
272
0
-64
-192
448
400
16
-448
-480
16
288
208
-96
64
-352
-480
-144
-80
64
-336
-544
-176
-128
-176
-448
144
224
-80
-208
112
-16
16
-112
-16
32
416
-112
-224
-240
-96
160
64
-352
-336
-256
-304
32
-64
0
-80
-128
80
16
416
240
80
336
448
320
480
112
16
-384
-48
160
-176
-144
448
448
320
-96
224
-64
-32
352
128
32
-80
-48
-464
-320
192
0
-160
-464
-96
288
96
-112
48
208
80
-48
-288
288
272
80
-480
-560
-112
176
-80
16
-208
-128
368
464
336
-256
-16
224
-96
-96
-336
-352
-608
-512
-432
-96
-160
-400
-64
-64
-560
-48
352
384
16
-336
-64
176
64
-352
96
-304
-256
304
240
320
64
208
64
144
352
672
80
32
16
16
-224
16
256
288
272
208
464
304
240
-528
-288
160
64
256
32
0
-144
-544
-96
208
64
-176
-48
-112
-64
224
304
176
144
176
320
-432
-160
176
112
96
128
208
208
304
256
-144
192
208
-32
-288
-176
32
-256
-224
-48
-224
-16
16
-16
-80
-176
-432
16
464
480
32
-128
-368
-176
-32
-192
-368
-352
32
256
-320
-672
16
-176
-272
-608
-192
432
96
64
144
240
-16
-112
112
-496
-448
-336
208
16
64
-160
96
32
224
-288
-448
-720
-240
-368
240
0
-528
-160
-560
-192
-144
-272
-160
-432
-128
128
-16
-400
-448
16
48
-80
-256
-416
-512
272
512
0
-720
-208
80
-80
128
-192
-464
-96
-160
80
96
192
-48
-160
-176
-96
-240
-208
80
-128
-336
-560
-480
-256
-64
352
240
32
464
-32
64
240
-112
-208
-560
-192
112
-96
192
304
880
480
48
64
-48
-160
32
-384
48
384
80
160
512
176
64
112
-272
96
288
144
64
208
64
-48
-208
-128
288
512
-160
-512
-608
32
464
272
432
-96
208
-144
176
272
128
-448
-256
272
-192
-288
-176
-208
-208
-80
-272
-96
144
-128
-512
-560
-288
-96
-432
-336
-304
-64
-16
-96
-176
-64
336
208
-176
96
368
-272
-256
-432
64
416
176
-144
-320
-96
128
-128
-336
-336
112
272
192
-112
-176
224
848
-32
112
240
-176
48
304
32
-256
-304
224
448
48
304
240
32
-32
-128
-128
192
-208
-304
-80
240
192
16
272
176
112
128
-224
-112
16
128
-64
-256
-32
48
-80
-128
-112
-256
-96
-304
-272
16
208
-112
-320
-16
288
224
464
480
64
-416
-240
-272
-304
0
128
272
-112
224
352
-80
0
-192
256
-160
-432
-256
32
368
208
176
272
112
-192
32
144
-288
16
-224
-208
80
-384
256
16
-192
-320
-16
0
32
64
-48
-160
-288
-224
176
32
-48
-144
-64
-128
-224
-368
-48
-48
-192
-608
-304
-176
-256
16
16
-64
-112
-16
-208
-64
128
128
128
-16
-16
-320
-176
-256
48
-304
-256
-416
-288
-272
560
128
-176
160
-240
0
256
-112
160
-96
320
352
-256
-112
-128
-128
-160
-400
-336
-496
-176
480
256
-384
-144
48
336
0
-48
304
0
-16
-144
176
480
656
560
320
64
112
96
-240
-16
80
496
128
-160
-416
-416
-32
-352
96
-32
224
-576
-384
-320
-336
32
208
80
-16
-144
-96
-192
-80
96
144
-64
-128
-16
0
-288
-160
-128
-336
-368
-304
-208
-368
-16
656
480
96
-64
256
416
304
16
416
304
48
-64
272
96
-80
0
-192
-512
-320
512
-192
96
384
96
-752
-352
528
368
-48
-208
-592
-128
-384
-32
64
128
-144
-160
-240
-64
464
240
128
-224
32
-64
-512
-16
16
-128
32
-192
-80
480
48
-384
-32
80
480
-80
-80
-240
-528
-320
-464
-272
64
-336
160
480
-288
208
864
704
480
-96
80
176
224
0
-112
-128
-32
48
-288
-160
64
-320
-576
-384
48
192
112
96
48
208
448
128
-32
16
624
368
-96
112
608
432
-96
-80
32
-48
304
576
480
-288
-240
288
-16
-80
-112
32
272
496
112
-144
-128
160
-160
-32
0
0
64
272
-160
160
320
-224
-128
-128
-128
480
384
256
16
-256
-272
-128
-96
-96
384
400
-176
-48
-272
-320
-256
144
160
272
64
-192
-64
272
256
240
-144
48
384
240
0
-96
-160
-368
-256
-288
192
-16
96
352
-64
304
-208
-176
-208
-432
-128
-560
-192
336
16
-32
-16
-576
-528
112
64
-48
-112
-112
224
160
-128
112
-144
-480
32
224
48
-192
-256
-272
240
256
96
-224
-320
240
352
384
240
-240
-32
0
-80
-160
80
-112
-112
96
-64
144
416
0
160
32
-16
128
240
448
720
0
16
-176
-288
288
416
240
208
-432
176
432
-16
384
-48
-160
256
336
-176
-336
304
192
272
160
48
-128
288
128
-32
160
192
-368
80
384
144
464
-80
96
-208
-192
240
240
368
0
0
320
144
320
208
96
-192
-112
128
48
480
208
192
0
-240
64
-96
96
80
-144
144
-192
-432
-80
128
80
-160
0
192
192
-64
-336
-112
-32
96
128
304
-16
-112
-176
144
80
16
368
32
416
272
16
-48
208
144
208
512
208
64
-304
-224
-144
-64
-400
-224
-48
144
-208
-576
272
-208
-128
16
64
-32
-144
-80
-240
-544
-128
368
16
-32
144
192
320
160
-144
-128
-352
304
96
-464
-160
464
48
-480
-112
-48
-144
0
-176
-160
-240
176
-80
112
304
-144
-96
-80
-288
-160
-304
-80
80
416
-16
-160
-400
-304
112
-464
-464
-416
240
416
256
432
512
208
336
640
224
-16
-128
0
192
208
448
-80
-160
32
448
80
-256
-224
-400
-592
-432
112
-64
-32
-240
48
-96
352
336
112
128
48
-64
256
368
496
144
192
320
592
400
-208
-752
-352
-128
-384
-480
32
448
144
0
400
608
-32
0
96
208
160
48
112
48
256
176
-416
-384
-624
256
528
-64
112
224
80
-64
-112
304
-128
192
-48
-240
-96
32
64
192
-144
-112
-192
-384
-240
-224
-48
-176
-624
-80
-144
-704
-48
512
-16
0
192
512
208
-192
32
560
-192
-176
80
-80
-432
144
496
-160
-304
256
-64
-144
-512
-336
-96
-384
384
192
-240
240
224
-288
16
-272
-272
-192
-384
80
-224
-176
-16
-160
64
-48
80
512
32
64
-112
-208
112
192
-160
-80
16
96
-192
-672
-176
256
80
16
80
64
320
384
-80
128
288
384
336
-16
96
-336
0
-224
-80
64
64
400
288
256
-192
-160
208
32
336
272
-192
-64
80
192
-112
224
-272
-128
176
-656
-320
-64
-144
528
464
416
0
-96
-32
-176
-320
144
112
-32
32
64
384
32
256
320
-368
-624
-64
-144
-336
-464
-32
-464
-32
256
-16
64
336
80
-16
-144
32
-64
-32
-96
256
16
-64
-64
-80
-64
-320
-192
16
-672
-176
80
304
240
-16
-128
-352
-176
-304
-672
-352
-48
240
-96
-288
80
-32
-128
48
384
528
32
-112
-96
304
256
-432
112
-176
-128
-16
-176
16
-240
64
-224
0
64
-192
-32
368
464
-64
-64
320
192
-96
144
288
96
288
-208
-304
272
0
-48
-208
-96
176
240
416
384
208
144
-80
80
-304
-96
224
96
192
-224
-384
16
-288
-544
-480
96
64
-336
-400
-16
528
-48
224
128
384
-192
-160
80
16
144
464
288
-160
-32
256
-128
-384
-80
-16
64
0
-304
-224
64
320
-16
80
-160
-160
224
432
-176
-144
-272
-32
32
-320
240
464
240
0
96
-112
-528
208
0
-176
192
304
-32
-128
208
800
320
-128
128
-368
-112
-320
-512
-176
208
352
224
48
336
-80
-32
160
-432
-160
-80
112
176
-384
80
320
-160
-256
-224
-208
128
-224
-160
0
-160
-368
-16
-48
-288
32
96
16
-48
-112
-192
-112
64
128
304
80
-64
-96
256
240
-112
-320
-400
-304
-608
-576
272
112
384
288
912
256
-176
-112
0
-208
-288
512
704
-480
-208
-240
0
-288
-64
48
96
96
-16
32
-256
-192
192
192
-96
-288
-192
-256
-512
16
-128
-368
-368
-192
144
304
208
-96
48
208
224
384
-160
0
128
-256
-224
-240
0
464
368
-128
-416
0
208
16
48
-160
-192
-272
-304
16
256
-208
-144
208
496
64
-16
-176
-624
-272
240
-64
64
192
416
-48
-336
64
224
96
384
400
224
-432
272
176
-432
-464
32
80
192
528
16
160
-144
16
-192
-64
96
176
192
-64
112
448
512
224
288
368
112
384
464
32
-48
-400
-336
352
144
-160
-448
-336
-208
-240
-368
-240
-80
-48
-48
368
240
-240
-176
16
32
-256
-64
256
-32
128
96
512
-16
16
96
256
-272
-368
-272
16
64
144
80
352
144
32
160
352
-48
48
-160
-144
-32
-240
-304
-384
32
0
-240
16
224
448
64
-288
160
-96
-192
-224
160
160
32
-96
0
-192
-320
48
-240
16
-192
-256
144
-336
80
224
-208
32
-192
-512
-368
-512
-192
160
48
-80
-128
-32
-16
288
304
160
80
16
-16
-112
176
112
240
64
0
-48
-256
-144
-208
112
64
-64
192
304
-16
-32
-176
-192
-48
160
-304
-80
-320
-80
208
656
176
-464
-208
144
144
-96
-320
-384
-64
-96
224
-32
496
-160
-128
-304
-16
224
0
16
-160
64
32
112
16
208
16
-320
16
320
-320
-400
-432
-112
80
-240
-128
768
192
-400
-496
-128
112
208
272
0
-48
48
256
352
64
-64
-192
64
16
192
80
-336
288
64
-112
-16
-240
-416
-304
-272
-112
-160
-672
-512
-304
-80
-112
-256
-464
-224
-64
80
48
224
64
-160
432
208
16
-352
-384
-192
-272
-880
-208
240
144
32
-368
144
432
-256
-80
-256
-272
-224
128
-192
-368
-256
80
-272
-32
-16
-48
160
-112
192
144
128
528
-144
-592
-368
-16
528
64
-96
112
112
256
32
-80
-80
-112
-160
-112
-112
-160
-64
16
-32
432
400
112
-112
-48
224
112
-48
-160
432
96
144
80
464
624
128
-80
400
272
112
320
320
256
48
208
160
-32
-48
-112
-112
-80
144
208
-128
-32
176
208
192
336
-256
-592
240
-176
-496
240
48
160
32
-96
496
336
112
464
144
224
176
-96
-256
64
-288
128
96
176
32
-272
-48
-64
-208
-448
-240
176
48
208
64
-48
-160
80
-64
-496
16
-16
-80
-416
-560
-368
32
160
32
-304
-208
192
128
-272
0
80
-240
-320
416
-32
-96
16
48
176
-160
-432
48
64
64
192
320
144
-240
-80
48
-176
-64
-144
-432
-240
160
-336
-272
-144
400
-64
64
32
-80
-272
-432
-160
-16
-48
-304
-112
-32
16
288
-112
-48
240
-224
-64
320
-48
0
-16
80
-96
-160
-448
-480
-144
432
384
-256
-304
-304
-48
112
32
-240
-304
112
208
-192
-64
288
464
96
368
480
96
0
-400
-448
-144
-352
112
592
-80
-144
256
-224
0
-176
112
368
368
80
-224
-16
448
304
-256
-128
176
144
96
256
240
160
144
-16
-304
-304
128
352
-384
-192
496
224
16
-48
96
304
496
64
-496
240
480
208
-272
-224
48
48
-64
-304
-16
-144
-16
-128
-160
-112
400
144
-64
-96
-432
-560
-240
304
256
160
240
96
-128
400
-112
-64
-32
-48
-336
-240
-208
-528
-192
-32
560
224
-176
-384
240
176
-16
-48
240
-416
-352
-240
-80
-16
-128
80
448
352
272
-400
-320
288
64
144
64
176
-32
-240
-192
32
-96
-96
-272
-160
-368
80
-16
144
368
-48
48
-96
160
16
256
192
176
384
320
432
448
192
192
464
80
336
176
-160
-192
80
-80
-32
80
-256
32
-224
-96
128
-32
224
-128
-112
32
80
128
448
160
128
112
432
-112
-320
256
304
64
96
-576
-80
176
-240
-96
16
112
112
-240
-304
144
-336
0
624
784
336
208
-48
-192
-176
96
176
176
-16
112
-112
-48
16
-288
-288
-16
-16
-432
-160
-64
-240
-336
240
368
-256
-368
64
-64
80
-112
368
80
-560
-352
304
144
-240
-224
-256
-176
336
320
-64
128
448
496
-208
-304
-240
-16
-256
-384
-464
-288
-32
-288
-416
-112
-112
0
-304
-288
48
224
-128
64
-32
-496
-48
448
-224
-64
-32
32
-16
48
-16
-32
-272
-256
-112
-16
96
352
240
336
192
256
256
176
32
368
400
-240
-112
0
-224
16
96
-560
-688
-480
-240
352
192
-368
-208
-80
-368
-48
-352
-256
-464
112
-160
16
16
-64
-32
176
512
128
128
-16
-48
304
-32
144
-336
128
-128
-80
-96
-112
-240
-336
-96
-256
368
304
-256
-48
192
-192
-144
96
-320
-448
-128
96
128
-16
-288
112
80
384
432
448
736
240
-80
48
-96
-144
-160
-464
-592
-592
288
32
128
-16
-192
0
-112
-368
-192
384
272
240
48
48
-672
-48
176
-80
80
288
512
304
-80
-368
-32
-240
-432
-480
-352
-352
144
144
480
224
128
-96
-16
208
272
32
-384
-192
176
-176
256
144
-112
-160
176
-48
144
96
-32
-368
-144
-128
-320
-496
-416
144
288
0
128
352
-64
-16
-336
-128
80
16
-336
-144
-256
-96
144
-64
-128
96
-96
80
-192
272
80
-320
-464
-288
32
-192
-176
0
-240
144
160
512
480
-176
-256
208
-48
-32
-400
-160
112
208
-224
-96
-496
-528
-16
288
-48
-48
304
224
-320
-528
-400
-368
-544
-240
16
336
288
80
-32
176
416
-144
32
368
256
-208
32
160
240
-336
48
224
176
176
-176
-64
-16
288
208
144
16
96
128
-192
-80
0
-352
208
144
128
-480
-976
-640
-448
-272
-432
-368
-144
288
-48
-32
32
96
192
-112
-480
-272
-32
128
-128
160
64
-48
240
176
-544
-80
112
-144
240
176
-224
-192
-368
-208
128
144
-64
224
480
-64
0
144
-32
-352
48
160
-160
32
208
688
176
-256
-176
-64
592
-288
-384
336
496
-192
320
224
32
80
-352
-96
288
144
-32
16
-32
336
128
-176
-272
240
496
304
144
272
-48
16
-304
176
288
64
128
-224
-48
128
640
608
-432
-688
-32
208
-16
-368
304
288
112
320
144
-128
160
352
176
-112
-496
-80
32
144
464
624
512
-48
-48
-432
64
32
-224
272
128
-368
-224
-224
-608
-464
-192
176
80
-96
16
-144
-368
144
-48
352
0
-464
-96
-256
-448
-224
160
208
-256
192
16
304
512
176
112
-128
16
-144
-48
288
-128
144
848
496
-160
64
128
-352
192
192
256
-128
256
-64
-112
-16
-176
32
-144
-512
-512
-32
80
64
416
304
192
320
-272
-272
192
-128
352
336
208
32
-256
336
224
272
160
320
128
-368
-32
208
-176
-112
-192
192
0
-96
-288
-128
-224
-240
-96
256
224
448
320
256
-64
368
224
208
-64
-176
464
304
-176
-352
-64
96
-208
0
-176
112
-80
160
224
240
0
128
176
480
336
656
560
304
48
64
112
144
80
-144
128
560
480
64
32
-80
16
-80
96
304
352
32
48
-304
-224
-176
-208
-208
-176
-208
-336
-368
-272
-288
-208
-32
224
-304
-176
176
368
-16
-16
416
288
144
-224
-144
96
96
128
-80
-304
0
368
624
464
48
96
-16
-720
-48
176
64
-16
96
-48
-48
-320
-480
-48
-16
320
-176
144
256
256
432
544
-16
256
128
80
-32
352
256
-224
-32
-80
144
208
-48
-16
32
-400
-80
128
-256
-160
272
-320
-176
80
128
240
112
240
320
-320
32
128
160
-64
-32
96
-32
368
256
64
624
-16
32
80
-16
352
128
-208
112
64
288
-112
-224
464
48
-416
-256
-64
-32
288
400
-208
-272
-160
-96
176
-16
160
160
-96
-400
-224
-96
400
16
-64
-80
96
-240
-96
-80
-192
-224
-304
-544
-736
-656
-80
288
-160
240
80
-256
32
272
-112
-48
-256
-32
-16
16
480
112
-416
80
160
-464
-272
-256
48
-32
-464
-496
-336
304
16
-16
-368
0
128
80
-272
-96
320
448
-208
-192
224
288
512
128
144
-336
-672
-336
-80
240
-208
16
-256
-144
-224
-240
144
-288
64
128
-160
-96
176
-48
368
208
112
-48
16
208
224
-448
-16
352
240
0
16
112
96
-368
-432
-544
144
112
96
208
-144
-144
-336
-96
-32
-144
112
384
-32
-160
-176
304
-16
-32
-32
-96
-32
-16
-16
-304
-208
368
560
160
-352
-208
-208
80
-240
-80
-144
0
128
32
-112
-240
256
144
48
416
0
-208
96
-640
32
80
-112
-304
-16
-208
-400
64
-144
112
528
496
-64
-384
-160
-16
-384
-544
16
208
0
-240
-32
-80
400
528
144
-464
-208
80
144
-384
-240
-48
32
0
176
192
128
-144
-16
160
-304
-64
0
-464
-544
-336
-80
192
-176
16
240
32
-176
-560
-320
288
-16
-576
64
160
-256
-480
-304
-80
-272
112
96
368
272
432
16
-608
-464
-160
32
-48
-256
16
-64
0
96
0
-336
-240
64
128
64
64
-48
496
-240
-320
32
224
192
384
528
288
-16
-80
192
-96
32
352
-144
-160
96
464
-32
-144
0
-192
48
-112
-160
-288
-736
-352
-272
-192
-96
-192
-144
-112
48
-112
-288
0
-160
-32
368
-224
-96
-96
16
16
112
112
-16
32
-352
-64
464
208
-304
-16
-320
-400
-80
-432
0
352
-144
-176
144
-96
208
112
448
736
-32
-496
-464
-240
128
0
32
144
-336
-256
336
96
144
176
64
128
0
-16
240
384
-176
-112
-80
-160
80
192
-224
-176
176
400
-160
80
176
256
128
-256
-192
-192
-736
-464
-128
-144
352
240
256
-336
-256
368
544
320
352
560
32
400
176
208
448
112
384
256
-256
32
208
32
256
-128
176
80
96
128
-96
0
48
-48
-176
-528
-576
128
-64
-64
368
160
112
16
-288
-208
432
256
-32
176
-256
-144
-240
-112
-48
448
208
112
496
368
240
48
-48
128
176
-480
112
-32
-448
-288
192
-128
96
96
-96
128
-224
80
-160
-16
-336
-240
-576
208
176
336
-352
-176
-336
-272
-304
-480
-720
-432
-32
-80
-448
-416
-288
-48
-80
-304
-176
-32
-16
272
416
80
-160
-288
-336
272
96
-80
144
-64
64
-96
-272
-240
256
176
-320
-112
-448
-240
48
32
112
-448
-672
192
-48
144
-112
-288
32
176
-160
-288
112
-80
-16
-64
272
-48
16
432
416
304
352
-16
64
32
-160
-304
-368
272
496
368
112
-48
-32
112
80
64
80
0
16
-128
272
320
64
-176
-272
-736
-496
144
624
368
-288
-464
-144
-496
-144
-368
48
224
-48
-192
-240
-48
-96
-256
48
-16
-592
-720
-368
-240
32
256
-80
-336
-16
512
32
-160
-352
-416
576
368
336
-16
256
64
80
-112
192
-208
-160
-144
-128
-496
-256
-192
-320
416
640
672
144
400
288
256
80
-96
-384
112
208
-80
-48
176
-208
-32
-416
208
128
304
-144
-560
224
-16
-304
-400
-240
0
160
-112
-256
-240
32
64
240
208
176
64
208
-128
304
-64
-208
-256
-64
208
352
96
240
160
288
-128
-48
-48
432
256
128
-256
-384
-320
-336
288
112
-224
352
48
-112
320
48
144
336
224
-368
-192
304
16
192
368
416
224
144
160
112
160
-288
-112
192
336
240
-656
-368
16
224
416
-352
-80
96
128
-80
-464
-112
48
144
368
-240
-176
-496
-416
-352
-448
-448
-176
-176
-352
-64
192
128
-304
-16
-176
-80
-64
-432
-224
16
-112
-144
-80
80
16
-192
80
336
-320
-448
-80
0
240
-64
64
448
160
-112
64
96
-720
-416
272
32
-64
-208
-16
-624
-416
208
256
-304
-32
-96
-256
-512
-224
208
128
-192
-240
320
-32
-160
-352
-336
112
464
416
272
-96
-32
-224
-144
32
416
384
64
240
368
256
-96
64
256
192
-224
-352
192
448
224
-80
304
272
160
272
176
112
-144
0
240
240
-224
-224
-592
-208
48
-128
-288
-128
32
-480
160
256
-16
80
-240
-272
-240
64
96
-80
-128
-512
48
-32
112
224
192
48
-240
-272
-128
-16
-64
304
0
-144
-448
96
-400
-288
48
272
16
-224
-128
256
176
-80
0
144
192
368
112
-80
-144
-48
-112
-288
-32
-288
96
208
48
0
-192
-48
-416
-96
48
336
96
-320
-192
-384
160
416
256
-304
-176
240
80
128
-64
-112
48
32
-416
-496
-256
32
-192
-288
-256
48
-64
176
64
-768
-528
112
-32
32
224
304
0
-16
688
272
320
256
48
160
-144
-304
-192
-80
128
16
-368
80
160
160
-80
352
224
-48
32
-224
-112
-64
-384
-304
-176
-160
-144
-48
176
-16
160
-80
112
112
256
-64
-352
-160
112
128
160
-272
-240
-304
-64
656
240
-128
-304
-624
-208
192
-272
-16
192
-224
32
-192
-208
496
128
-64
192
-64
-256
-160
160
-208
-240
-608
-400
-208
48
-208
176
432
96
64
144
64
320
80
128
48
48
224
128
-272
-256
48
-272
-272
-512
-592
144
208
-64
-288
-320
224
352
96
224
-96
48
176
48
0
640
384
-128
96
16
32
-192
-64
32
-80
176
320
-112
-144
-96
192
288
0
464
352
16
512
-144
-400
-416
-432
608
320
208
-80
-224
0
192
32
-144
416
192
-720
48
-192
-416
-16
432
384
48
-64
32
80
-448
-64
-320
-224
-464
-336
96
384
96
-272
-512
-176
-32
-128
-288
-160
80
272
-48
-480
-240
-192
-416
-176
224
416
-64
16
-192
-160
-432
-160
112
304
624
272
-112
352
496
272
-208
-304
-432
-448
48
768
-240
-272
192
-128
128
736
432
-368
-32
-64
-48
-48
48
-80
176
-384
-272
208
144
-240
224
288
-80
-64
-176
-96
-144
-32
256
-48
288
64
-16
304
48
-144
-256
-160
400
96
-112
-192
0
-96
-256
240
-64
-144
144
352
16
96
-240
-560
-256
64
192
80
-16
256
-384
-320
320
384
-192
-368
-256
-176
-448
-528
-480
16
224
48
-256
-224
224
352
400
80
-128
64
64
-144
-96
-240
-304
-48
-272
208
-80
-80
48
-640
-32
-112
336
352
224
336
64
-80
240
272
16
80
304
336
368
288
-80
0
240
224
-432
-96
-176
-528
-624
-464
-80
96
144
-64
0
-64
320
320
-368
48
656
-128
160
608
432
752
384
-416
-592
112
-64
-192
-112
-400
-240
-192
32
-64
-16
-64
352
-128
-272
-432
-128
-128
-224
80
576
416
-48
-288
-208
-192
16
464
304
-48
144
80
384
816
64
208
80
272
48
-16
128
224
160
-368
144
0
256
256
288
160
-32
-256
-304
-336
-192
-96
-176
-208
-192
64
-64
192
0
448
352
-16
-384
-192
-112
16
-240
-144
-320
48
144
-144
144
528
240
-352
-496
-224
-16
-176
-400
-496
-112
-272
-128
-352
-16
-208
-592
96
-176
288
480
528
384
112
-80
96
224
176
-48
-384
-256
-416
-16
-32
-96
-256
-64
-304
-272
336
208
-368
-128
-464
-768
-432
-80
-144
-448
-464
-32
-32
-128
112
-80
-112
32
176
0
384
128
-400
112
288
112
176
208
0
-48
80
480
176
544
48
416
272
0
-80
-96
112
-96
0
240
-64
16
208
-64
32
320
496
304
336
-16
272
-288
-16
96
-144
16
-256
-144
0
128
416
288
-112
192
192
0
384
-176
-528
-544
128
48
-128
-208
-272
-160
-48
16
288
-64
-272
-272
-464
-16
144
-176
-176
-16
-32
-128
-240
-448
-528
-304
48
-272
-208
224
64
-208
32
-208
-320
-240
-240
240
-176
-656
-352
-320
-240
432
192
-160
-48
80
240
16
448
512
768
160
-48
80
-336
16
0
144
-112
-192
32
0
96
128
-240
-544
-144
256
112
368
192
144
64
288
416
-16
-304
-416
-480
-256
-160
-528
-32
448
288
-320
-512
-416
-480
-368
48
-144
336
-128
-176
-16
-160
176
0
208
320
160
160
80
160
320
-16
-16
64
176
320
80
240
560
64
-400
-176
-336
-96
288
176
96
-160
-80
208
112
528
-288
-176
-48
-64
-288
-528
-304
112
416
352
368
368
96
160
272
304
192
-112
-384
-352
336
336
-64
-304
32
160
-304
-144
464
208
-176
-464
-368
16
-80
-592
-272
-320
288
176
-192
-128
160
160
-112
-384
-256
0
112
32
32
0
-272
384
416
352
64
640
800
288
256
-144
-144
-160
-240
-320
64
192
80
400
112
-144
-128
-432
160
576
400
256
384
-208
128
16
-192
-608
-192
-448
272
-48
48
176
112
496
80
-256
-192
368
832
-80
-352
-112
-48
192
-336
48
352
-480
368
400
-112
-80
0
-240
-144
32
-192
-288
-144
144
-32
208
272
32
-256
-32
32
-128
-32
336
-64
-80
32
288
112
16
512
80
-192
-32
144
320
16
-480
-224
-64
208
384
640
176
80
-64
-96
464
272
544
80
-160
-480
-320
144
176
384
368
176
352
-160
-320
0
176
48
-16
-16
16
-288
-16
-240
-288
-32
32
80
80
32
160
544
-144
-368
-224
-272
-160
-64
-224
-112
224
-432
240
0
-736
-336
-96
-320
-528
-192
400
336
144
-560
112
-16
96
-368
-320
416
128
-272
-160
128
-144
-144
160
240
-112
144
96
-128
-272
-48
-528
-272
-208
-208
0
-176
-208
304
-160
-448
-176
112
512
272
-128
-112
32
-48
160
128
-64
-416
-240
176
304
160
-320
-368
64
96
48
224
-208
48
288
-336
-96
-320
-112
-80
32
336
-208
-208
-80
0
-80
-32
-144
-48
144
-288
-192
240
-176
-352
-224
-224
-304
-96
-240
48
-160
-448
288
496
128
336
-384
224
-96
128
-320
-800
-400
96
80
160
-16
64
-16
80
336
-96
-128
288
-32
0
112
608
720
144
64
0
-16
-288
128
-368
-416
304
432
272
48
-336
160
64
48
480
80
-128
-128
32
-128
-144
32
-240
128
-256
-240
-144
208
384
272
288
288
240
-16
128
-16
-80
256
224
-16
64
16
-160
-272
224
336
272
-272
-288
0
-16
80
16
64
96
-176
0
32
0
-240
-16
-16
192
-224
0
0
-416
160
672
64
-112
-304
-480
-32
496
224
-48
240
16
-64
192
64
480
592
400
-80
-80
288
224
192
0
-96
-64
-384
-320
-192
-96
176
352
-128
304
656
672
368
144
48
128
256
-192
112
192
-48
-80
176
-288
-16
304
16
112
16
-672
-768
-544
-304
32
-336
-112
112
-464
-208
0
-288
-112
192
176
48
-128
-96
336
320
304
320
192
-224
-416
160
112
-128
-224
-240
-112
-128
0
-160
-112
32
224
96
-224
400
352
-256
-96
288
32
48
64
-80
16
-96
192
640
464
224
624
304
96
240
-352
-208
-80
-384
-272
16
64
0
272
16
80
-240
-208
-176
-240
0
64
192
192
272
224
-192
96
304
224
0
-176
-368
352
176
-176
-48
-192
48
432
352
384
112
-80
144
96
304
128
-144
-112
-400
-320
112
592
432
112
64
-336
-144
-224
-96
-272
-464
160
288
80
464
80
256
48
-192
96
-160
-224
48
-288
160
64
-352
144
192
-304
-144
-48
272
368
-112
-16
224
-160
-544
-48
208
336
80
32
208
400
608
128
-32
-128
-144
-32
-192
-352
-608
-128
64
240
16
-32
-64
336
224
272
144
-480
-240
-128
128
-432
288
176
-512
-400
224
272
352
192
-304
-176
144
0
-176
-256
-384
-208
-160
-112
288
336
96
-192
544
320
480
368
304
384
464
640
48
-224
-128
0
64
160
-160
464
336
336
-128
128
432
64
-560
-752
-128
32
16
256
496
448
464
576
48
-208
-304
-416
-272
-400
96
-320
-320
-416
-96
-32
-160
-96
-80
-384
-400
-592
-384
-208
-224
-320
-224
-32
96
-96
-48
-288
-400
-544
-288
-64
800
-64
-128
-96
-32
-80
-112
256
464
0
-256
-240
304
-96
-336
96
0
-176
-48
-256
-32
96
-272
-240
-608
-208
-240
-544
-224
-416
-80
-144
80
144
64
96
-176
144
-144
-80
288
448
384
432
-160
400
640
320
416
432
-16
-176
64
-96
272
112
16
-448
-224
304
-64
-864
-560
96
64
-80
-288
-320
-224
432
48
-368
-352
-352
-320
-96
336
288
-112
112
-288
-416
96
-320
-32
288
128
192
-128
0
272
272
64
208
-64
-576
-320
-144
-80
144
240
-112
64
-224
-256
48
-224
64
112
-16
-32
512
-176
256
544
864
96
-16
256
208
-16
-352
-128
-16
-16
-208
256
-32
-224
-176
-144
-320
-576
-208
-400
-112
-144
32
256
128
-384
-144
192
448
240
-144
-96
-160
-304
-336
-176
-240
-192
-224
-272
-96
-64
-304
-192
-96
-64
-272
128
208
352
16
-208
384
112
-128
-320
-32
16
32
-192
-512
-256
80
112
-256
-64
288
0
-48
32
-64
-336
224
80
-352
-240
-256
-272
-336
224
368
-32
-16
-176
208
-96
-192
176
-144
-624
-400
-64
-240
-272
-48
32
-560
-272
112
-32
-400
16
-64
-432
-144
208
464
480
-80
208
16
-272
112
-144
-256
144
-416
-272
-16
384
416
224
320
320
-240
-368
192
112
352
304
192
-304
-128
-176
-112
0
336
416
16
-128
64
48
-160
272
32
-480
288
784
464
240
128
256
-64
-224
32
832
224
-80
240
128
-48
64
192
-304
-176
-48
-112
16
-160
192
-64
-288
-272
-448
432
144
272
-48
432
224
-96
-352
-160
-416
-384
-80
256
-32
-176
-160
-64
-128
48
-32
48
0
-320
0
-144
-64
-192
-144
-160
176
272
-160
272
208
-320
-176
-64
-320
-176
64
-400
-272
128
528
144
96
320
304
144
0
-240
-80
96
-48
-144
-128
-160
-320
-32
-272
-192
32
48
-160
384
368
176
0
-160
-432
-320
32
96
-96
80
336
256
448
304
-208
288
-64
-208
512
176
-176
-144
-144
16
96
224
-64
176
-224
-240
-48
192
-64
-144
-16
224
0
-64
-448
-32
-192
-80
224
-112
-80
-96
32
-544
-112
-16
-176
48
224
-96
-32
-16
192
-112
-240
-896
-416
-240
-432
-160
336
-96
-112
-32
-32
-64
16
-400
-128
128
384
304
80
-48
224
-64
-432
-304
-224
320
272
48
464
176
-384
-112
416
384
-48
-512
-16
272
352
144
-384
-192
352
-272
-240
48
-320
-64
288
128
-96
-352
-32
-64
-368
-32
-144
-304
-512
528
-192
-320
-320
-128
-80
128
-16
16
-240
-144
-160
-96
-16
-128
-48
192
128
144
144
-288
160
96
112
-32
-624
-64
112
656
80
-176
-96
144
176
320
-128
-192
-32
-128
-48
-160
-32
-160
48
112
-96
-320
-320
-560
-432
32
-160
288
336
64
480
352
32
-112
176
384
416
80
-64
-176
0
144
-256
-144
336
-112
-16
112
80
96
96
-352
-304
112
-144
-160
-96
32
96
-32
432
48
160
-224
-64
-112
-80
96
464
0
-48
-368
-32
-208
-256
-512
-96
48
-288
48
352
336
656
256
272
368
224
-656
-384
-384
224
64
-48
528
176
80
336
32
-272
-64
-112
-432
208
48
-128
-432
-144
192
512
496
112
-256
-176
336
560
144
-112
-304
16
160
112
64
-64
80
-304
-608
-224
-128
-160
-48
192
-352
-48
-112
-480
176
16
112
-144
368
624
176
160
0
-176
-32
-432
-192
-128
-64
272
80
-96
-16
16
-320
-656
-112
848
496
192
32
0
-64
256
224
-240
240
160
208
-320
-320
32
192
-96
-320
128
592
96
-80
240
416
-256
-432
-272
-272
-304
-624
-928
-576
-64
176
240
368
160
-320
-160
192
-80
-224
-256
-208
-464
-640
-160
-240
-16
160
-48
352
64
-272
-320
-160
-256
144
-16
160
160
64
256
-32
128
192
112
-208
-416
-368
-304
-160
-288
-16
-368
-240
368
192
0
-96
-288
32
-176
32
-48
16
128
192
32
-368
-240
-496
-32
240
0
-32
-400
64
-160
-128
-112
144
464
80
-16
16
128
-96
-80
304
80
80
544
-48
464
480
32
-16
16
-144
-720
-272
-144
0
-144
-176
-336
-304
-96
-288
64
-176
-352
-432
64
0
80
-160
192
-80
-688
-128
-464
-496
-160
32
-80
-224
112
16
32
-144
112
576
192
112
96
-352
-112
-208
-112
272
624
288
64
-448
-784
-544
-320
-352
16
32
32
-208
-160
-304
-288
32
-640
16
640
480
-48
0
-32
-64
128
0
256
224
-224
-96
-32
128
368
48
-64
384
96
-176
16
-496
-192
16
16
-160
-112
-64
160
592
464
128
304
0
304
480
384
240
160
-160
-432
-400
32
96
16
-48
-128
-80
-128
32
-16
-64
432
496
-160
-112
-336
-16
128
48
48
-400
-496
-320
-224
-240
608
144
368
592
80
144
112
-288
-480
-448
-160
-288
-80
-144
304
-64
-80
-512
-96
-64
128
512
192
-96
-288
-688
32
80
-480
32
480
112
-64
-112
0
272
288
192
128
928
16
-752
-176
128
-112
-208
16
-288
-96
-208
240
-336
-384
-512
-208
-160
-224
-80
-64
176
544
336
-288
-64
48
-64
-416
-272
48
-128
-48
368
32
224
256
528
240
-240
-320
-464
-240
-96
768
448
32
368
80
448
272
-48
-272
-352
-288
272
512
480
48
176
240
464
432
688
-16
-352
-112
-208
-48
-256
128
96
-176
-256
96
-272
-160
112
-32
64
112
192
32
-192
192
128
208
112
-320
96
400
144
-256
96
432
432
448
400
-96
-64
176
112
-496
-240
128
-368
16
240
48
-128
256
48
304
176
-96
-800
-560
-144
-48
64
176
-160
-752
-496
-672
-320
0
112
368
560
-336
-320
64
16
-96
16
80
-384
-528
-144
-96
-336
-80
-32
224
528
288
96
-64
-64
-64
-80
-288
-448
128
48
-96
-48
144
-160
-240
256
-128
144
48
-32
-144
-336
-272
-416
-176
-80
-96
96
192
16
48
-80
-224
-208
-160
272
256
-16
-96
176
240
192
64
16
160
-128
-48
80
112
192
288
-208
-160
-400
-192
16
-240
48
-320
224
112
0
256
240
192
-128
-176
208
80
224
-32
112
240
384
112
-160
-432
-320
-112
64
160
-32
16
-192
-784
-48
848
144
-240
16
-448
-112
-320
0
32
-320
-240
-80
48
16
384
496
64
-272
160
-80
-64
272
-336
-192
-64
192
-80
-48
-240
80
336
0
-272
704
208
-128
-160
480
720
416
288
512
-48
-528
-576
-144
160
176
208
-112
144
272
272
32
176
544
416
0
16
-16
-448
-144
-176
144
352
112
-16
-16
224
352
224
-80
-192
-272
160
0
368
272
192
-256
-240
-96
0
416
448
416
16
-144
-368
-304
368
480
288
496
-208
-96
-96
-192
288
96
-176
-160
-80
-80
-480
-144
-240
-272
16
-16
96
224
-80
-16
-272
-336
-128
32
-176
208
512
320
320
128
-192
-512
240
160
-96
48
-16
-48
352
256
320
-160
-16
-80
-320
-128
-176
-384
-144
160
576
32
-96
-16
448
-16
-48
112
16
-16
112
-112
-224
-96
192
192
-80
-192
-16
528
288
16
320
48
368
64
16
-160
16
-256
-400
-592
-384
128
96
-48
-256
-224
160
64
16
-48
336
528
544
112
32
-16
-160
-224
-336
-80
-96
16
-240
16
-80
-352
0
496
480
304
-624
-144
-208
-64
-16
-336
112
64
144
496
48
0
-400
-240
160
256
592
32
-64
0
-96
16
-16
-208
-304
64
464
112
-192
-224
-352
-272
64
80
288
112
-208
-544
-352
128
-80
-368
-112
112
256
80
80
-32
64
208
-208
-112
224
224
160
176
-144
-32
-144
0
-96
-480
-320
224
80
0
-192
48
-288
-128
-160
-224
192
-80
-464
64
-160
208
112
-480
-128
544
400
352
-224
320
480
-96
-80
144
-128
-112
-144
240
480
432
-32
-192
-32
32
-80
-16
0
-48
-496
-304
-112
176
416
240
-208
160
64
144
-96
192
-352
-224
-16
-64
160
-256
-208
272
416
160
-656
-416
416
-80
-208
112
32
-208
112
-96
-304
-48
384
432
272
336
256
16
128
-208
-144
-128
-176
-96
0
-256
256
368
-128
144
96
272
-240
-496
-400
-192
80
288
368
32
112
224
0
0
464
480
304
320
240
64
80
256
-32
-16
160
-144
-368
-496
-176
496
528
272
32
128
496
192
-272
-272
-432
208
560
48
-240
32
80
0
-32
-48
-288
608
96
-32
-112
-80
0
528
784
336
-112
256
400
624
480
0
-176
64
0
-320
-128
48
48
336
-224
16
32
-192
64
-144
224
96
0
0
800
448
-608
64
-112
-384
-336
-208
-336
-288
32
-96
240
-96
-256
-192
-528
-240
-16
16
-368
-368
224
-96
304
336
240
592
32
-96
-208
-288
-240
32
320
-80
-272
-288
160
-96
-80
0
32
176
80
-64
304
-304
-224
-48
192
-32
-128
192
528
304
112
96
32
96
-176
-96
352
-96
-192
80
336
112
-240
-320
-128
-576
-384
-752
-688
-32
48
-176
-16
48
448
368
160
416
-16
-80
-512
-304
-224
-240
160
144
336
64
-112
-464
-176
-160
64
-224
-352
-80
48
-288
-384
-256
-432
-496
176
144
-176
48
-64
48
-96
48
16
-112
48
16
96
-176
-368
48
-112
-96
64
-384
-256
96
32
-32
-64
96
-224
-128
160
-128
96
-272
-144
-112
-32
160
64
-64
32
-48
192
-272
-112
368
672
-48
-144
-448
-144
400
0
64
80
-432
-128
288
-160
-384
-272
96
336
-400
-400
-240
-112
208
-384
-240
-48
-176
-128
-272
-768
-640
-304
176
32
48
-80
-352
-400
208
-192
0
96
-288
32
192
-176
-176
-144
32
224
-256
-240
352
400
256
32
-96
176
16
-32
96
96
-16
160
432
608
144
160
80
192
384
352
224
16
96
-48
-80
-432
-464
-112
128
-48
-208
-32
320
-480
-432
80
144
-464
-224
208
-144
32
-96
-320
0
80
224
-64
-176
112
288
32
-288
80
-96
-224
-416
-256
-16
240
0
32
176
544
-80
-432
-352
-144
-96
-80
-16
-16
16
16
-112
-144
112
160
576
288
-96
-80
32
368
272
-128
-80
-240
256
256
96
-32
-160
16
208
-64
0
144
-176
-272
-32
0
400
528
-144
-96
-80
400
288
-16
64
400
160
-208
-16
48
0
304
272
96
-160
-144
-464
-576
48
224
-560
-416
-256
-240
-384
-32
320
208
448
-16
-112
384
-112
-928
-480
-192
-416
304
368
496
464
32
304
672
448
112
-240
64
-320
64
48
-320
-432
272
368
224
-80
144
48
288
256
-112
224
-272
-96
-128
-112
32
384
144
-32
128
256
16
144
160
336
448
704
-128
-144
512
304
128
416
192
80
240
320
128
-368
-224
0
704
96
-656
-528
-384
96
144
128
-240
-128
-176
-256
-48
256
-160
-32
240
-352
-448
-48
368
240
64
-304
-80
656
384
-80
128
48
-128
-32
-352
0
256
80
-160
16
-128
-32
32
-368
-528
-96
240
-128
-48
-64
432
624
-128
-288
112
-240
128
-16
-48
16
128
224
-144
288
160
208
64
-96
-48
240
432
176
-288
-896
-672
-336
-240
0
304
80
416
528
304
432
480
272
48
80
112
176
-112
-320
-192
96
64
-336
-80
-224
-176
-192
-16
-192
-448
128
96
32
368
-80
192
160
-416
-560
48
-352
240
416
-96
-112
-64
-432
-832
-224
240
-176
-704
400
384
-272
-272
112
-192
-112
-32
-48
144
336
272
240
-176
-544
-272
192
304
80
48
32
160
0
-96
64
496
160
-160
256
272
112
0
-32
-240
-96
160
64
128
-272
-224
-272
-96
544
144
-32
-208
-384
-656
-464
-16
-128
192
272
-384
-240
176
336
160
-32
304
368
160
-224
-96
-176
224
384
112
144
-320
-448
-16
320
416
0
144
544
800
208
400
320
16
368
288
112
0
-224
112
304
128
192
48
80
64
-208
-176
80
-32
96
32
0
-304
-416
-144
-112
256
48
64
240
-128
-256
400
272
-32
64
-160
-96
16
64
-80
192
192
80
-384
144
-288
-320
160
112
-240
320
224
-224
-288
112
-64
-128
96
400
256
16
-16
160
-464
240
-48
592
64
-80
-48
-240
96
560
48
128
64
752
352
-144
-128
-272
-80
-256
-112
304
336
-208
-320
-448
-352
-80
-128
-448
-16
336
-32
224
544
160
96
-16
-64
-32
368
96
288
208
112
32
400
288
112
272
-144
432
288
144
-176
-176
176
-480
-704
-96
288
-128
224
0
-64
32
96
224
288
-208
-144
48
-384
-448
-272
16
80
-96
-160
-336
-224
-320
-336
48
-96
-48
-448
-224
80
16
48
-64
64
0
-80
256
448
80
32
-16
144
-64
-208
-496
-144
-144
-160
400
-96
-320
112
224
-64
-528
-400
-48
-48
192
-112
-208
80
240
160
-112
400
-64
-192
-112
-320
-48
-128
-240
-80
-384
-688
-224
96
128
176
400
-160
-464
-176
208
320
-16
-272
80
-192
0
112
-96
-48
-512
-240
144
-336
-416
112
-208
-240
0
-336
-288
32
-176
-240
224
224
-160
-160
-224
-16
176
-176
-592
-208
240
160
-208
-448
208
112
-320
-112
272
320
-544
-304
-80
256
-48
-224
-208
176
32
-64
32
0
-224
96
-96
-32
-32
-64
48
-320
-544
-32
320
128
448
160
-32
64
-16
128
224
224
16
144
160
-144
-368
-768
0
416
-32
-256
256
-272
-128
-32
224
192
208
448
416
112
-112
-144
-288
-288
240
144
-320
-512
128
-48
-224
368
496
592
384
-96
112
-240
-32
64
80
288
512
176
192
112
-176
-96
272
-160
-64
32
-48
48
176
432
208
80
-128
-256
-160
80
288
320
176
720
608
464
-32
-128
368
-112
144
-192
32
224
-192
-208
-256
-272
-96
480
160
192
-48
-192
-208
-320
-112
-208
-96
192
384
32
-224
-160
-592
-320
-320
-288
-80
-128
256
368
64
64
528
0
-224
-208
-288
64
576
336
-144
96
464
512
208
224
272
240
240
112
16
-144
192
256
224
208
-320
-288
-160
128
64
176
272
208
-96
0
-128
-160
240
368
272
128
64
224
32
-80
112
496
-400
-160
176
-208
-64
-176
240
-288
-160
64
-256
-304
304
416
128
256
96
-224
-224
-176
-448
-128
-128
16
16
112
48
-688
48
112
-208
192
80
-80
256
400
48
64
-96
176
160
-112
624
224
80
544
592
-64
16
-16
-208
-96
-192
-208
-112
0
-208
-224
240
80
-176
80
400
496
-48
-80
-464
16
-256
-240
-176
-288
48
288
112
-176
144
-144
-176
64
0
-560
144
48
192
16
32
-64
352
240
-208
-272
80
112
48
208
480
176
-288
-128
208
-80
-80
-320
-432
-560
-272
-112
368
160
-304
-528
-336
224
-96
-512
-80
320
-16
256
288
304
-368
-96
0
32
160
-176
64
304
208
-400
-304
-400
144
192
-64
96
-80
32
144
80
-32
-496
-256
-128
64
160
272
416
-112
-464
-80
-64
80
-240
-560
-192
-160
-144
-32
80
160
-272
-592
-256
-128
128
-208
-144
-432
-576
-464
-112
-464
160
160
-32
-112
-144
336
432
304
224
496
208
160
-96
-336
432
224
-320
-192
-80
288
288
240
480
416
128
-176
304
144
96
-64
256
32
-176
16
-160
160
-128
80
208
144
-96
-32
176
624
192
-128
-128
-208
-128
-48
-16
-96
-144
-208
-304
-544
0
16
-128
-288
48
-128
-208
-560
-112
576
192
240
64
-224
-80
-16
-240
48
-112
-96
112
16
-128
-176
-32
-208
-272
-16
320
112
48
64
96
336
240
-144
-272
-112
128
112
-208
-32
-160
-208
80
144
16
-112
32
512
-80
-64
-288
-320
-112
320
496
-128
-192
48
368
768
336
-208
-80
288
336
224
320
336
272
-288
-480
-672
-352
-224
48
-224
-176
-48
432
176
480
240
272
352
112
-256
-160
-384
96
-192
0
480
112
16
32
-176
-64
-384
-416
-80
-256
-32
208
-64
-160
96
-112
-272
-176
112
528
64
400
688
784
480
464
320
128
208
288
272
16
-336
-128
-64
-192
-304
-48
0
-256
-112
-496
-224
240
320
176
96
352
96
-32
368
560
208
448
272
-208
-160
128
208
32
160
0
-96
48
-96
-400
-16
384
320
320
-176
-192
320
480
32
192
-320
-128
128
32
32
0
48
16
-224
-368
128
656
128
-176
320
112
0
-640
-368
-272
240
144
-288
-144
224
80
-96
16
256
208
-368
-240
-16
16
304
-256
-576
-608
160
-208
-400
112
320
-128
-208
-336
-144
-64
80
48
-144
0
-304
160
-400
-464
-160
-208
208
-112
-144
-96
-288
-320
0
256
-336
-192
416
304
128
-224
-336
160
48
48
-80
-112
-480
-288
80
32
96
-80
-384
528
208
384
320
-64
-288
16
-128
-48
64
-416
-240
144
-16
-480
-288
16
-304
304
256
-352
-112
-48
-80
-192
-320
-80
-48
-80
208
384
576
208
-208
-336
-144
-608
-192
240
16
-400
64
-80
192
32
48
-304
-128
48
-192
-176
304
240
-144
480
432
-128
-112
528
448
-96
-416
-448
-192
-160
208
256
464
352
-80
-288
-336
-288
192
560
480
352
192
16
-304
-416
-640
-400
-240
-256
-224
-16
336
-32
-96
80
368
336
-32
464
400
400
-16
-288
80
448
448
368
160
128
112
-144
400
176
-560
-160
80
224
-464
-496
-144
-32
384
112
192
272
336
32
-16
208
192
-352
-304
-576
-592
-80
-128
352
480
-224
-208
-208
-80
-32
176
256
368
272
-144
-224
-256
-240
112
-160
64
96
-96
-384
-160
-64
-256
160
-352
-240
96
176
80
-288
-144
80
304
112
272
16
416
336
-16
-48
448
416
128
-32
-64
464
-80
-528
-272
-128
-416
-160
-128
-112
-608
-64
352
144
144
16
-208
16
-160
176
608
144
-288
-336
-160
16
-128
256
-192
-144
496
-240
-80
-288
-288
288
32
-32
192
368
-48
-464
-128
-192
-128
-256
-208
-464
-368
-528
-80
48
-224
-304
-240
-32
-160
48
144
320
-48
-144
144
128
144
192
-128
0
160
352
32
416
944
448
208
-80
-48
64
160
304
-208
-80
32
-16
304
432
32
-112
-16
-80
-144
192
64
208
432
176
256
-48
-48
352
-192
-368
-240
16
96
-720
160
544
320
288
272
-48
112
320
-144
-160
112
80
-480
-448
-512
-128
-272
-64
224
-176
-112
272
160
320
640
208
16
-208
-256
-240
336
-16
176
352
256
160
688
400
64
208
144
-144
-160
352
32
-128
-32
-80
-64
64
-32
-48
224
352
448
128
-144
112
656
464
-32
-128
752
256
-352
112
144
128
-224
-464
112
336
-224
-224
-96
304
144
-224
-608
-80
-112
0
256
144
-368
-320
-304
112
-176
144
336
96
-160
-528
-416
224
128
-208
32
-240
-160
-240
208
32
-368
-16
0
0
-304
-16
32
512
144
352
544
480
432
160
48
-176
-128
-192
-512
-64
-112
-272
16
144
240
-48
-208
128
-64
-144
-208
-64
112
64
304
224
-64
384
0
-432
160
-112
-272
80
160
-64
80
-512
-592
-320
-48
320
624
-16
-32
64
48
-320
-208
-240
-448
-112
-32
480
48
-176
-32
-192
-384
-48
-592
-432
-224
176
432
96
0
240
496
16
-480
-96
-64
64
112
-64
160
-144
-448
160
288
-304
-112
192
-160
128
-432
-416
544
544
704
16
-224
-112
-176
32
-192
-320
0
-96
480
480
368
112
208
112
-112
160
-208
128
-64
-400
-288
-208
-192
144
-64
-64
-16
288
208
240
64
144
-160
-112
-240
96
80
-96
48
80
-48
176
-224
-432
-16
144
-176
-240
160
-80
-416
-208
-224
192
-256
-272
192
144
-192
-176
-48
272
208
-64
-144
176
32
-224
-80
-32
-240
208
-96
-480
-96
-256
128
288
240
192
-48
-464
-288
-272
-48
16
-128
-112
336
128
-240
-304
-336
-160
336
48
-96
-112
-96
-160
-144
192
368
512
-16
-224
-32
-240
-32
464
-80
48
352
480
-208
-272
-112
-512
64
336
80
-128
32
96
-352
-144
-96
-256
224
-160
64
112
-32
512
464
192
-480
-400
-192
-448
-80
48
64
304
208
-288
464
608
-64
-352
272
112
32
-128
112
-80
-240
160
-352
-176
-480
-528
112
-128
-96
80
224
-64
-192
224
16
112
288
224
272
96
-384
80
240
80
-192
-640
-528
-480
-96
176
-192
-288
-352
64
-128
-80
96
352
448
304
176
128
16
-64
-272
16
-272
-48
160
288
256
-176
144
16
-144
-208
-128
-128
-64
-288
-304
-304
112
304
-64
-256
80
-256
48
128
32
160
416
176
208
224
32
48
0
96
-224
96
-304
-240
-64
128
336
480
224
-16
352
80
-368
-80
-336
-256
-464
224
32
176
240
176
272
16
-112
-64
16
144
-32
0
384
16
-16
-336
-224
112
128
-48
176
32
16
400
-96
-96
96
144
-96
-16
-128
-160
64
-80
-176
-656
-16
304
16
-80
-256
-176
-48
-256
0
112
288
80
16
-256
-464
-352
-288
-32
-208
-704
-128
224
288
-32
416
80
-368
-704
-448
64
-208
-224
400
368
304
96
-112
0
-416
-368
-32
32
-160
-224
-80
288
16
-640
-128
0
-400
-192
176
-208
-448
-240
-384
16
0
112
304
-64
-256
48
-128
-448
-208
192
288
384
432
144
432
432
464
16
-64
-192
16
-112
-448
0
176
-320
-160
48
-112
-304
-240
96
-256
-448
-240
-64
144
-304
160
112
16
304
32
112
-16
128
-32
432
0
176
160
48
16
-96
288
-128
-336
-208
112
-32
-16
16
240
512
-176
-576
192
-160
16
544
48
272
496
352
448
496
-64
-432
144
-160
96
-112
-80
80
112
-64
-336
-128
64
-144
32
-496
-592
64
32
-464
128
640
848
304
32
368
-96
-528
-96
80
304
256
160
192
-16
112
320
16
-192
-144
-320
-64
-320
-224
208
192
-224
-192
-144
-112
256
96
16
64
-32
-16
-48
-80
352
48
256
-128
-304
-224
-416
-32
-144
-224
-464
-336
-288
96
288
240
160
0
-144
-160
112
272
-160
-112
16
-224
-688
-560
80
-208
-32
-32
176
-64
-592
-128
192
512
32
-208
-576
-176
336
-96
-80
-144
-208
112
-288
-496
-400
64
-144
-400
-144
352
64
-448
16
128
-192
-432
-240
208
64
-240
-48
-64
64
624
304
128
32
-176
-208
448
112
320
-304
-368
-16
128
688
352
592
672
16
272
288
-48
16
-32
-336
0
-336
-272
-576
-224
-192
-256
-224
-160
-256
-16
48
-560
-208
-144
-64
-304
80
112
-80
-96
64
-128
-480
-128
80
128
64
64
304
48
-288
-336
-272
192
272
112
128
512
144
176
160
-208
80
-16
-32
64
192
144
64
-256
-128
48
176
-48
0
-112
-352
-448
-352
-160
-320
-272
64
-112
80
144
32
128
32
-272
528
144
-240
-192
176
256
240
-32
-192
-272
-112
208
160
288
112
-416
-144
80
-208
192
64
-320
-144
-96
304
-144
-160
160
272
288
-128
48
-16
-224
-16
-448
-288
512
304
416
432
-432
-176
-144
-96
224
432
320
240
-112
-16
560
-176
-256
336
160
0
256
-480
256
-80
-144
-64
-80
-64
-240
-96
-304
256
368
256
-192
-32
-128
512
32
128
-64
256
32
-304
32
224
-256
96
-160
16
96
80
176
128
64
208
176
336
32
128
-48
-176
-64
-96
96
-32
160
-384
0
-128
-608
-320
160
752
480
16
-368
-336
160
-112
-32
-256
-416
128
-192
176
-48
-96
-112
0
-48
-160
128
384
-112
256
400
176
0
-448
-432
-352
-176
448
144
-224
-144
208
-96
-512
-384
-128
-208
-48
96
96
48
-128
176
-320
-576
-368
16
160
304
-32
192
256
0
16
320
48
-112
-336
-464
48
80
-592
-624
304
432
-64
-304
112
80
256
240
-240
-368
-208
112
464
0
-128
-48
672
832
256
-192
-64
32
-272
-416
-208
-128
-656
-160
160
-112
-80
176
-80
352
880
384
-32
416
-32
-112
112
48
-16
432
-144
64
192
-272
-224
256
128
208
-96
-160
-96
432
272
64
-288
-160
-48
-256
-576
80
-64
-272
-32
112
0
112
32
416
-16
96
-464
-384
-672
-736
-352
-144
-160
-32
-48
-288
144
608
-96
0
-208
368
80
-256
-128
-224
-224
64
496
448
320
304
-112
-96
128
192
-128
-448
48
112
384
-16
-160
-416
-176
176
144
32
576
128
-160
208
-304
-128
240
256
-352
-64
176
48
-352
32
-16
-160
-192
16
-368
-624
-640
-400
-240
144
400
-80
128
-272
-160
-144
-288
-144
-304
-784
-96
240
96
-112
0
64
-320
64
16
-96
-352
176
496
-176
32
32
-80
128
112
-48
-304
-880
-448
-192
208
-144
-240
-192
208
96
-48
32
-272
-192
-80
64
64
32
-64
128
-64
-256
112
176
-112
-240
96
80
400
112
-224
-32
144
-80
-64
-16
-16
128
-256
-176
352
288
-240
-128
48
112
64
-320
-720
-240
0
-48
400
160
16
-160
0
304
352
64
112
256
288
80
32
-240
-128
288
-240
-544
-208
144
-416
-448
-64
176
144
-272
32
80
-128
-384
-304
-144
-112
240
112
64
-416
-224
64
32
464
288
-16
208
496
0
0
-192
-64
832
496
176
256
144
-320
-496
-208
64
80
384
176
304
80
400
64
-256
-208
128
304
-64
-80
-96
-176
-224
-384
-32
592
112
-384
48
-96
224
400
112
0
-208
-112
48
96
-256
-240
-400
128
80
-144
304
144
240
384
-288
48
240
176
-32
48
288
336
32
240
224
48
-208
-128
-240
-448
-112
32
-48
48
0
-208
-160
64
-48
-112
144
-144
-128
-208
-112
128
272
-80
-192
96
-432
208
96
-80
-480
-160
608
64
160
432
-96
-480
-432
224
336
272
-32
-224
-32
96
208
320
272
64
-64
32
304
288
144
-224
-400
48
-352
-368
-256
304
336
416
-336
-240
-224
128
480
832
48
-224
-432
-352
32
-288
-560
-768
-64
48
-176
96
80
-160
96
0
-192
16
-48
-192
-48
400
-32
496
96
-784
128
832
416
-384
-128
-576
-576
-96
560
272
-240
-448
-288
-320
-448
-208
-336
-256
304
-16
-240
144
128
256
-336
-128
-208
-336
-32
240
624
16
16
-96
-304
-240
-208
128
-16
-32
96
-256
-224
64
560
-32
-192
352
640
144
128
48
256
640
288
-128
-128
-384
0
-192
-464
-256
256
32
-112
-320
-144
208
112
224
-64
-272
-160
-48
-48
-16
-240
-128
240
320
720
80
96
-80
-432
64
-128
-224
-304
192
160
144
-272
224
272
-80
592
-32
-496
112
192
96
-288
-272
-240
-352
-192
-288
-80
16
0
224
-48
-80
192
-336
-480
384
240
-32
-64
-576
-144
240
224
96
-192
-144
80
80
-80
80
480
336
320
-176
-256
128
-64
-256
0
352
336
336
304
336
224
32
-48
96
-304
48
560
-352
-800
-144
288
272
160
96
-208
-112
80
-288
-160
-32
48
192
144
-192
-48
-112
-272
64
384
-432
-704
-288
48
-416
-112
208
32
-144
576
-16
-192
-768
-496
-64
240
-304
-256
-32
-96
352
400
-144
160
288
80
304
-80
512
896
176
48
512
128
144
-128
-224
-224
-336
16
144
176
32
-32
-240
-320
-240
-144
128
192
112
-496
-32
144
-160
-96
304
-48
-256
-224
-48
64
-16
-176
224
-32
48
-336
-288
192
16
-80
32
-96
96
256
240
-80
-16
192
-144
0
-96
-256
-368
-672
-288
-416
-736
-400
-128
80
-32
-208
-16
176
-80
-32
384
112
304
-288
-112
-48
320
48
-320
160
208
-560
-272
224
-64
48
704
384
-32
-16
48
288
160
-384
-128
-176
-112
32
32
-112
-48
16
496
304
0
16
-32
32
160
64
480
448
176
240
16
-464
-720
160
368
784
176
-368
-384
-112
-464
-192
-304
16
288
160
-16
80
32
96
192
256
-528
-272
-192
48
-192
-608
-528
368
-144
-368
-208
320
448
336
-80
-112
144
-32
80
-464
544
48
-416
112
176
496
368
128
-304
-192
128
-320
-208
-352
-304
-48
16
320
320
288
304
-80
-176
-144
-224
160
112
-256
32
-144
-160
-368
-368
96
-208
-272
400
288
-16
256
608
800
448
-192
-16
-48
336
-80
144
-112
-336
240
384
-48
-544
-160
-64
0
-384
-304
112
-240
-352
-16
320
176
-48
0
16
256
-352
-496
-416
-464
-304
112
-144
-32
16
64
128
576
368
64
304
-208
-80
-128
-112
32
176
432
-48
576
528
0
-48
-336
-224
96
-64
-256
256
448
-528
-464
-272
48
0
-192
256
288
-16
-64
112
80
-96
64
-96
-368
-576
-112
160
224
-80
64
-240
208
240
240
-144
-160
-240
96
336
-224
48
192
-240
-64
-160
32
-96
128
352
-304
-240
-16
208
208
144
80
-240
80
256
240
48
-304
96
208
256
-256
-16
-96
-880
-240
-528
-448
-112
400
176
-400
32
32
-528
16
128
-80
16
48
-272
96
80
112
224
-160
384
368
16
-112
-448
-736
-32
400
-320
-208
0
176
-160
-208
384
96
240
-144
-336
-32
48
288
192
-192
96
272
208
48
-256
-400
-368
80
160
-320
-304
176
48
-144
240
496
272
-16
96
32
48
208
-64
-144
-160
-96
16
144
-448
-544
160
80
288
288
176
432
-80
-320
96
208
288
80
0
96
384
144
496
32
-304
-16
-192
-416
16
-272
-288
-128
224
64
-48
-112
-80
-160
-48
480
80
-144
48
176
-96
-32
224
368
416
432
240
-64
-320
-160
0
16
-272
-160
0
208
-32
-464
-192
-272
-320
-304
-208
-288
-16
-368
-352
-144
128
64
80
-128
128
416
80
-112
-16
64
128
272
-240
0
-608
-304
0
-48
-80
32
352
544
384
-320
-384
-80
352
96
192
-48
-368
-352
-96
256
256
-144
-96
320
-128
-352
-512
-192
80
-64
-272
-336
-160
-512
-800
-400
-672
-592
-336
-352
-240
48
-224
-256
-176
-192
224
-192
-288
240
-176
-128
144
192
-64
48
-112
144
592
192
400
480
96
-64
64
336
208
64
208
-80
0
-32
240
48
176
-64
-48
256
304
256
-128
-368
-176
-112
-592
-432
-352
128
-48
-400
160
0
-80
-192
128
-160
-144
-672
-624
-368
48
-128
-176
-96
-112
-176
160
16
448
144
-304
-176
-80
-128
16
-144
-272
288
496
-128
-96
16
96
672
432
480
80
-512
48
112
128
576
512
-96
272
336
-128
-320
-48
208
224
-32
160
-160
-240
192
112
32
304
0
-208
-336
-112
112
-128
96
-112
-64
160
304
16
-368
-128
432
128
-320
16
160
-224
-128
224
-160
-592
112
320
336
256
64
48
128
224
-256
-288
-736
-288
-432
-496
-528
-400
576
384
32
-432
-432
-320
-288
80
64
-96
-48
48
64
176
16
208
-64
128
192
144
-240
320
304
240
320
192
-400
-144
-192
-224
-80
224
-48
-624
160
608
96
336
432
-96
256
352
-48
-464
-352
0
304
112
-112
-16
144
64
16
-304
-352
16
176
304
368
-80
-256
-400
-96
320
-176
-256
-176
64
304
80
-80
352
384
32
-272
-160
256
-80
-144
-416
-32
80
256
64
-368
224
960
-144
-336
0
288
112
0
240
-272
64
-16
-304
256
-160
-224
-64
-432
-384
-544
-128
320
848
224
48
128
-80
-192
496
272
0
-400
-240
528
336
16
-224
0
-96
-48
448
128
112
-256
-384
-288
192
160
320
112
-48
-208
-160
208
-240
160
480
512
-32
-96
80
320
-288
16
-128
-64
-96
160
192
16
288
-16
-96
160
160
192
144
0
48
272
112
-48
64
-224
-16
32
16
0
-240
32
16
-336
-352
-448
16
64
-304
160
272
176
-32
0
32
32
48
80
288
-32
-16
-16
96
400
336
-144
-128
-240
-192
-272
-480
128
640
192
-512
-496
-576
-624
-96
128
-16
240
272
448
128
96
-256
-64
-160
-464
-112
-112
272
-288
-256
-80
-176
-144
64
272
-208
-304
-704
-16
224
480
736
-160
48
192
432
64
-240
-368
-352
-320
320
448
-16
0
-112
-80
-128
272
368
-128
-208
-112
224
32
-112
-176
-176
48
304
368
32
-112
112
560
80
-160
32
48
176
-80
112
128
272
-112
-80
480
-160
-192
160
624
560
480
16
192
672
336
96
224
-160
64
176
-64
-432
208
144
-96
-208
16
-48
-272
-384
16
-144
-256
64
-48
48
288
48
256
-336
-176
-64
-224
96
-16
48
112
64
-32
128
448
496
224
256
64
32
32
288
-64
-208
352
176
272
256
-336
-176
352
80
-64
-16
-320
-176
-704
-160
336
176
-256
-144
-32
-224
-144
-160
224
272
-112
-528
-256
-32
272
192
256
288
176
-80
768
480
592
80
48
240
-400
-304
-240
16
368
144
256
368
816
80
-224
-112
160
-32
-608
176
-112
-80
64
-112
-128
-16
-464
-128
176
-352
16
176
-64
-512
-192
336
304
-256
176
32
-240
-96
464
112
160
448
-80
-256
-16
-80
176
-144
-352
-144
-112
-384
-208
112
-272
-272
-256
384
-96
48
544
240
-288
-496
96
96
-176
0
64
432
-16
-368
-256
-416
-400
0
-272
-720
-288
-160
80
320
192
144
-80
64
112
-128
-96
336
304
160
224
80
16
64
-528
-544
-480
-448
-16
-64
-512
-160
-64
16
-32
-96
-48
96
544
144
-352
48
16
160
96
-352
-576
-288
96
-176
160
64
-128
-144
-32
288
704
272
384
240
448
272
208
-160
-80
336
-32
-144
48
400
-256
-176
-208
-112
-64
160
112
-144
-224
16
32
-160
64
-144
336
160
352
336
144
-176
-192
240
80
-176
-80
416
80
608
32
-272
-128
96
368
-128
-192
-288
-240
-208
176
240
-592
-320
304
528
432
192
448
64
-64
-304
-224
-32
-80
208
512
-240
-560
-96
144
-96
-48
176
432
192
-160
-112
-432
320
128
-384
-224
-144
-400
0
0
384
144
144
112
384
336
-160
-48
336
496
48
-304
288
272
-16
80
-144
-304
-352
32
48
-240
-288
-160
-240
64
96
-336
-192
-224
-80
-112
-288
16
240
144
208
-96
160
-32
96
-16
-96
-64
240
-48
-96
128
-96
32
352
-224
-64
496
432
-96
176
-80
16
0
128
-48
112
-240
-32
256
-96
112
256
-208
96
-64
48
256
416
128
-352
144
560
416
480
432
144
-64
128
144
-400
-176
-176
-224
-528
-464
-528
-208
-144
-480
-544
-640
-544
48
336
272
-32
-544
-944
-96
368
336
256
256
16
96
-256
-400
-336
-112
-400
-624
-960
-624
304
512
112
0
48
304
160
-384
-256
-128
-224
176
128
-256
-176
-224
-64
-144
-80
256
48
96
560
224
80
-176
-176
448
-176
-800
-368
240
640
0
0
-32
-96
288
192
512
-400
-128
304
48
352
208
-144
112
736
16
96
-80
224
-16
-352
-544
176
240
0
16
16
176
-32
-112
-176
400
448
128
560
448
80
48
32
80
208
-16
512
48
-80
-304
32
-512
-272
16
256
240
-32
-96
-96
128
32
-112
-96
64
-16
-288
208
528
496
-144
-32
-272
32
192
176
-224
-416
64
32
-96
-208
-112
-816
-288
288
128
-192
48
384
320
-272
-416
-48
-320
-48
48
-160
-400
-368
-240
-80
-80
-80
256
-192
128
256
-192
-16
-64
-224
-176
-720
64
32
-256
16
224
32
-64
-128
32
-80
-640
112
-64
240
256
-16
-16
-80
0
144
-64
-224
48
320
-160
48
64
-80
256
-144
-240
-144
-192
368
-416
144
-48
176
-128
-144
-96
-608
-768
-448
224
256
272
240
144
48
352
80
320
112
-64
-288
-256
-128
-320
-160
160
-176
-16
224
96
-416
-368
-192
-64
-160
-320
-16
336
128
288
144
80
112
-48
-16
448
160
64
128
-432
-720
-592
-112
-256
-320
80
-208
-64
-384
-96
-80
-480
-496
256
96
128
-304
-32
-144
-464
448
384
48
-160
80
112
-432
-224
-192
-448
112
-80
-448
-432
-192
-96
256
176
496
224
0
336
752
176
112
-448
-448
16
-48
16
-160
-336
-240
-416
-320
224
64
-272
-192
384
576
208
-80
-256
-416
-688
-768
-480
-480
-112
224
64
32
160
624
-144
-432
-400
-352
-256
-144
-368
48
176
-80
-240
192
304
32
-48
352
0
16
-160
32
16
-368
-144
256
176
-80
-352
-144
-544
-496
-192
128
32
-288
-80
-160
-336
-160
416
256
-336
-160
176
-352
-496
-240
-96
-432
-416
-160
-80
-352
-128
256
704
432
0
-192
128
96
16
-272
112
-352
16
-128
-128
112
-64
128
80
144
-192
-128
-32
-176
-288
0
-224
-176
-96
128
384
-32
-272
-64
304
480
80
-176
16
0
-192
192
128
-240
-16
16
-368
0
-160
-336
-128
-112
-256
0
-128
32
256
320
-64
16
352
528
48
-304
-144
-192
-320
80
160
480
64
-208
-400
-288
-416
-32
208
304
-112
-128
-80
-112
-416
-352
240
-48
-336
-208
80
432
-80
-304
32
0
-80
384
-128
-144
-32
80
320
16
-64
96
144
-208
48
-128
-448
-176
192
-16
-176
-128
16
-624
-400
-144
80
-64
-304
48
-96
-128
-144
96
16
-368
-160
-528
224
496
320
640
96
144
192
272
240
32
-112
-16
-128
-368
-256
-16
192
-64
544
368
-128
48
400
32
-288
-208
-48
-192
144
656
448
576
160
-240
16
-144
-400
-256
-64
-48
0
-128
-368
-352
128
-320
-256
352
-16
144
-448
-624
320
-240
-480
-240
48
80
-368
-224
-528
144
144
224
640
-160
-448
144
48
-160
-96
-80
-464
-144
-96
-224
656
608
160
-272
-80
-192
-176
144
128
192
-256
64
16
32
144
0
80
-112
192
64
-320
-528
64
-112
-304
-32
-352
-240
48
272
16
-48
432
192
16
-528
-16
-256
-224
416
432
96
-112
-128
112
464
16
-416
-48
-96
144
256
128
-112
112
-16
-16
384
-144
-160
-64
112
48
-160
96
-48
-112
-96
-208
-208
-160
-400
32
-288
-64
16
16
-112
336
192
128
32
608
496
544
432
352
-256
-480
-448
-144
-528
-144
0
80
176
-16
-144
0
-160
-176
-112
16
-464
-688
-160
32
-160
-224
240
-224
-160
16
128
480
64
0
-96
-112
256
160
-368
48
96
32
128
240
80
-32
-128
-32
-32
80
96
368
-400
-288
352
336
64
112
96
-432
-512
144
96
112
-304
-368
-160
496
128
-160
-144
16
192
-112
-48
-16
48
-80
64
160
272
-160
-96
48
160
16
-448
-736
-272
-224
-96
-64
-96
-592
-32
592
160
-96
208
-176
176
464
448
48
-208
32
-144
-80
0
544
416
64
256
144
-176
-416
-192
32
-96
-400
48
-16
-272
416
272
-160
224
80
-176
-144
-224
-464
-192
160
96
240
192
224
-16
-128
176
-64
-144
256
272
-224
-288
-240
-160
-288
-240
80
320
176
176
336
80
16
112
-304
-368
-352
-80
0
-112
144
208
-240
16
80
-144
-192
-752
-576
-192
240
464
-160
32
0
176
400
160
-48
208
352
496
64
-144
-16
0
-144
-288
-192
176
48
-240
0
0
64
96
-32
176
-112
80
-256
-384
176
288
0
-464
-256
-112
-336
288
144
240
160
-16
-208
256
48
-176
-64
-176
-80
208
208
-208
-448
288
-32
304
96
-320
-416
176
112
-48
-320
-240
64
-112
-560
-448
-176
128
160
448
-16
0
288
48
-144
-496
-80
416
-64
192
304
32
-192
-528
-272
-368
-240
-320
208
288
208
336
32
64
512
448
32
-208
-144
-32
-16
-32
64
-208
32
32
240
-16
384
-192
-240
-16
480
48
128
-192
-528
-352
0
-192
48
-320
-496
160
160
96
-32
-224
112
352
576
96
304
-304
-192
0
-112
-112
144
-64
112
192
-384
-688
-464
-384
80
48
208
32
-496
48
48
-32
336
400
192
64
-32
96
-64
-256
-160
272
240
-128
-288
-112
-192
-256
-208
-608
-192
-48
-32
-32
48
-144
32
-16
288
-16
-48
-144
-32
336
-224
-400
-176
-272
-16
336
80
208
144
608
80
-192
-224
-256
-160
128
288
0
-144
-432
-112
48
400
-80
272
-336
-272
128
-64
-352
-96
-272
-800
-960
-336
-112
-256
-496
-128
96
-128
96
544
192
-224
48
400
144
-400
-384
64
144
-64
-128
-48
-16
208
240
-32
-160
-208
336
288
416
480
320
144
-128
-112
-16
-48
-272
256
464
16
224
560
256
-240
80
-336
-272
160
288
368
-272
-32
-432
-128
80
-192
128
64
-16
-464
16
224
272
64
256
48
-16
-592
-464
0
352
-192
-64
416
208
256
416
256
-240
-32
-160
-96
112
-384
16
-112
80
464
320
-112
-80
-240
-96
336
304
0
-80
80
368
176
-128
176
32
496
96
16
304
64
-208
64
-352
-640
-352
-16
288
-256
-272
32
-112
-16
128
-192
-576
-528
-96
192
288
-128
432
480
-32
144
448
384
192
368
160
304
0
-368
224
-144
-400
-320
48
128
-96
-80
272
-80
-160
16
304
96
352
-96
-400
-224
80
96
144
48
640
128
224
464
304
-64
144
-192
-272
192
64
384
64
0
-352
128
432
128
-176
400
384
288
336
-176
64
352
208
-128
384
528
384
432
144
144
-224
-80
224
256
304
112
64
128
96
-48
-256
80
48
-160
-160
-160
-64
-64
96
160
256
176
-192
-32
-416
96
208
368
-48
-256
16
0
208
-160
0
-528
-480
-48
128
256
-160
240
224
-256
-128
96
400
768
416
160
-608
-400
128
-80
-160
336
-48
96
-16
64
192
240
-128
-16
48
-448
-336
208
16
112
128
-48
-656
-96
-64
240
656
-48
-192
272
80
-160
176
112
16
-256
-272
64
-112
48
208
464
176
-32
256
64
128
240
96
-352
336
288
144
176
416
400
48
-64
288
16
-336
304
368
192
160
-224
-48
32
304
-48
48
-160
592
864
400
-128
32
320
592
336
-112
-32
-656
-288
80
512
496
416
-128
-80
-320
-336
-80
96
-272
-512
-464
32
-96
-352
160
-16
-96
-160
-176
256
96
-160
-144
-64
304
-224
192
80
-144
-32
-160
-288
352
672
240
-208
-224
288
48
-208
64
-256
-336
-208
16
32
-224
16
416
544
176
-32
-32
112
16
208
128
-80
-304
80
240
-32
-368
368
-160
16
304
144
-80
368
240
32
-400
-320
-144
-48
128
128
304
-368
-400
-112
0
240
80
272
176
-112
48
-80
-256
-384
-384
592
224
-416
-224
128
240
-240
-48
512
128
-16
0
-592
-144
288
-160
48
224
-144
-96
64
192
32
336
320
-208
0
304
112
-144
-208
-352
0
48
-32
80
224
-304
-576
64
64
-96
96
64
96
368
80
-16
288
128
32
224
224
240
-400
-96
432
288
48
-352
32
-128
-480
-208
96
64
-16
-384
-320
320
-224
352
128
-16
272
16
80
-16
-32
-416
-96
-160
-240
80
-272
192
64
-368
-96
96
64
-96
272
480
48
128
-128
96
0
160
416
352
688
320
32
144
256
128
448
272
80
-224
-288
-464
48
-208
240
592
208
16
208
-96
-208
-112
-48
-16
112
-160
-224
-96
-288
-64
48
-128
-320
-208
112
64
16
-288
224
256
480
512
400
672
-64
-544
-64
304
80
368
448
-352
-432
336
304
-144
-400
-160
-400
-144
-320
-288
304
-32
-224
-16
-208
-192
-16
-112
-112
272
-96
32
592
144
-96
416
16
112
416
-80
-592
48
-48
416
192
-496
64
624
-32
-208
-64
176
-336
-208
-16
0
-176
176
192
-272
-336
-272
128
0
-256
-416
-416
-384
-96
-80
0
-256
-256
96
80
-384
-320
-416
-800
-16
416
-64
-64
432
256
240
272
208
160
64
-32
32
128
-16
-80
-64
240
464
112
208
-176
-176
272
-384
48
-112
-192
32
-256
-352
-480
-448
-688
-640
-96
0
240
128
-64
-64
80
480
208
208
-416
-432
-208
-496
16
128
272
352
-144
-336
176
48
-32
144
-144
-336
-416
-400
-304
-176
96
304
144
-64
144
-416
-64
256
-80
256
208
352
304
-176
32
-48
64
-160
0
-80
128
-288
-192
-80
16
320
96
112
-128
16
-256
-672
-160
80
-400
-224
112
16
32
16
-208
-384
-176
80
416
48
272
144
80
80
0
-16
-128
-240
-128
-256
512
448
32
-448
-368
112
80
-16
-32
112
-80
-48
-176
-304
-112
144
-112
-160
384
432
208
-176
-432
112
-48
240
304
144
-192
256
256
192
-176
-288
0
-272
-576
-512
-304
-144
-208
-352
208
-80
-144
-208
224
192
112
16
176
64
-96
-176
-192
16
400
304
-48
0
-464
-512
192
432
16
288
-240
-576
-288
-208
-112
-112
80
-320
-160
528
112
368
272
-80
-32
32
-208
-352
-352
64
-128
-192
-288
-48
224
64
-336
-256
-416
-800
-208
192
-144
-48
-192
48
16
-160
-256
-480
-384
176
304
0
-304
-384
-176
-160
-368
-32
160
-96
240
160
160
48
-512
-352
-32
-32
80
64
-48
-368
-208
-272
-208
-32
-224
-512
-96
80
192
144
-128
-112
80
-16
-80
256
96
208
80
-288
32
-48
80
176
256
272
-160
-416
-432
-400
-144
-144
352
176
560
144
-80
-128
-128
-80
160
128
176
816
368
176
-400
-320
32
16
-256
144
528
144
-16
48
-112
-160
-512
0
224
-288
176
320
544
208
80
64
96
160
-208
-208
240
32
16
336
128
-80
192
64
32
160
-32
432
96
-176
176
624
80
-240
-512
-432
16
-192
-656
-96
224
288
464
240
16
0
112
-112
48
608
432
-32
-64
80
-208
144
304
640
528
-80
32
128
288
224
0
272
-272
64
96
-352
-176
-112
-64
-208
-384
128
-256
-208
-80
128
64
-128
-384
192
320
-400
16
112
160
176
-128
-448
144
-32
-144
-32
-48
-240
256
-304
-144
480
48
-544
-496
32
224
-32
32
-64
144
-48
-320
-160
32
-304
-576
432
-160
-272
-208
144
208
160
-224
-48
-64
-256
32
288
112
-32
128
-448
-448
-432
-464
-112
144
-176
-368
-432
-320
-208
-272
-240
64
-96
384
96
-112
240
-48
0
272
272
-32
-272
32
-144
256
0
0
304
-192
-576
-352
-144
32
-544
-240
208
64
224
240
240
208
48
-256
0
32
512
64
288
-32
-400
176
432
176
16
736
192
-112
0
112
320
64
0
144
-144
-128
160
384
-208
-16
128
-16
-160
-64
-32
-160
-144
464
800
400
-176
48
-480
-480
-352
-176
-448
-624
-16
-112
16
-224
128
144
400
-80
-48
176
-96
-256
-256
-400
176
112
-320
-496
-144
16
0
240
240
240
144
352
160
-256
0
320
96
-48
64
-336
0
-80
-48
-80
48
208
-80
-240
192
-176
-128
-96
-416
224
0
112
-208
-224
-176
-288
-352
-192
-256
32
240
-432
-208
144
32
224
304
160
-64
128
192
-224
0
272
-192
-208
-400
224
400
80
-304
-208
-208
-336
-96
80
32
-32
416
400
304
240
192
112
528
-80
64
160
160
-96
288
32
-64
176
64
96
320
272
-48
-96
-32
80
-16
288
224
448
208
-144
192
336
256
-384
-432
624
224
-272
-384
0
-272
-208
-272
16
-352
160
144
-464
48
112
112
224
-16
576
96
-592
80
144
192
-160
-288
-240
528
576
-96
64
160
-64
-224
-464
-96
352
304
-16
-32
128
176
-224
-192
256
192
-112
-368
-256
240
0
48
0
112
368
96
144
128
-128
-480
-336
-368
-208
-112
-96
240
-96
0
416
112
-32
160
176
128
64
144
-32
-80
288
-48
128
416
480
416
272
320
304
192
16
112
-336
-176
176
128
288
384
464
-224
-64
592
512
64
96
64
-336
96
240
176
144
288
-80
-320
-272
-64
-176
-112
272
-80
112
272
384
544
-16
288
64
-16
368
192
-80
-432
-80
-496
-368
96
192
-240
-192
-16
64
-336
-64
64
-48
-160
-128
32
112
-32
-80
-80
-288
352
96
-48
-528
-32
0
-16
32
480
528
128
224
240
-48
-512
-432
80
-16
-48
-272
-304
176
-176
80
240
48
-224
-240
-176
128
240
-48
0
0
48
-416
-384
-256
16
160
640
16
224
-192
-48
304
160
64
-208
-64
224
96
320
400
-16
-256
-240
128
224
-96
16
-96
0
64
144
416
96
128
16
160
-160
-96
-192
-64
-272
-208
32
16
272
320
112
272
256
160
-64
-400
-320
368
0
-176
-336
-448
-112
112
-64
-16
-16
-416
-224
160
256
-352
-320
64
160
-32
-288
-816
-32
112
0
192
16
-16
96
-176
-432
-352
-160
-432
-192
80
96
-32
176
160
-16
48
352
464
16
-256
64
-80
112
352
-16
-400
256
416
0
-112
-416
304
208
384
448
400
176
-464
-48
160
112
16
384
256
192
384
80
224
32
192
80
-64
-240
-64
-128
-96
-128
-112
-272
-32
-336
-320
-208
-32
304
240
32
-432
-288
64
352
160
112
-560
-544
-336
-176
32
192
240
0
-272
-96
-96
368
144
288
160
32
-144
-192
-240
-16
400
640
64
608
160
144
224
-144
-176
-128
-192
-32
-208
-32
16
-144
288
496
496
176
-192
432
112
-32
-272
-160
-784
-528
-96
-16
-32
-64
112
-384
-16
-64
240
544
192
-176
-256
-208
-288
-256
-368
-208
208
48
-80
112
-160
-80
288
288
192
96
-16
-144
496
96
-176
-16
-32
-320
-96
416
32
-336
-16
128
-64
-48
432
272
176
144
32
-224
-64
-144
-384
80
304
-16
-384
-352
-400
-128
96
400
464
384
64
-64
48
80
-448
160
0
112
16
-320
-128
-80
0
288
480
496
-192
-96
272
496
192
-656
-48
-160
-96
-336
-96
-368
-480
-208
-304
-224
368
112
-32
0
352
448
-144
80
-96
416
-64
-240
-192
-224
-96
-80
-304
-208
96
384
656
512
384
416
-336
-464
-560
-400
-160
0
-144
-304
-144
-560
-304
-256
-288
-528
-592
32
80
-176
-384
-368
96
-288
192
-208
-192
-192
272
256
272
-16
0
224
16
128
128
192
-256
-176
-160
-272
-240
-64
-464
-576
-64
592
480
160
-304
80
-128
-240
176
-240
32
224
16
-752
-720
-64
240
-336
-368
96
624
448
-32
-240
-256
96
-48
-336
-336
-272
-112
-112
0
-48
-208
-256
-752
-368
80
-96
-416
-608
-480
-128
-96
-464
-176
656
480
416
48
-96
176
0
-160
-144
192
0
64
-320
-256
-128
-80
144
288
240
-240
320
192
368
128
-80
528
288
656
304
112
-336
16
-176
0
144
-16
64
160
-240
-192
-592
-176
-32
192
112
-304
-16
352
352
32
192
-112
96
224
208
80
-144
-96
400
96
-80
320
256
80
112
224
416
64
-480
0
272
160
-368
-368
96
48
-176
-304
-48
-208
-320
-224
-208
176
64
-112
-240
144
240
64
32
-128
32
128
-176
-48
144
256
-208
-176
96
304
-256
-736
-432
-288
-96
256
96
-144
-176
-48
144
144
320
0
-32
-32
256
352
400
-16
224
-176
0
-192
-352
176
320
272
144
-432
-144
-432
-256
-80
-576
-288
-64
-496
-336
112
128
-160
-368
112
-272
-208
160
288
-240
96
288
16
-224
-320
64
544
192
-48
-128
-160
352
400
-16
-240
-144
32
-352
-144
464
16
-160
-432
240
176
-176
-128
144
0
-80
80
-80
16
-64
-112
-32
-208
192
-192
96
64
-464
-416
-496
-208
0
160
208
64
0
-32
-480
-304
176
32
-224
-608
-400
-32
80
-32
-96
-32
-224
-32
224
-128
-512
-320
448
144
-288
-176
-224
-288
112
16
-272
-672
-80
32
208
-288
-112
64
224
-80
-80
64
208
48
-32
256
176
-240
-144
352
288
32
-192
192
-144
-160
336
416
112
-48
-272
-288
-144
-96
-96
-512
-208
-96
208
368
336
128
32
-384
-448
-304
-144
-112
-128
256
256
144
-128
-320
256
512
192
-64
-208
-288
-384
-240
320
400
320
160
-192
-48
32
144
432
-128
-176
-288
-368
48
-448
-528
-272
-272
304
512
-192
192
576
448
192
112
-432
-160
-320
-240
-144
-256
288
464
64
352
0
-32
-192
-368
-464
272
-176
48
176
-32
-304
-144
272
240
176
16
-256
-16
-112
-96
-80
48
48
-176
-64
-464
-96
0
-80
288
656
32
80
400
32
176
112
-80
272
64
32
-448
-320
128
208
16
-16
-272
240
560
-80
32
304
224
-32
64
0
128
736
336
272
448
288
368
-32
-144
-80
-256
-368
-576
-224
112
-192
-192
16
-96
464
192
-640
-496
-272
16
608
544
-80
64
-384
-80
16
368
176
-144
208
272
96
400
80
112
-64
-368
-240
-96
496
32
-272
-160
-160
-160
64
272
528
272
-32
-288
-560
-720
176
48
-160
64
160
192
-928
-352
-64
96
272
304
-64
-448
-16
352
48
128
-336
-176
304
192
48
-192
96
64
32
32
192
288
-240
-48
-96
-272
80
256
-64
448
384
400
96
-32
160
-48
-352
-496
224
-192
0
-48
16
-256
-208
-128
192
304
-64
-48
-352
-32
192
32
64
176
80
256
64
-288
0
144
336
448
432
-272
-192
64
336
-336
-48
176
-48
128
-288
-208
-32
-64
336
-160
16
176
416
32
-224
224
32
64
-240
-208
-80
48
0
144
144
-144
96
80
-432
-432
-144
-80
128
-160
144
-224
-480
-320
-224
-240
208
176
304
-112
-368
0
16
-144
-64
192
0
-96
-400
144
128
288
96
208
80
64
-288
-112
-416
-224
400
224
144
-64
272
-96
-368
-176
112
48
-448
-224
-240
80
448
16
-272
-80
-144
-80
-64
-144
-64
-528
-448
-96
96
-304
-496
176
320
-80
-288
-144
-576
-224
-304
-368
-368
-352
64
144
-192
-688
-192
64
-448
-480
-272
0
624
400
144
-192
-272
256
208
-112
288
944
224
208
512
128
-384
256
-128
96
-16
-144
176
272
352
-304
-368
-208
240
304
304
448
224
624
48
-416
-80
-160
-64
160
288
-96
64
96
-32
32
-272
-416
192
176
304
-128
-656
-448
-208
192
-144
0
0
336
272
96
496
64
32
176
-48
256
256
-224
192
-16
-224
-32
-160
-112
464
-528
-240
-176
224
640
-112
-16
272
-320
-384
-320
112
-464
-656
96
64
-160
-48
176
16
-160
176
-240
-352
-128
160
0
160
480
32
192
-64
-64
-144
-160
48
16
-432
-128
-272
-240
-16
304
544
144
-368
-320
400
608
-16
-176
176
384
192
-64
832
544
-320
-480
448
464
64
-96
32
-304
-80
-16
32
32
336
256
448
160
0
-448
-64
32
-16
-144
-336
-64
480
576
-32
-304
-256
0
304
-32
288
224
256
256
512
400
112
-448
-112
384
0
64
432
-192
-528
208
112
-304
-272
0
96
96
-112
336
224
-96
112
-144
128
-16
-688
-384
32
560
0
-240
432
-48
-128
384
176
-64
-64
288
48
-176
-288
48
208
-144
-272
112
-112
-256
-256
-384
-336
-16
-416
-16
208
80
-256
-336
-144
-160
-304
-112
-176
240
-48
128
-48
-240
-176
-400
-192
96
-128
-288
-560
0
-208
-368
-272
0
-544
-544
224
112
784
128
-160
224
336
16
-208
224
96
-608
-592
32
-272
160
256
-16
80
368
32
288
240
192
256
-448
-16
144
-464
-208
-320
16
288
-336
-576
-400
-192
352
-144
128
-96
-160
224
-64
336
112
-448
-544
176
112
-352
-336
-96
48
192
208
-544
-528
-208
-176
80
-112
-16
16
-16
272
-176
-320
80
160
96
48
288
0
496
-192
-128
304
-128
64
32
208
-176
64
-288
-272
208
-288
-112
-112
-336
-240
48
288
-176
128
544
224
320
288
-416
-320
48
-96
32
304
64
208
-320
48
-160
-480
-384
-272
-784
-352
-192
0
-16
-256
-64
176
304
-128
-288
336
-144
-272
0
-48
272
-160
256
96
144
272
-160
96
-128
96
64
48
-16
-16
464
560
192
192
-656
-48
864
464
-224
-304
-560
32
48
-176
-176
400
-288
-256
-144
96
16
-304
-96
32
0
-544
-192
16
256
-128
160
304
176
48
336
224
336
-64
80
208
64
96
-240
-432
-240
32
-64
-400
-32
-32
80
176
-16
-560
192
192
-112
-176
224
-208
-592
-272
80
-16
-192
-80
-256
208
384
-256
-160
160
-224
-416
-288
-208
-96
176
256
80
448
-16
512
-144
-576
-144
144
-32
-144
-96
0
80
144
784
848
80
272
176
416
48
144
-32
256
464
352
-16
64
224
64
272
192
112
-80
112
432
224
144
80
64
384
16
-240
80
-112
-176
176
-32
160
240
80
144
384
496
256
32
272
-16
288
-208
-176
96
16
48
176
-32
496
336
240
176
80
64
-384
368
368
-160
-144
-96
-288
-80
80
112
-112
-64
-32
384
-160
-416
-304
80
32
256
352
-160
64
544
384
-128
-528
112
-96
-800
-80
608
512
400
224
288
192
-160
-240
-16
176
192
-144
-208
-320
-240
-144
-80
128
-128
-288
-576
-16
0
640
944
464
-256
-144
144
176
80
272
-176
-64
272
192
16
544
416
-32
-112
656
400
0
-160
624
256
0
-80
-416
-416
-80
64
-32
-208
-240
-224
-192
64
176
-320
-320
96
0
-192
-96
224
400
688
432
768
-48
-384
112
80
96
80
-224
-224
80
512
96
128
32
544
112
-80
-16
-160
-272
64
-176
160
224
-208
-288
112
272
320
656
-48
-432
-112
-224
-464
-656
-160
320
336
400
64
352
352
-96
-192
-80
-320
-224
208
784
240
-32
176
112
160
-448
-112
128
-272
-16
128
112
-480
-208
192
112
96
-288
-336
80
-192
32
192
-96
-224
80
144
448
208
-464
-384
-352
16
336
-128
-64
-80
464
-336
-448
-16
176
48
160
-240
32
-304
-704
16
144
96
64
-304
-256
80
384
-160
-384
-16
-80
48
176
240
352
304
64
336
704
128
256
64
-144
272
-64
-160
256
-144
16
288
-176
-80
-288
-112
304
-144
144
464
96
-256
-208
-48
-240
-176
160
256
-32
16
96
48
-480
-528
-80
-112
-48
160
-32
-656
-144
0
-192
304
-32
-336
-80
-80
-128
-112
-256
-16
-80
-112
-128
-144
-256
0
-288
192
-144
-304
-208
-288
-672
-16
-208
-528
0
208
96
80
400
352
112
-16
-320
-352
96
304
160
-176
-288
336
80
-384
-144
-48
-160
-144
16
-208
-464
-208
224
-336
-80
112
-176
-336
-64
-304
-64
128
432
-80
48
176
320
144
224
0
-464
32
-288
-448
48
336
0
-192
-48
-224
-240
-352
-128
-256
-448
-80
144
-176
-256
-48
48
-80
-48
-32
48
-64
-496
-352
544
752
272
-208
48
288
-496
-64
16
16
-144
-528
-240
64
-48
16
-224
80
0
-336
160
384
-272
96
-32
144
64
80
-144
-336
320
240
80
544
128
240
128
-208
-96
-48
-224
-144
-16
-320
-448
-224
432
624
208
-368
-128
208
192
-160
-288
-240
-160
112
32
-240
-400
16
0
240
224
96
-256
16
-208
-464
-128
416
336
192
48
-96
-384
-144
-48
-128
-160
48
256
-304
-96
-208
-240
16
-272
144
416
0
192
16
-192
-384
-400
-512
-96
-288
-320
-288
-272
-256
-160
-368
48
432
-304
-80
32
-288
-128
64
32
112
-16
-304
-192
80
96
48
64
-64
-304
-144
464
-80
32
352
384
0
-144
-160
-48
48
-272
-96
-144
-112
-704
-448
128
-128
176
48
-48
-208
224
176
-64
-224
-352
-64
-208
-272
176
400
-208
-80
464
496
-32
-320
-272
272
-48
-160
224
192
272
-208
416
384
512
464
528
224
-352
-256
-192
112
-64
-160
80
304
-176
336
96
-176
-224
-224
192
224
192
256
16
128
240
48
272
64
-192
-544
-352
-48
272
-352
-96
288
0
-48
-416
-384
128
224
80
64
-320
-416
-432
-176
256
-256
96
-96
-288
48
176
224
-464
64
528
800
-48
-160
-448
-176
-208
80
32
-432
-208
224
160
-32
640
720
176
-16
96
-80
-48
-240
-176
288
-16
-32
64
-176
208
624
144
-128
-144
352
272
48
-304
-432
-688
-128
-512
-176
208
144
208
272
-256
-80
48
-112
-48
-736
-384
-368
-256
-336
-128
-128
-16
80
16
-32
192
432
48
160
240
96
-96
-32
352
272
112
192
-176
240
-272
-208
224
0
-416
-528
-112
64
176
-80
96
-144
-592
32
-48
256
304
-400
-176
368
352
48
-112
-32
-512
-144
-256
80
80
80
112
272
176
-272
-544
-768
-336
-304
-480
-720
-192
-112
32
416
384
-96
32
-192
-144
-160
32
-432
-48
576
48
48
192
-48
-112
32
-160
-176
-256
-16
-112
-96
-48
160
368
-144
-352
-32
-32
-176
80
336
0
192
144
112
144
-144
-256
-48
-432
16
-320
-32
384
-240
-16
208
80
-176
-304
368
624
-208
-80
0
-128
-304
-144
32
432
-80
-48
-16
-288
-560
-352
160
-368
-144
-160
-240
-224
-240
-144
-32
96
256
80
80
-32
96
656
688
-112
-352
0
480
656
560
160
240
192
-528
-160
464
176
80
176
-144
-96
-32
352
-160
-368
-176
-192
0
240
96
352
-320
-464
352
800
432
-192
-16
-16
208
304
-192
-400
-48
-128
-112
304
592
-256
-176
48
576
416
448
112
-128
-64
80
-112
-576
64
80
240
-16
528
640
32
128
368
208
-256
-96
112
432
272
144
80
-144
80
-16
-128
-208
-128
-304
-352
-400
32
384
-64
-208
-80
-112
16
32
0
-224
-416
0
-16
-16
416
160
208
64
224
176
-144
-288
16
-80
64
80
-352
-240
192
-96
224
256
320
16
-96
-352
-224
-368
-144
64
0
96
80
-288
224
288
304
224
-256
-48
16
304
256
48
176
400
96
48
-192
-208
192
-16
-96
-320
-208
576
224
-416
-224
144
-320
-192
144
-112
-336
-64
-112
-64
240
-160
-240
-240
-160
368
96
32
-256
-256
192
-224
-48
-80
-144
32
16
144
176
-128
528
544
304
-64
-80
-16
144
32
256
-112
-352
-272
208
-32
-208
144
-48
-448
64
352
448
-48
-128
-64
288
448
80
416
352
144
-400
-352
288
-160
-64
352
160
-144
-208
-288
-80
16
288
-336
-128
-288
-608
-672
-32
240
48
128
336
80
160
352
-304
32
-128
-672
-464
176
-48
-256
-560
-192
224
-112
128
288
272
672
336
-240
-288
-112
-96
-416
-560
80
528
48
16
16
-208
-208
-272
-176
-240
-64
-240
-288
-448
-240
-352
-352
96
336
256
32
-64
0
96
64
-64
-32
-128
-400
-128
-112
-48
-272
32
-208
-64
32
-544
-448
-112
-144
-240
-352
-192
128
304
112
560
624
320
320
80
-512
-128
208
-320
-176
-80
-176
-48
320
256
416
672
384
240
-80
-192
64
0
-400
112
-64
128
448
576
272
-80
-80
-160
-160
-288
-160
16
432
256
320
-32
-528
-192
32
192
192
480
480
208
240
304
-176
208
-208
-464
32
48
96
400
-112
-256
-272
-64
416
-16
160
-240
32
384
352
496
608
176
192
-448
-192
-32
-432
-448
0
160
-80
-96
192
416
-64
-96
-112
-112
-32
-80
-16
80
-240
-416
-320
496
352
-192
-16
656
160
-416
-32
128
144
-176
-144
-16
-96
-16
240
224
-272
16
240
80
96
-160
-96
192
224
64
208
-128
112
304
288
-16
-320
-352
-368
-384
-288
-16
0
128
112
304
-384
-288
0
-160
-48
-368
-368
-272
-320
208
256
64
128
-528
-640
-496
-144
48
-192
80
240
0
176
128
-128
-560
-48
-128
32
16
-416
48
288
464
96
32
-448
-160
400
-80
-16
96
-288
-544
-192
272
-112
-32
176
-80
-64
80
176
176
240
80
176
592
128
112
-208
-528
16
32
-32
-336
-224
-224
-224
-96
-144
320
128
-128
144
192
432
272
96
16
128
-64
-112
272
336
256
-16
-160
144
208
112
-16
48
256
112
432
112
-640
-240
-112
256
80
-448
32
-16
-176
-16
80
416
176
-192
-528
-224
-176
48
192
-16
-160
-224
-208
-304
-384
-176
-240
288
240
688
304
192
304
80
64
-96
-64
0
-224
-160
128
80
160
-256
176
688
576
32
112
128
-320
224
528
256
-96
-544
0
-32
-336
-480
240
480
464
48
80
-432
-416
-176
-400
48
-192
-384
16
-32
208
-32
-320
16
-128
496
-304
-112
784
464
800
464
-224
-272
240
-112
80
-432
-592
352
464
448
288
-144
48
160
80
-16
-176
-128
208
544
-288
-256
288
432
432
320
80
80
160
-48
-224
-176
112
32
-224
-464
-128
-64
-176
48
128
-32
-32
336
288
144
-80
208
80
-208
-176
-96
64
176
224
112
-96
256
-48
144
496
64
-48
-48
432
0
-368
-288
32
128
432
160
240
160
-128
-304
48
-592
-320
-80
80
32
0
0
-384
-464
-176
528
400
-16
-112
-64
-288
432
-16
-192
16
32
-96
32
224
-128
-208
-624
-112
224
544
-16
-176
-544
-96
256
160
-352
272
-112
-464
-80
144
-352
-944
-416
-224
128
-16
288
432
272
176
528
96
368
-368
-208
368
256
192
-160
304
496
16
48
-240
-16
320
304
192
-48
-128
192
48
-400
-48
-176
-144
384
656
416
288
32
-288
160
144
96
-176
-368
-288
160
128
-208
-128
-48
-192
-400
-272
-496
-176
48
-96
656
448
64
16
-208
-336
80
32
-256
-112
0
496
112
224
224
64
112
304
-48
-80
384
288
-128
112
-16
80
-208
48
288
64
-192
-272
-208
-144
256
-272
32
-128
-224
0
16
-400
0
256
-32
32
448
-368
240
208
-112
-96
-272
-240
-624
-240
-128
-32
48
-48
-288
272
384
128
0
-48
-192
96
32
-336
-240
-64
256
176
-48
96
32
-448
-304
-240
-32
-528
96
304
288
32
-64
-112
464
224
-272
-112
-32
96
480
480
-96
240
736
320
-128
-208
416
496
-208
-176
-160
16
-112
16
-256
-64
16
-48
-64
176
352
48
384
240
304
304
480
432
-112
-96
160
80
400
192
-368
160
272
224
-144
-368
-416
-416
-80
-384
-560
-192
-160
-64
-32
-16
-512
-128
-80
736
624
96
128
-64
128
448
352
-128
-352
-48
-144
-144
-32
-192
96
272
48
176
176
-304
-32
48
176
288
-32
144
192
-304
48
320
144
-128
-176
-544
-448
96
704
336
-160
-224
-64
288
224
240
-352
-464
-352
-192
-32
64
48
-272
-256
-368
560
480
144
0
16
560
256
-112
-144
-608
304
224
-96
-160
32
48
320
-16
-64
240
288
96
96
-80
-224
416
544
496
512
464
256
64
-48
-512
-560
-80
-48
128
672
240
256
448
416
-128
288
-64
-352
400
48
144
-672
-576
-64
-400
-496
-96
-64
112
-64
96
-224
-48
288
480
176
-16
-336
224
-352
-272
512
-208
240
400
576
176
-80
352
288
368
288
-80
-96
-80
64
-272
-256
-48
-16
144
64
208
64
-96
-96
224
464
208
128
-224
-128
-272
-96
-256
-608
0
352
-48
-224
-448
-432
-240
-192
-160
-160
-208
160
464
208
256
-48
-288
-416
112
304
-512
16
-256
-240
-16
128
144
144
496
-48
192
112
80
-256
-544
-352
272
16
-320
-480
-400
192
256
-16
-96
16
144
288
192
-112
-256
-112
-64
544
176
-48
-160
240
336
384
384
-256
-64
208
-224
16
-304
-400
48
96
144
96
112
-368
48
-112
-288
-336
-272
-48
-80
144
-64
-64
-80
144
240
352
336
688
288
-96
-416
-352
-416
-288
16
176
-16
-224
-96
-96
-272
-368
-320
-192
-192
-224
-64
-32
272
480
64
-128
176
144
-144
-400
192
-80
-64
48
272
48
-304
-528
-192
0
176
-272
-336
-368
-288
-64
-208
128
304
-176
-304
-304
0
448
256
-16
368
192
144
-96
-432
48
256
-64
-96
-496
208
-16
-576
-80
-160
-240
-128
-112
224
128
192
112
512
496
240
176
144
-48
-80
-368
-160
304
240
-272
-224
48
-304
-320
-48
416
-448
-320
128
-192
-464
-384
160
272
128
320
16
-240
-32
160
-16
352
-48
288
-160
176
336
336
464
176
-48
-224
-272
-224
144
240
320
704
192
64
384
512
-208
-304
-240
368
144
-304
-128
-112
-320
-624
-304
-32
-432
-32
160
16
-224
128
-64
384
80
-80
160
-16
240
32
-48
-128
-576
-80
176
128
272
-64
-336
-336
-192
-176
-48
0
64
-304
-384
-368
-80
-400
-224
-416
-144
96
-64
-80
160
480
256
-272
-112
-288
-48
-16
-64
-384
-208
-224
-560
-32
384
-288
256
336
128
80
-144
-48
80
-288
-400
16
240
240
-144
256
0
208
48
-160
-256
-336
-176
-448
-624
-16
-64
-416
-80
-32
-336
336
-224
-304
16
512
240
-768
-224
64
-512
-144
-112
-256
-80
-240
-320
112
96
-48
-96
464
240
-240
-80
-32
16
-352
-384
16
96
368
96
-288
-128
-736
-176
-352
176
304
272
48
-288
64
-240
-176
-32
-256
448
336
-176
-96
80
-432
48
304
-192
-256
112
-240
-16
-176
-288
160
-48
-320
-224
96
96
160
0
-112
-16
16
96
224
336
480
352
0
320
-112
-128
-160
480
656
384
144
400
576
144
-320
-48
464
240
368
16
272
-368
-64
-112
192
-80
-176
-240
0
-48
-272
-352
176
160
-16
352
32
-656
-384
48
224
-192
-416
-240
-80
-32
144
272
48
-176
368
48
-240
304
48
-16
160
-64
128
288
352
-272
-384
-384
-176
48
160
16
-352
176
448
-96
-320
-704
-192
-32
128
320
-416
-64
-48
-128
32
496
32
-224
-192
32
80
-208
-400
-32
80
-112
192
224
144
96
176
144
-384
-368
320
320
160
-240
128
192
-48
224
-128
-80
-240
400
96
-288
-384
-192
-112
-272
-224
-224
192
-192
-384
-432
-336
-400
-736
-160
208
16
-432
-304
112
256
336
-48
-128
160
112
160
32
-176
-336
-352
-464
0
144
-192
320
560
272
-224
-368
-256
-528
-192
-96
-224
352
640
192
96
352
16
-80
-16
-112
-256
-288
-144
-112
-320
-144
336
96
48
32
-32
-48
80
0
-272
-416
-176
-192
-448
-320
-64
64
-240
-368
-240
-320
-64
-80
-208
-32
80
112
-112
-48
48
-464
-112
-160
64
-96
320
528
512
-80
-48
0
96
-256
-464
-272
224
112
80
192
368
48
-128
32
-576
16
336
128
-32
224
176
-304
-384
-48
-192
-208
-528
-16
528
336
256
432
528
-176
-80
-272
-144
144
96
-224
-288
-16
-112
240
-128
240
-160
-208
-160
384
-176
-128
-80
-496
-80
128
-208
-64
176
-208
-80
528
288
-128
352
128
-128
-144
16
192
288
128
-160
80
-256
-128
-48
48
-144
256
-96
-512
-16
64
-352
144
240
-64
-224
-448
-48
-64
208
176
192
-128
-112
-32
-224
-400
-304
224
304
64
64
-368
-656
-576
-320
-320
-144
-640
-224
-208
32
528
32
-256
-304
-160
-112
112
128
384
512
80
-112
-192
-304
-256
240
48
240
-176
-384
-528
-400
256
128
-256
-224
-64
64
0
160
560
336
144
304
528
-192
-48
352
-464
-432
-96
16
-224
-144
32
-592
-432
-112
272
128
32
160
432
240
208
16
-288
-64
-128
-128
128
400
112
336
176
416
480
48
-192
-112
16
256
-128
-464
-512
112
400
-112
224
0
-192
-208
416
-32
0
32
-192
-368
-48
-208
-96
544
176
0
0
80
-32
48
336
112
-96
112
224
352
-144
144
-32
32
320
144
96
-304
-416
-512
-336
208
336
-32
96
288
0
-272
352
208
384
-48
336
-640
-496
-224
-400
16
32
352
608
224
256
256
48
-112
-592
-320
-48
-160
-32
144
0
-16
160
-528
-48
-64
0
-256
256
-192
-32
-208
-352
-80
-320
-144
-96
80
384
-192
512
272
-32
-32
-160
32
-400
-624
-336
-128
-80
-272
-208
-160
240
96
-32
-48
272
240
-144
-288
48
-160
16
176
368
208
-240
-608
-224
-128
-496
-96
-288
-64
-240
-304
-320
48
368
96
-384
-208
-80
-32
80
-96
48
272
-112
-96
496
720
16
-384
-192
-64
-144
-464
-208
-240
-32
-208
160
384
-96
-160
-224
-176
-192
-336
-256
-352
-128
16
-160
-64
0
-64
-416
-448
-464
-592
-464
-288
-528
160
176
-80
-32
-336
80
112
48
-16
0
48
96
96
-112
-32
16
-96
32
-80
224
256
-240
-288
-64
-16
272
-16
288
32
-112
-32
240
-320
-368
240
-272
416
480
48
128
-256
96
272
0
-80
-16
144
-144
-368
-128
288
192
320
-48
-96
-288
144
-64
-208
64
160
64
448
416
-176
-144
-384
-208
416
272
176
80
352
496
-96
-352
192
-48
-272
-304
-496
-160
-96
-48
-128
-32
-96
48
-240
-144
-240
-432
96
32
-112
240
-272
-320
-832
-160
-320
-208
64
224
-128
16
80
272
16
-384
-64
80
-96
-160
144
208
16
-128
-176
-320
32
336
128
-176
-128
-336
0
-416
-16
-288
-256
-16
416
-144
224
448
176
-32
368
192
64
-208
-48
176
144
-176
112
368
112
192
16
-192
416
-160
-96
336
-64
240
240
576
224
-288
-480
-208
112
240
-48
-32
-240
-80
160
0
-96
64
48
160
160
-160
-336
-464
-736
-528
-400
-512
-480
-848
-240
-480
-48
-384
-464
-112
-416
-464
-176
80
304
272
224
656
720
-48
-208
272
368
-416
-752
-416
-464
-352
-480
-240
-32
-224
224
-368
-224
-176
-192
48
-160
-368
-192
-80
-80
-256
-192
-80
-208
0
-208
-368
48
-48
-144
-368
96
-128
128
-160
-128
-368
-128
-304
-96
-48
-160
-272
-160
192
96
-336
-240
128
-96
144
128
-336
16
-336
-512
-176
64
160
144
48
32
416
-112
-608
-432
-112
80
-32
-464
-112
336
304
-304
-464
-272
192
-48
-128
320
48
-16
432
544
48
80
-240
-128
-256
-304
-224
-384
-480
-80
464
176
-96
48
16
-320
-112
-400
464
448
-96
96
272
112
-160
112
-32
-240
288
496
-432
-336
-64
-336
-432
-192
96
-112
-240
-416
240
-528
-656
-256
-16
-48
-384
-32
224
288
-128
32
448
-128
-64
-32
176
304
-224
-112
32
-176
-208
-256
-32
32
128
208
112
-544
-752
-80
176
240
-208
32
320
96
-112
-144
-48
-192
-96
224
-128
-656
-112
144
16
-416
-80
272
48
32
368
-176
-32
-208
80
208
128
-32
-96
176
96
112
-64
176
48
-240
-208
272
288
-304
-528
-144
256
160
192
80
-160
208
160
-272
-48
-224
-464
-304
-480
-256
336
256
-32
-192
-304
-288
-240
464
256
144
-416
-384
-448
-208
112
-112
128
-208
-112
240
304
160
-352
-400
-64
256
-112
48
-320
-304
-176
-176
-336
-736
-656
-288
-16
-96
352
160
-96
368
-96
304
224
-272
-320
0
-112
0
192
-272
128
-208
384
256
-288
-224
-32
-160
-464
112
288
480
224
-16
-96
-432
0
64
-192
-16
112
480
352
560
-96
64
-16
-16
-320
-448
-160
-288
288
288
720
0
-112
-32
288
48
288
224
288
32
-64
-384
-336
512
208
-208
-240
80
-32
32
-672
-704
-736
-112
-64
-192
-336
-96
-432
-160
-16
416
160
224
0
-64
-160
224
480
176
112
16
-32
-128
-528
-96
192
128
176
0
-208
96
-208
-240
240
112
-208
-192
384
432
128
-272
48
-96
-96
256
240
-192
208
480
128
-256
-144
192
240
-176
-576
-400
-32
-32
-320
32
192
288
256
-16
96
176
144
192
-48
-96
-80
-384
-288
-320
-544
-96
272
288
160
-272
-160
64
336
432
-160
0
-32
0
48
-48
-192
-48
80
96
160
192
-144
-240
-368
-464
320
176
-32
32
432
144
-48
-96
320
400
80
352
288
320
-336
-528
-192
-160
-16
144
176
128
240
-192
-208
-160
-176
-176
-272
-96
-176
-64
-688
-576
-64
-224
96
96
416
496
64
-48
-16
-224
0
208
416
-336
-416
-288
-192
-352
-80
-48
32
32
288
384
288
-144
-80
80
48
0
-48
272
48
224
192
144
-208
-176
-16
560
688
64
-176
48
-400
-112
-128
80
48
-48
-48
48
304
-128
-16
240
16
-112
-176
-448
-320
-112
-320
-480
-368
-464
-224
112
-176
-304
176
272
16
-464
-96
384
288
-208
-256
-368
-384
240
0
160
592
160
48
16
320
64
80
-176
-304
160
240
32
48
160
144
16
32
-192
-176
64
-176
368
256
-16
-224
464
240
48
-16
32
384
224
448
304
-16
-496
-304
-208
-336
128
208
416
-256
-320
-352
-240
-336
-352
-80
160
-80
-368
-32
144
240
0
112
-48
-720
-368
-16
-240
-32
256
-128
-416
-560
-368
-240
-352
-304
-512
0
112
-192
208
480
448
16
-160
-80
-144
32
-240
-80
-320
-352
-32
192
-128
-208
-96
-32
-80
304
320
128
-240
-176
-112
384
480
-160
-400
-288
-432
160
-144
288
0
464
336
-32
-144
240
16
48
240
-256
-144
-96
0
-96
48
96
208
192
416
16
-112
160
176
400
-96
-240
-96
-192
368
560
480
336
432
624
144
32
432
368
320
48
224
48
192
-16
208
544
80
256
-80
-240
32
496
400
400
0
192
256
-64
80
432
784
448
480
96
80
368
288
352
-48
-496
272
208
320
80
-160
-48
160
-48
-16
336
-80
-256
-272
-480
-256
-160
-272
128
256
-112
-304
-320
112
-48
16
64
496
816
224
-16
128
272
-144
352
544
240
416
176
-48
272
-160
80
160
-112
-176
-464
-736
-192
-16
64
224
-384
-208
160
272
48
-48
-208
-352
0
0
-80
-432
-272
-96
64
256
-96
-80
-272
-96
-16
208
160
80
256
256
-112
-80
-224
64
96
-80
-400
-208
176
208
-16
224
-160
128
48
-64
160
224
432
-352
-32
480
240
96
496
320
-80
320
208
0
768
384
240
-192
-80
64
-144
176
16
160
672
480
-160
-496
-64
240
240
320
816
464
336
368
272
176
480
240
-224
432
16
-48
-160
80
48
-128
-32
112
336
144
224
208
-208
-288
-432
-288
-400
-48
0
192
192
-128
368
48
16
192
208
-128
128
-32
-32
-48
32
208
-48
608
512
608
272
16
112
336
-240
176
256
-48
-352
-112
-48
-544
304
480
32
-96
32
160
368
512
656
384
192
-32
-368
80
224
256
-48
-128
368
544
400
176
64
272
-240
-368
-64
-464
-48
720
144
112
-224
-208
-48
96
-240
240
-16
-112
160
128
-48
-240
32
64
-64
320
-112
-240
-144
336
112
528
640
320
32
352
352
464
-16
-320
-64
-352
-256
-304
-144
64
-320
-176
384
400
256
-368
-480
96
128
192
176
80
-336
-400
144
96
304
336
-176
-144
-192
-64
208
-128
400
208
-160
192
464
464
112
112
80
-288
48
16
-112
0
320
112
176
-112
192
-384
-80
-112
512
416
240
320
-272
-400
-64
112
128
-192
-64
-288
32
160
96
-320
-336
-288
16
-416
16
288
-400
-240
-240
144
-128
-144
144
-80
-32
176
-144
608
-432
-272
0
64
464
240
-64
384
48
96
320
736
0
-208
240
192
-16
-448
-112
448
272
-112
-240
288
736
464
96
-288
-400
-432
-208
-352
-80
624
176
-112
192
384
208
16
64
48
-112
-16
0
288
304
-144
0
-416
-128
128
208
-32
-256
128
336
224
176
-64
-96
128
-64
-240
-96
-208
16
-16
240
576
160
-448
-544
-368
144
-48
-192
112
-384
-384
256
-32
64
128
128
96
-176
48
192
464
32
176
112
384
304
112
-208
-128
-128
-96
96
256
-256
-96
-128
16
-208
-112
-288
-176
-208
240
368
-96
208
-32
-224
-32
-112
-208
0
-128
-352
-384
-576
-528
16
64
-16
-192
128
32
-64
368
-496
-80
48
272
-48
-336
-224
-304
-272
-192
-208
-320
208
-96
48
-96
-288
-80
-144
-144
-176
128
16
-16
288
416
256
-240
32
-256
-352
-128
-432
-368
-640
96
256
368
192
-304
-336
-192
-128
-304
-80
128
0
-256
384
656
160
16
-144
-96
192
-80
-176
112
-208
32
-256
-208
0
480
416
-96
-304
-224
-16
-208
-144
368
352
64
-32
48
-112
-480
-160
-192
-208
128
64
-16
-64
-304
-480
32
-352
-272
144
96
-128
272
176
-160
-80
80
-32
112
80
-240
-400
-112
16
-624
-336
144
32
-16
96
-336
-288
80
320
112
48
-224
96
16
-224
-224
0
-352
-288
-560
-224
-112
-144
176
352
96
256
96
112
224
-48
-48
128
144
-160
-32
-96
-32
16
48
0
192
-400
96
112
-128
32
32
640
176
-16
32
-304
160
32
272
192
-320
-640
-192
256
496
96
-64
64
368
80
0
-16
0
272
32
-64
-208
-32
128
-112
16
-112
-160
240
-240
-368
144
576
112
-320
-80
128
-208
-48
-432
-128
128
144
-64
-400
-48
16
-256
-384
-400
-304
-288
-192
-160
272
112
-336
-192
48
560
-16
304
112
-80
-192
-256
336
304
-32
32
-80
-256
-176
80
32
96
-64
-640
-160
208
-288
-272
-16
-80
-48
96
128
384
-192
176
240
48
-240
-224
192
-96
-384
0
-176
-112
-208
-320
-224
16
48
304
448
336
32
-432
192
0
-240
352
272
208
-112
-368
-176
192
16
-464
-144
160
208
16
-144
-64
240
-240
-160
-48
-208
-272
240
224
-96
-112
-192
-80
-336
-32
-224
-304
-128
-64
-80
-160
-80
-176
-432
-224
-288
-176
384
224
-48
80
-144
-656
-96
-272
-192
-448
-176
-80
160
336
-176
-256
-336
-192
96
336
-96
0
-144
192
64
-96
-128
96
304
-224
-224
-272
-240
-144
-400
80
304
384
-336
-576
-272
-640
-256
-240
-128
64
112
96
272
320
496
-48
-80
-96
272
384
16
128
48
80
-112
128
-16
176
368
-48
-400
-16
32
144
304
640
640
144
96
-80
-192
-48
-272
112
160
-208
-448
-400
-240
-144
80
416
80
-128
-224
-336
-352
-160
-176
336
192
-32
-96
-160
240
208
448
288
128
96
208
-160
-256
-32
-208
0
672
544
32
-16
-32
-112
-224
-128
-480
64
240
416
-256
-720
-48
16
-304
240
272
-96
384
-448
-48
288
64
-32
-240
80
192
-112
304
-192
-176
384
256
192
256
352
96
128
-256
208
-32
-192
240
144
144
368
-160
-304
-16
48
368
160
-304
64
352
144
-80
272
-16
-112
448
256
160
352
-288
-176
-112
528
720
368
464
-32
208
176
-496
-288
-544
-352
144
384
208
-48
-368
-32
64
-160
288
-80
0
480
32
-32
432
32
224
-80
112
-176
-272
-80
-160
-160
-32
32
368
112
96
480
-256
-256
368
512
-128
-320
-320
-304
48
224
320
-192
-80
-32
-208
128
368
-48
272
32
64
176
192
-64
96
16
112
96
48
-64
16
128
-80
-64
0
112
192
160
-48
32
400
336
192
-288
-64
16
-16
96
176
496
48
224
160
720
480
208
192
-144
-320
256
224
16
-176
192
576
304
0
32
-128
-352
352
128
-160
-144
-368
-352
48
336
176
-48
-176
128
240
240
-320
32
192
-512
-448
64
-64
224
480
-288
-512
-464
16
-48
-96
-128
-16
-320
144
288
-96
240
176
560
-64
64
-16
192
288
96
-96
-256
-224
128
128
-480
-224
-144
-480
-704
-320
-144
256
-16
-16
128
208
-208
144
-96
-16
224
96
48
0
-288
112
192
32
208
80
32
-128
48
288
112
400
384
272
96
192
320
304
128
-320
-400
-432
-32
112
96
32
0
48
-576
-400
-416
384
240
192
224
0
256
272
-288
256
432
144
208
272
-16
-48
128
368
416
672
64
-128
-32
-160
128
304
464
-144
-112
80
48
-48
352
336
736
96
-304
-176
-256
-208
-128
-240
-144
-304
-336
240
144
128
112
-224
-240
-288
-224
304
144
400
96
-32
464
96
0
-288
-192
16
-16
-176
-256
-80
48
96
352
48
-384
16
-144
-16
-96
-192
48
-288
-80
304
560
368
320
-144
240
240
-128
144
-16
192
624
352
-176
-48
112
32
-208
64
32
-112
-288
-48
-320
320
320
704
656
0
48
-208
-688
32
32
320
-32
-32
-192
96
-80
-448
-784
-384
192
240
176
240
-64
-16
-208
-400
-192
-144
32
-64
208
160
336
160
-192
-48
-432
-384
-160
336
-32
-304
-128
-208
32
112
-464
-48
288
464
-368
256
432
32
112
80
320
176
-16
64
-320
-176
-416
-16
208
0
-240
192
400
336
32
-192
-320
144
144
-528
-240
224
384
208
16
-64
-16
80
128
-80
96
400
272
176
32
192
64
480
80
48
-16
-80
0
16
176
-352
-80
80
0
80
112
144
160
352
416
16
-224
-16
80
608
0
208
0
48
80
448
224
304
176
-16
-80
128
432
64
240
96
64
48
-224
-368
-240
0
32
272
144
96
0
-32
-160
-352
-144
-80
-16
-400
-256
112
272
256
-272
-528
160
112
416
496
32
32
-96
-64
-96
-112
-400
128
336
128
-96
-128
-96
0
-16
-320
-160
16
224
160
-384
-208
-80
176
16
-352
-128
-176
-48
-128
-256
-560
-208
384
528
80
48
-384
64
-96
256
320
192
-16
64
16
176
240
-128
-336
16
192
-32
-224
-336
-288
-80
48
272
-272
-32
-16
64
128
448
256
-128
-208
-160
32
256
336
176
48
256
48
-128
208
64
256
128
112
-128
0
288
96
-32
-16
-32
-256
-176
-176
112
-240
192
176
288
352
-224
-16
304
352
256
-64
-160
-192
-160
80
-224
-272
208
432
256
240
288
160
-384
-288
64
-32
-288
-144
96
-336
-336
-32
-64
-128
-224
16
-16
352
80
-272
240
432
704
-208
-416
-176
192
160
-96
656
240
-48
-96
-800
-560
208
-48
-224
-80
112
336
-96
-432
-576
-304
256
-128
-320
176
-208
544
544
272
96
64
-304
-32
80
336
48
-32
-368
144
592
-112
-112
-240
-64
-96
208
240
288
-128
-464
-96
-192
-336
-368
480
560
16
-384
32
-192
96
208
-16
176
512
480
-320
192
304
64
-128
-464
112
16
320
224
128
-256
160
160
-384
176
704
160
-48
64
304
240
64
-416
-512
-528
16
96
48
-224
160
688
288
-80
0
-224
-304
16
-256
-496
-128
-112
-256
-208
496
432
336
192
-80
-48
-32
48
-192
240
192
352
-272
-224
576
384
16
64
96
48
32
-80
112
-208
-240
80
-160
128
-304
-160
-192
128
-32
32
32
320
-80
-144
-16
-144
352
112
-448
-448
-496
-256
-16
-352
-144
-128
480
304
16
128
480
112
-128
-272
0
-192
-288
608
336
-32
0
-96
-128
-64
-48
224
-80
-528
-512
-384
-176
-240
-352
-368
-272
-48
16
-48
-32
48
-464
-208
320
-48
-352
176
64
240
352
-240
-288
368
-240
-64
176
80
-224
-416
-176
-48
-432
80
-128
-304
-256
-48
64
-240
-240
-144
-176
16
192
544
176
32
16
80
128
32
80
80
-208
-208
-352
-16
-304
64
-144
160
-96
-416
-352
-16
272
640
96
80
240
0
-64
128
224
336
672
496
-32
-128
-64
-224
-544
-176
-240
64
112
-160
-112
304
-144
288
208
96
-16
368
48
-80
-96
-464
-224
-112
-96
-48
-272
-192
-48
-16
-288
-64
176
-560
-80
-96
-144
-144
-416
48
0
112
224
-208
-224
-32
-32
288
560
-80
-128
-192
-208
128
-176
112
96
176
16
912
288
-96
-304
-192
112
-64
-800
-288
560
448
-256
-80
-192
112
-320
-384
-144
-272
