528
560
-16
-528
-384
-384
-128
-384
-48
32
-352
-400
288
-16
208
0
-64
-96
-320
-64
336
400
-544
-112
-48
-224
128
112
-272
-48
384
432
240
32
-16
192
448
224
-160
-624
-752
-128
224
-144
-432
-208
-128
-272
-560
240
-384
-464
-320
-224
-144
-16
-80
64
-32
-32
336
-16
-304
-144
400
448
-48
-128
-160
80
-48
-256
80
208
-240
-720
-80
32
112
16
16
0
-112
112
-160
-288
-224
-48
176
-80
192
80
-96
192
96
96
144
736
272
-160
0
0
160
-160
-16
352
384
112
160
272
112
-48
64
48
-128
-144
48
272
384
-96
-416
80
512
288
-176
-48
16
-128
-128
-16
16
144
-48
112
-656
-624
-192
-256
-128
-272
128
-64
0
112
240
192
320
736
528
-64
32
320
704
-32
-32
-96
32
48
-112
144
-144
-288
80
64
-400
-448
-192
272
-64
-432
-272
-240
32
-192
-64
256
304
432
224
-144
-64
-64
144
0
112
-400
80
96
-336
-48
256
96
-80
-48
-112
32
464
448
80
192
144
-128
288
32
-112
240
208
96
-240
-640
-64
-288
-224
224
-272
-464
-64
-48
-128
-320
-480
-224
-464
-336
-272
192
-80
-448
-240
-192
-16
-32
-256
-496
-32
80
128
-240
-224
224
272
48
96
464
400
0
-272
-144
-160
336
432
160
-16
96
16
-384
-128
-352
128
-32
-224
384
352
320
352
-160
-336
208
544
448
240
432
-80
240
448
160
128
208
208
560
272
304
496
16
-240
-80
-64
176
272
112
-240
-320
-240
-192
448
80
-160
-144
-16
32
-240
-48
-192
32
144
-32
-128
-368
-112
224
368
-272
-224
-64
-80
240
80
-128
144
-256
-272
208
512
-48
176
-32
144
-256
-512
-144
240
336
400
528
528
560
384
208
320
160
192
288
368
640
192
448
144
-272
-80
272
-96
-48
-96
-80
80
64
-288
-176
96
416
544
224
16
96
96
0
304
-16
112
-64
480
592
160
240
96
-208
128
384
-96
176
176
32
-208
368
192
-96
-128
-32
0
160
144
400
32
160
-224
-112
368
336
416
368
416
-288
-144
32
-160
-400
-480
-128
-160
16
256
160
304
320
96
400
48
-320
80
128
-224
-96
-416
-224
-32
240
-96
320
480
432
-416
112
336
-352
-128
272
-144
-192
-544
-384
-64
80
352
80
-16
-112
-496
-96
368
272
32
-192
-288
-224
-352
-240
16
624
96
-128
224
-32
-176
192
144
64
96
0
-112
-416
-320
-496
-48
544
128
32
-224
128
208
144
656
256
-32
32
448
16
-80
-288
128
272
-304
-16
16
32
-32
80
-336
-48
224
16
-240
48
-96
-320
16
192
112
-32
-48
-240
-288
-368
-560
-384
432
208
-64
-128
144
112
-48
-32
96
64
-80
-128
224
208
0
-240
-288
-288
80
80
-32
-128
-400
16
-32
-64
-48
224
576
432
128
192
-48
-400
-400
-288
-48
-160
-112
-128
-496
-32
64
-16
-512
-208
-32
208
-128
-304
16
32
32
-80
-32
192
-80
-32
-80
-192
-176
-224
-128
144
-16
-176
144
-208
-240
-112
-96
-32
176
336
224
-240
-416
-320
-176
-144
176
640
336
48
384
304
-320
-656
-432
144
288
400
240
48
368
304
192
80
-80
-128
32
-144
96
16
-176
-112
224
48
0
-192
-128
240
416
384
16
-32
464
192
144
-96
128
-112
-96
-144
64
64
-128
0
-80
-256
192
176
512
272
96
176
16
0
320
448
-128
-288
160
-272
-240
-32
192
208
-48
-336
80
-96
208
-32
448
656
368
-16
-128
-256
-32
256
48
-304
-304
-336
-96
368
240
464
-48
-288
176
-96
176
96
-48
400
240
256
32
-240
-432
-384
16
304
-560
-224
80
-624
-480
48
64
-16
0
-96
176
-96
-320
-224
-208
224
-48
80
-48
64
352
-256
-320
0
272
448
80
96
176
32
272
176
-160
256
320
-16
-16
352
-144
-160
-208
128
-16
-144
-208
-80
112
-192
-352
32
128
-144
-384
-112
128
-224
-80
-240
-352
-16
-240
-304
64
-16
-368
-208
-528
-64
-144
-544
-224
48
-208
-64
-32
448
464
-96
-368
32
192
96
32
144
-112
272
64
112
-192
-64
-176
-160
-112
96
80
-192
-176
-208
96
-48
384
352
64
64
32
-80
-16
-144
-48
-64
-128
240
-160
-480
-176
80
112
128
832
256
16
144
-80
-64
336
16
-240
96
320
-16
160
112
32
-112
-144
-288
-48
0
-96
-208
-160
-320
-336
48
176
192
-16
240
176
-112
-48
-48
-32
176
128
272
144
-160
288
496
224
-336
64
-80
496
288
-240
176
64
-112
16
-80
-320
160
368
240
0
32
-64
96
-16
0
32
192
-160
-16
-112
320
336
288
0
208
160
-112
-32
144
624
-64
-144
-240
-16
-304
-80
144
32
-400
-304
128
-592
96
480
-224
-512
400
160
176
304
32
-176
-224
-288
-192
-480
-288
-272
-16
-16
-240
-352
256
48
48
-96
112
240
16
-80
192
-272
-448
80
160
240
-240
-208
0
272
-32
-224
-192
-32
176
368
-240
-336
128
0
240
96
96
-112
128
608
336
256
64
224
-224
256
672
448
-48
-336
32
336
-48
-64
128
160
64
64
-32
-80
-544
-624
-320
48
144
208
-672
-480
-560
-32
112
16
288
-16
-208
48
32
-128
-144
-80
224
-128
-32
-112
112
-32
-32
112
144
-256
-128
80
128
320
-144
128
432
336
288
320
336
400
288
16
-560
-48
144
-112
32
80
112
176
144
224
16
256
-32
-112
-400
-496
-480
176
-32
-48
208
16
-144
576
144
-128
-224
-208
-320
-208
-224
16
-80
-80
-240
-208
160
-288
64
112
-272
-352
-96
-224
-512
-144
160
-160
-336
-336
160
208
-160
-112
528
-32
128
416
544
64
-144
32
192
-224
-480
0
16
176
-128
-624
-544
64
336
256
176
-224
48
112
128
160
128
48
-80
320
64
-96
144
64
-224
-240
176
-176
-208
176
64
-208
-592
-384
-48
208
0
16
64
-416
-368
-128
-224
-224
48
64
-80
-16
-288
-176
-160
-208
-80
-368
-64
128
256
384
-192
208
240
-64
-672
-144
288
-144
-432
-624
-512
-352
-480
-224
16
-96
-48
128
-48
16
-96
96
256
-208
48
64
-32
-544
-16
-128
128
-128
0
288
192
304
144
-368
-112
80
-144
-336
-176
112
-160
-368
-176
16
48
-80
0
-64
-32
-384
64
-192
-336
-160
64
-176
80
432
464
384
208
144
80
192
528
16
-208
-224
-336
0
-240
144
-32
288
-80
-80
144
-256
-272
128
304
96
-224
-32
400
368
176
240
-32
80
80
-272
-208
-256
-368
-448
-128
160
192
-224
-304
288
144
-64
-240
-176
96
176
96
128
-304
-128
176
32
-448
-320
-448
-48
48
-112
128
48
432
304
-16
368
64
-304
-224
-112
-336
-160
192
368
128
144
96
-528
-368
-304
96
-80
-368
-64
-432
0
224
-144
304
176
288
400
-224
-192
-112
-64
256
288
96
-224
-176
-208
-448
-256
-192
-192
64
80
-208
112
256
-32
160
544
384
528
-96
480
32
-128
112
256
192
-176
256
432
-240
16
64
-128
-464
-320
32
32
128
-144
112
16
-96
352
496
304
48
-384
112
192
32
-224
-416
-96
0
80
384
208
32
-256
-416
240
224
-80
208
224
384
144
352
-16
-304
0
240
384
256
96
112
32
-256
-480
-304
-160
-192
-32
192
240
-80
-32
-64
-400
-192
-576
-112
-144
96
-144
-416
-736
-800
-176
480
240
16
352
80
-176
-192
144
512
144
32
-144
-48
336
400
304
-64
48
400
368
-224
-48
32
16
240
112
-128
-544
-464
-304
0
80
160
-272
-624
-320
-16
80
432
-352
144
320
224
-272
-336
-80
-240
-176
80
432
432
64
-64
-240
-112
352
528
624
160
-160
-32
320
128
-32
-16
48
-288
208
272
-160
-240
0
240
736
64
-128
-160
-272
400
128
-224
-48
160
16
-176
-32
112
-256
-288
160
-208
-320
64
96
272
-288
-16
112
-416
-48
-48
-704
-288
144
32
336
192
176
-144
-192
-128
-384
-560
80
160
576
256
192
-112
-240
64
-176
-32
-160
-352
-112
112
-80
48
-320
176
464
144
288
176
240
-160
-96
-208
-64
-128
-208
-224
-96
64
288
64
-64
336
496
288
-32
-64
64
-192
16
-304
-304
80
112
-144
-80
-256
-48
-96
32
-400
0
-48
16
-208
-32
176
-240
-256
0
-288
0
640
528
160
-48
112
304
624
368
-80
-80
208
-48
-160
112
-48
80
336
-368
96
496
176
-80
576
272
128
-304
-304
-320
0
304
624
160
160
-320
32
-176
-240
-160
-384
-624
-320
-304
-368
-176
-288
144
384
480
-256
16
-112
-528
-208
176
-400
-304
-32
-448
-208
96
-80
-288
-272
240
48
224
-16
-112
-176
-48
-48
320
480
528
192
368
320
576
432
288
-80
-128
-176
-192
192
-112
-400
-544
-624
-80
224
160
48
32
-96
-16
128
80
32
-384
-240
208
64
-32
-208
-64
-208
352
176
48
-112
-528
-256
-128
-256
32
160
-16
-336
-416
-208
256
144
-192
160
416
192
32
-400
-464
-16
256
256
32
224
384
-48
-400
112
400
448
-160
0
352
-96
-288
336
48
-160
-16
-160
-160
-160
-288
96
80
288
-208
-192
176
256
-96
-208
16
-32
-32
96
-64
176
-96
-368
-480
-160
672
336
-528
-160
80
48
-176
16
0
-112
416
112
-384
-272
-144
-432
-64
256
-16
96
32
-16
-208
-64
432
-112
-192
-320
0
-16
208
160
-192
-400
-192
384
496
320
192
-32
16
128
16
-192
-64
16
-144
-64
-16
16
-144
-240
240
592
320
784
32
-48
0
96
192
272
-224
-176
-256
112
-80
-176
-96
272
256
80
192
-208
-192
-32
112
144
-144
-48
-48
-176
400
432
144
112
0
-256
-16
96
48
-400
-272
-288
208
320
-64
-192
48
336
16
-128
-320
-352
-416
-208
80
-128
-272
-160
-544
-112
208
-32
320
688
-32
-240
16
-416
-576
-272
96
-192
224
240
-208
288
160
-304
-304
-464
-496
160
192
80
80
-176
-32
-32
-176
64
-128
-96
-16
176
480
-48
96
576
160
-80
16
-80
-176
-128
-208
32
-256
-320
208
416
-96
-224
-48
144
128
-208
400
256
-48
-48
-80
176
64
-128
-144
-464
-304
-256
-112
112
-368
-208
48
-208
-224
-272
128
384
144
368
384
-208
-528
160
240
272
112
80
48
352
320
224
-160
-16
288
464
16
-160
112
48
-80
0
-208
-400
-144
-112
0
-32
-160
672
288
-144
224
-16
-496
-192
-80
-128
-192
96
288
80
-176
-272
-144
-416
128
320
208
-480
-256
-352
128
224
240
176
192
48
-256
-96
-144
-112
-128
112
272
272
0
-176
-64
0
96
352
-384
-448
80
-208
-80
-416
144
496
-80
-48
-240
192
432
128
336
240
-480
-656
32
192
528
80
80
224
-112
80
48
192
-160
-256
-608
-560
-112
-112
384
0
160
-176
160
128
-176
-80
-272
272
304
-16
256
192
-176
-368
-16
208
0
-144
-400
-48
64
-32
0
32
-112
64
-48
-128
-32
224
144
16
224
-96
-400
-192
656
544
160
112
-112
-160
-480
16
-112
-304
96
128
-480
192
320
176
96
-64
-384
-288
-560
-384
-64
16
432
-64
272
304
-288
-176
112
-160
-160
-688
-176
-176
0
96
-32
144
-272
-32
-416
-240
-224
-224
0
-224
-144
96
-80
-144
32
272
432
-176
-400
-192
-144
-176
-368
-224
176
80
48
144
-160
-208
512
608
32
-656
-160
16
-240
128
176
208
192
-160
-16
240
304
320
-160
-320
32
32
-224
-272
-560
-448
-464
-336
-288
-480
512
288
80
-272
192
-16
-48
-16
48
-448
-336
-144
320
224
-512
-256
16
-240
48
80
128
-112
-192
-192
224
496
432
64
-160
0
128
-80
16
-464
0
80
48
432
-240
-128
-48
80
32
0
144
208
48
-304
-512
256
-32
-96
-64
-160
-304
-64
-512
-304
-32
64
208
464
416
272
80
-48
-192
-80
-112
-48
272
-128
-336
128
-48
208
-208
-160
64
32
0
-96
-272
-336
-320
144
304
80
32
256
112
-368
-160
-32
-80
-64
-160
16
-80
128
-272
16
144
240
128
304
80
112
256
-32
288
256
304
48
192
-32
400
-144
-32
-80
-336
368
-192
-192
96
-224
-224
208
784
-80
0
0
-144
-320
240
304
192
-48
-160
224
240
176
464
16
0
-224
-448
-224
-48
16
224
432
-128
-112
-64
16
-160
-320
-64
544
320
0
256
112
-272
-176
-496
-288
16
-416
-112
144
-16
240
320
-160
96
320
64
-208
-128
160
-16
-288
-192
-240
-96
16
-592
-368
-336
-352
-112
-160
128
-48
-304
-240
-160
-32
176
432
208
480
-32
-336
-240
48
-48
-320
112
144
-192
-480
128
-112
208
48
-192
-80
176
128
656
288
512
448
-224
-64
-240
336
-80
-112
192
736
384
528
272
-272
224
784
176
160
48
-144
-352
-400
32
160
16
320
-16
368
96
-192
-208
-64
144
-144
0
-208
-96
160
272
320
352
208
48
256
128
-208
208
96
192
128
160
160
304
432
-112
-48
-16
48
-224
256
144
-48
176
0
96
-64
-96
-576
-176
192
32
128
48
272
0
-64
-112
-224
-80
0
-336
-208
-272
-48
128
464
688
752
128
-272
128
96
-368
-528
-496
-64
32
-224
-48
-384
-688
-352
-304
-336
-128
144
208
128
-208
-32
640
672
400
-112
32
336
144
-320
-288
-80
176
-128
-320
128
96
160
-80
-144
-128
-144
-96
272
320
320
272
496
400
-64
-208
-176
-272
96
-64
-80
-16
-368
-320
-160
-144
-288
352
288
-32
-304
-256
176
32
-48
-64
16
288
144
16
112
-144
-368
416
320
176
192
-144
-304
-304
112
80
0
16
0
240
0
-224
0
48
256
144
192
-224
-368
640
240
-336
-320
-448
-128
-32
-192
-192
-304
-224
-208
-208
-160
-288
16
-32
-208
-352
-240
128
-512
-160
-208
-64
624
560
-16
-208
128
-32
448
496
144
64
-128
96
464
256
48
16
-112
-560
32
-64
352
0
64
272
-96
240
-144
-48
-128
-256
-16
0
-16
-288
-224
-256
-48
-352
-384
-224
0
-272
-80
48
48
-144
0
-32
-32
16
-96
416
96
48
160
256
80
160
256
384
480
352
464
224
64
-64
16
144
352
592
240
-144
224
352
-16
-32
304
-80
16
48
-80
-160
-160
-48
-288
48
0
-112
624
720
112
16
-32
-256
-192
224
400
-32
368
464
160
-144
-336
-144
48
224
-48
-240
-288
-160
32
-224
-96
-112
-144
128
624
-32
-576
0
256
128
-48
160
64
-96
-416
-352
-96
0
80
192
-16
-576
-240
-368
-144
80
704
624
-208
-256
-432
-48
0
624
112
464
176
-64
-32
-96
-272
-288
-320
240
-48
-400
96
-112
-272
-32
-64
208
-64
-448
-288
96
160
64
304
-112
80
64
128
128
112
352
704
1008
640
240
64
-112
160
-48
-64
144
400
128
-336
-272
-128
-80
432
-96
-560
-336
-400
32
-160
-128
224
-464
-224
320
256
0
-272
-48
160
448
-144
288
352
224
240
704
320
144
-416
-592
-80
-160
208
384
368
-48
-128
-16
256
384
96
-176
-560
-288
400
624
704
432
192
-32
64
-96
-320
-48
-160
304
160
32
-80
-208
304
368
256
48
80
16
-320
-144
-176
240
352
-368
-272
-224
-512
-656
-416
-144
-304
-352
-16
-16
128
-176
176
160
256
-16
-288
-416
48
0
-480
144
-112
-160
208
224
-64
-272
112
16
16
32
-144
-48
16
-48
-480
-272
-48
432
384
-464
-352
-176
128
-240
-16
-96
16
-208
96
-16
128
96
256
-192
-96
144
288
112
-48
352
368
160
-64
-144
-32
576
368
-256
256
368
-16
-320
-416
-528
144
0
-512
-64
160
-336
-176
192
32
-112
128
-32
-96
160
16
-352
-528
112
-240
-240
-160
176
-368
80
96
-352
-16
-128
-272
448
192
-144
304
640
256
-176
48
112
0
-16
-400
-336
-400
336
128
-160
-160
64
176
192
32
-32
400
-192
-208
-144
-192
48
-208
-224
-496
-352
-336
272
192
-224
16
96
-112
128
-304
-256
112
208
80
-64
-96
-32
208
224
80
256
-48
160
-32
176
224
208
496
144
-80
-16
-224
32
-128
128
-224
-560
0
208
48
96
80
272
256
96
-144
-272
-288
128
128
416
176
208
368
32
-32
112
-432
-224
-176
-48
288
-240
80
160
80
192
0
256
-80
-48
-304
-368
-256
128
112
-384
-224
-64
96
-32
-144
-592
-544
32
288
240
112
448
-80
64
176
208
288
0
112
-128
-128
-624
-304
64
-224
-224
-144
-32
-96
-160
-352
-112
160
-128
32
-32
304
32
-192
112
384
128
368
-208
-112
16
-128
336
240
-32
-112
16
368
608
32
64
-144
-128
-64
384
304
80
0
-112
96
784
432
32
48
624
400
160
-144
64
16
-208
-352
-288
-304
-128
-288
32
384
368
304
-160
-352
-352
-256
-512
-224
-32
-80
-240
-496
-240
144
0
-16
48
-240
-16
16
-192
-64
16
64
224
320
160
240
144
-64
272
64
384
736
80
32
-224
-64
-128
336
-144
-304
368
144
240
96
160
32
-80
-304
-304
-416
-224
-240
16
-144
-64
16
-80
0
208
-96
-192
128
160
208
304
-32
16
416
240
-528
-176
-400
304
336
304
272
32
80
224
-272
-176
-64
224
544
176
-64
-304
-320
-176
240
128
-288
-272
-464
192
-224
-32
-224
-144
-384
-32
-112
160
-48
128
128
0
-304
-112
320
224
144
48
48
-96
-64
272
32
192
-48
-592
160
160
-64
-48
-64
32
208
192
176
384
368
-224
0
16
-224
-64
496
-16
-256
144
288
-608
-608
-128
-16
-288
-384
-224
304
32
-160
208
720
208
-128
-96
144
576
320
256
704
32
-224
96
48
-272
-384
-352
-192
-656
-304
-224
-384
-48
-208
128
176
-544
-368
-464
112
288
320
416
224
-272
-144
208
-192
-80
-16
-80
176
304
-128
48
16
-16
480
-48
-528
-176
192
-144
-64
-288
-16
-16
176
320
-176
128
0
-80
-112
-256
-32
-176
-480
-672
0
-128
96
-400
-400
-16
272
400
-32
32
-128
-176
-320
-384
-176
208
144
240
656
-112
-624
-384
-112
-624
-208
192
240
-32
112
544
304
320
432
96
224
176
48
-48
-48
-512
-416
128
64
-32
-160
-320
-304
-272
-304
-128
-496
-16
624
176
16
-48
-96
128
0
-624
-160
-112
-288
-64
-96
-464
-96
96
-112
-288
288
-16
-64
160
-368
144
256
64
-224
224
48
-80
-112
-144
-256
-64
544
-224
-320
-512
-384
-304
-64
-112
304
288
-144
416
0
-336
0
-48
-272
240
240
192
-176
-256
-320
64
96
-128
-256
-416
-176
-64
96
240
272
64
-496
-448
-80
16
-16
48
-208
-16
-160
0
288
176
480
592
48
-256
96
320
368
144
-368
-224
448
-80
16
432
352
160
-240
-608
-32
-384
-144
96
-416
-384
-416
-160
-320
-176
128
160
160
368
-144
176
64
80
48
-192
128
-192
-432
-176
-96
-256
-528
-768
-304
-208
-336
-224
-208
-96
-256
208
352
208
-64
176
80
-288
-384
-32
464
-224
-592
-480
-240
-496
-512
-192
208
-128
-96
-496
-608
96
336
480
368
80
224
-112
144
400
288
-48
-192
80
192
32
224
256
432
192
-208
304
384
304
-256
-48
80
32
-128
-416
-128
208
592
272
368
512
-64
-32
-96
-64
-176
-144
352
288
-320
-176
288
-144
16
384
384
-416
-608
80
144
32
208
0
64
-96
352
-176
-224
-496
-224
160
-160
-400
224
352
-320
-320
80
192
16
480
32
-128
-144
-192
-160
-224
240
240
256
448
240
-144
16
144
304
80
80
-144
-144
-304
-176
336
48
-16
16
96
-192
-288
-96
-112
-160
-176
112
-512
-704
16
-112
32
128
-128
-192
0
416
480
160
-144
-224
-48
64
-208
-272
-48
-16
-160
-416
-160
144
208
-176
0
512
272
0
128
160
208
288
144
-272
-560
-400
-208
-352
-96
160
-64
-560
-128
-224
-128
-368
-80
-16
32
288
128
96
-848
208
176
576
544
160
-80
-224
336
704
368
-16
-560
-144
-128
-288
-400
-416
-320
224
80
512
64
192
-160
-288
-112
-112
128
-96
-240
-64
400
624
-16
-64
-64
-160
16
-224
-384
-304
-208
-496
-80
80
0
16
304
560
304
-288
224
256
-448
48
192
-128
32
-176
176
32
192
64
-368
-192
176
272
-64
-224
-96
32
-192
-448
-128
352
240
-272
-576
128
352
-704
-416
-544
-336
-256
-320
-64
64
-80
256
400
-352
-336
-240
-128
-128
-288
-96
-160
-208
-144
496
368
464
112
-336
-320
-480
-80
-16
224
160
-32
64
-320
80
-48
-240
-208
-176
448
96
256
176
224
352
160
256
32
448
96
112
288
32
-192
-64
256
288
208
352
-192
16
32
32
-16
-16
-112
128
224
-208
-368
-384
-64
192
-320
-336
160
32
-448
-592
-400
128
-160
-432
-128
128
288
-272
-80
0
-160
-32
-112
48
-48
16
-32
-64
-496
-192
-16
-160
-352
64
432
816
336
-112
464
400
96
-224
-16
-208
-32
64
112
32
-160
208
320
224
352
-16
-96
-128
-256
-592
-336
-16
304
-432
48
-192
-32
304
208
-272
0
-48
-304
-32
-96
-272
32
144
64
-96
176
480
-304
64
-112
-176
16
-16
112
-128
368
608
320
64
224
192
-320
-288
240
304
112
368
528
224
80
48
496
528
160
192
432
96
272
544
448
144
-32
64
112
-32
-576
-320
-64
192
-336
-496
-464
-336
-16
-48
160
144
-96
64
144
128
304
128
240
672
176
144
64
-16
176
224
224
-48
208
208
-16
-368
-176
-336
-496
-352
64
288
672
320
-32
-112
16
176
352
16
-16
-416
-464
0
208
0
96
288
432
336
496
-96
-368
-592
-352
-48
-192
160
128
272
-320
-16
-192
-704
-912
-208
320
-112
112
16
-416
-560
-48
448
288
-112
80
-208
-208
256
704
368
-64
-144
-240
144
32
208
-48
-240
-192
96
336
224
176
-320
-176
-48
400
512
-144
-48
-368
-128
112
256
304
96
-368
-80
-272
640
192
448
512
-16
80
48
-128
-448
-336
48
16
336
96
48
-288
-64
-240
-112
-384
-688
-48
240
-176
176
48
512
-64
48
32
-64
96
-256
16
80
224
512
0
-352
-48
144
48
-48
-400
32
592
48
-176
-144
-304
-176
-16
-240
384
-16
-320
-240
176
80
-240
-16
400
-224
-352
-352
-656
-128
-144
560
496
64
96
480
304
-80
-240
-208
-96
208
112
-240
-128
-128
-80
256
80
-96
48
160
656
-48
208
384
448
336
-448
-16
272
304
336
624
64
-240
-64
-320
96
320
272
-288
-272
-208
-256
-496
-32
96
-80
-176
112
272
80
-16
-64
-352
-432
-96
-64
-416
-16
-48
-208
-432
96
128
-16
-288
0
-48
-336
-496
-416
16
-240
0
272
272
-16
-32
64
80
-192
-64
-128
-304
-48
112
560
416
320
240
-32
64
32
-272
480
176
-192
-368
-48
-48
32
320
-192
-400
-16
192
320
-48
192
80
-256
-384
-288
64
-192
464
208
-160
-560
-224
16
-96
-480
128
-64
416
-80
-240
-352
-576
-288
16
240
112
-64
96
48
128
16
-32
-176
-64
368
192
16
64
48
-272
-560
-384
-304
96
-272
-224
144
-400
-48
-112
-192
208
912
592
-48
-384
-544
16
-240
-224
-160
400
384
96
272
400
64
-304
-144
0
32
16
224
416
192
144
32
-128
16
16
176
-80
-192
-576
-336
32
192
256
80
96
96
0
64
-272
0
-48
-144
-16
-496
-112
-224
-512
-48
-480
-224
-64
0
0
288
592
-128
-240
-144
-352
0
-128
64
432
96
-448
-48
688
352
16
176
64
-96
-304
-128
64
192
272
-96
-96
-208
224
-320
-480
-128
352
0
-48
-128
-192
-96
-48
128
-336
-208
240
192
-144
-208
-160
-320
-96
304
144
208
16
-80
48
-128
-288
-224
16
-96
192
-160
112
80
16
-160
-96
-112
-16
96
-304
624
192
-32
-128
-304
-192
-480
-528
0
-320
0
-112
-64
-224
-448
0
144
96
-32
32
224
384
640
304
80
16
64
-16
-320
320
512
-32
-160
80
-48
-640
-352
128
-272
96
-80
-304
-288
-144
-144
-160
48
432
576
160
-592
-512
-240
432
80
-208
-128
176
-96
-160
176
48
-192
96
288
-128
-208
160
-144
96
64
-96
-144
128
320
384
-16
128
-544
-624
-592
-384
-272
-96
-176
48
-176
-144
80
-16
-176
368
144
144
224
-128
64
480
352
-32
272
352
-336
-368
144
544
400
352
352
112
320
-304
-192
48
416
-64
-48
80
-160
48
-320
-80
400
160
16
176
512
128
96
-432
-192
-320
-128
-224
-32
144
-688
-800
-64
0
-336
96
432
48
48
240
448
688
416
304
208
112
-240
-352
128
-16
256
-96
336
208
-384
-160
208
80
-192
336
-112
-544
-320
-400
-176
32
144
-272
-48
80
-208
-320
-176
-128
-320
-32
-176
64
368
352
-448
-336
-80
336
16
-224
96
-160
112
640
560
336
-192
-48
240
-224
-160
288
304
-304
-464
-112
-160
-144
-368
-16
-368
160
512
-272
-192
48
192
560
240
304
-176
224
160
112
-144
-176
-128
-48
256
400
304
400
-80
16
-208
256
-304
-448
-48
64
240
128
-48
-320
464
288
-32
0
320
192
176
320
-16
16
64
-144
-144
-128
-48
-464
-32
-96
-304
400
112
304
160
368
336
-224
64
80
-272
-144
464
-272
48
672
0
-224
96
-80
144
112
-80
-304
-144
304
80
256
432
-224
-832
-704
-176
-272
-320
-432
256
432
176
-160
-16
0
64
336
304
96
384
-80
128
0
-112
16
-80
-64
-48
-144
-96
-192
-224
-288
-64
16
128
48
0
-32
96
-128
-352
176
-16
-112
192
-256
-192
160
-16
112
416
240
0
32
112
192
-32
-240
-240
-256
16
-240
-288
128
160
-144
64
-128
160
240
-112
48
-32
272
288
256
80
32
64
-288
-176
272
192
-304
0
-80
-32
-96
-256
-96
-272
-96
96
560
224
-128
-80
-160
-64
80
-32
-16
224
-32
-96
-352
-304
-112
-112
-48
0
544
416
-128
-336
32
32
-128
-144
-48
-304
-96
-160
-176
-192
224
240
208
144
176
-160
-80
48
48
-256
-640
-528
32
240
592
80
-192
-112
128
304
352
80
32
-128
-128
112
192
208
160
-80
112
-192
-336
16
336
-208
256
592
272
176
432
336
-128
-304
-288
48
-96
256
384
272
-304
48
-64
-32
144
96
-144
-192
464
480
128
-448
-64
368
-64
208
464
128
-192
-160
-64
144
96
16
-368
-240
-32
160
-80
160
0
192
-48
-16
-224
-576
-288
96
-48
-224
-48
320
144
-144
-192
-112
96
-176
-320
-112
640
624
240
160
112
224
64
160
-160
-416
-320
-128
0
-272
336
400
-272
-32
640
336
384
352
304
-160
512
64
0
-192
-384
128
192
352
224
16
-496
-64
-176
-256
-96
16
352
320
0
-272
-304
-288
0
144
-320
-192
272
448
48
-144
-480
-384
-192
208
48
192
-256
-80
192
208
144
608
48
16
-384
128
-96
-464
-528
176
640
32
-288
-688
32
176
160
112
80
304
-320
-192
208
-288
-48
464
432
-320
32
176
448
304
192
112
448
416
176
112
-432
-288
272
272
-48
-144
-368
-544
-512
-384
-64
-432
-416
-496
-224
496
320
192
224
160
352
240
-32
224
64
-112
-192
-176
-112
320
144
-32
-112
256
-48
-480
-368
-288
112
240
-32
-112
-272
-256
-288
-80
-256
32
112
-112
128
368
128
-16
-176
160
368
-48
-112
32
-448
-224
144
160
16
-368
-224
80
128
-464
-272
0
48
-272
80
512
240
32
224
-80
416
256
320
224
-464
-208
16
-16
-160
288
192
0
-416
288
-256
-64
160
-16
144
-208
-160
176
16
-336
-112
-112
64
224
128
32
-336
-432
64
-32
80
64
-48
-48
16
-384
-416
-224
-272
-144
208
80
-128
160
128
688
272
96
-160
-208
-16
224
272
-144
-304
240
352
208
256
-128
-416
-128
384
-272
-624
-144
176
48
-352
16
160
-320
-448
-464
-224
544
144
-272
-352
16
112
16
-48
-128
-320
224
-224
64
560
96
304
-224
32
96
48
-352
-400
-352
-160
144
544
208
96
176
-48
-64
16
0
80
448
336
-176
-272
-64
-176
-32
80
-368
-16
-400
-400
128
80
-192
0
-144
-368
-192
32
-288
-352
-128
0
-368
-16
144
304
-32
-160
96
-256
-192
-64
112
320
80
-496
-144
160
272
80
-32
176
288
-176
-144
16
-256
-320
-96
128
304
416
-96
176
176
128
368
336
64
240
160
-16
64
-128
-144
240
224
-16
-176
-64
128
432
400
-320
-80
128
-160
-48
-480
-320
64
-128
-368
-192
80
448
240
-352
-624
-112
112
-96
-368
-288
-224
-240
-96
16
384
0
160
368
400
-48
-400
-112
-384
256
336
-384
-688
-576
0
-320
-304
320
128
-464
-16
416
160
224
224
0
-16
-48
144
80
176
112
224
32
192
176
256
-160
-64
-112
-528
-192
64
-32
128
256
80
272
-208
-128
-80
208
96
336
112
-112
-384
-384
-272
80
80
48
-192
-224
-288
192
-48
0
192
-192
224
336
-176
112
256
128
32
-64
96
0
224
-16
-96
-160
336
464
256
-304
-336
-272
-112
224
192
-224
240
256
-112
-16
-304
192
-208
112
-144
-64
192
-16
240
-256
-48
-208
224
64
144
-320
-80
-96
-208
-272
-80
0
112
-272
320
192
80
144
-144
-16
160
176
208
-64
-192
176
-112
-512
-304
128
-112
144
336
208
-64
-368
48
-80
-464
384
352
272
-528
-256
80
-80
-48
-176
-144
-80
-272
-176
-16
-112
-544
-432
-272
128
48
-80
416
96
-176
-464
-480
-112
-128
-224
-16
416
416
64
48
-160
-16
320
672
-320
-96
-352
-112
80
-144
-144
256
-64
-256
-16
-32
624
192
-192
-288
-640
-192
112
-368
-448
0
-112
-336
176
-144
-48
240
240
-336
-16
224
-288
-176
16
64
32
-80
-176
-176
-512
-256
-192
-352
256
208
64
176
160
64
224
288
32
-80
-80
256
-160
-336
-544
-80
-112
-320
-304
-64
-32
-320
-320
-464
-400
-16
240
96
-64
0
-176
-192
-304
0
-224
48
624
256
-96
224
400
240
256
256
16
16
192
-112
0
-240
-16
0
224
-64
-320
0
208
288
-352
160
-208
-160
-208
48
352
48
368
-128
-160
256
432
112
352
32
-336
64
-256
-96
320
224
32
208
240
144
144
-16
320
-64
-224
0
96
528
224
-224
-128
-304
-416
32
-128
-128
128
64
-144
-128
224
-48
-288
400
288
-176
-368
-336
-128
192
384
-96
-80
-48
96
80
240
464
224
-80
304
64
448
672
320
-64
-128
-32
96
-160
-240
-144
0
256
304
400
-320
-368
-16
112
208
544
160
32
-256
64
-288
-336
-128
-112
176
224
320
16
96
48
128
-80
-48
48
0
48
544
256
32
0
-208
-48
192
64
-64
-160
-272
80
384
480
-128
-96
160
128
256
240
-16
400
272
-80
32
304
-64
176
-112
128
352
128
16
-128
-176
96
-352
-64
-176
16
128
-80
80
-16
176
-96
-288
144
-32
16
0
-112
-208
-128
256
160
32
16
-224
-96
-320
-112
48
32
-272
-80
320
288
0
208
352
-112
-304
-160
368
592
192
240
128
-32
48
16
144
240
304
-208
-160
-176
-176
-208
-304
-176
-288
-304
128
144
-256
-368
-240
-416
-176
-288
-224
272
208
48
-112
32
240
-48
112
-256
352
-128
-224
80
32
-192
-272
272
224
192
320
160
-32
-192
784
608
128
32
224
32
-368
-288
-304
-96
560
224
208
336
-272
-400
-80
-48
-288
-224
96
-304
-224
80
-256
96
-544
32
144
-160
64
592
32
304
48
-208
-208
192
416
272
-96
192
160
192
-96
-160
304
384
208
-336
272
48
16
368
320
-96
-656
-192
-528
-80
128
-304
80
-192
-320
-672
-608
144
-128
144
160
-160
-352
-160
-32
-256
-320
-336
32
-64
-144
-64
-256
-240
128
192
-64
-192
-208
-16
-96
-224
-496
-496
-64
368
368
-112
-208
-320
-368
0
-96
-272
-112
32
352
-256
224
-256
-672
-512
-272
-320
-160
-240
-96
-112
96
368
352
320
-96
576
208
320
-448
-368
-16
-80
144
176
-368
-96
224
368
224
-192
-48
-144
-48
-256
-304
112
512
496
-16
192
-192
-32
272
16
-80
176
144
512
-224
-448
16
240
16
288
208
64
-48
80
400
240
80
64
224
64
-416
-368
-64
-272
-64
112
-160
-112
80
96
96
320
112
64
48
-16
-288
-496
-352
64
672
512
16
-144
336
448
64
272
432
-304
48
-96
-16
256
224
464
256
320
-240
-64
-288
-736
-240
-32
128
-192
160
128
-128
320
128
-496
-384
-208
-304
-336
-304
-368
0
-16
80
16
-144
288
-32
320
-112
16
272
-16
-208
-528
-48
144
-32
-272
176
416
80
96
240
128
224
-432
-160
272
384
-384
-608
80
80
-96
-256
-704
-384
48
-336
-80
32
-368
-16
-176
-16
112
320
-144
384
96
-352
-208
224
-48
240
-304
-208
224
96
-432
-592
-32
160
-176
-448
-512
-400
-144
-272
-368
48
-112
-144
-496
-128
208
-48
-256
320
-16
48
176
-80
48
-208
-80
144
128
48
64
-208
-16
288
-192
-240
240
-416
-368
-16
192
96
0
32
-64
16
-80
-48
-16
-304
-128
-384
-272
112
-336
-528
-288
240
80
176
336
144
-16
-64
80
-128
384
432
80
-128
128
224
64
144
368
-16
144
240
-176
-432
-16
128
80
144
-32
-32
-480
-304
-96
-336
-624
-256
-16
0
-272
-304
128
256
272
16
-16
-192
128
240
-64
-224
-192
0
-448
-432
112
-464
-320
0
224
16
-336
-48
592
320
-192
-64
-176
-192
48
368
-16
-128
-336
-80
176
80
0
112
128
-64
-80
464
320
480
-64
-480
192
16
0
-64
-112
-208
112
64
-32
-144
208
256
-16
-64
-272
-96
-304
-112
-48
-16
-48
-176
-400
-560
64
144
480
-16
336
448
64
48
160
160
304
288
240
-32
240
-272
-288
48
-80
-768
-784
-304
16
656
336
-304
-32
400
-160
32
-240
-592
-416
-368
304
336
-208
-176
-96
-32
0
-48
16
96
144
-464
-64
128
-320
-288
320
224
272
288
512
480
304
-256
-176
-176
-272
32
176
-112
96
-48
192
560
272
-32
496
112
-112
176
336
176
-160
-240
-224
-224
-144
-80
-240
-192
208
-32
-208
240
160
224
528
48
-16
-176
-368
-272
144
192
-16
48
-368
64
272
272
352
144
-48
-64
-80
48
-192
176
-224
-528
-160
-96
176
16
-208
224
96
48
256
64
-128
-48
-240
-480
-304
-176
192
-80
-208
-304
-112
128
-352
-304
288
864
272
128
384
16
-176
-96
-240
-256
-192
-128
80
176
48
-112
-16
96
-48
288
368
16
128
416
-16
-144
416
480
32
-496
-656
-432
-336
224
-192
-160
336
112
336
176
112
-80
-288
416
48
288
128
-160
-288
-96
-112
-48
240
-80
-96
176
128
480
384
336
-112
-80
144
-176
-112
288
336
448
192
176
176
288
0
80
48
160
-80
-224
16
304
-384
-368
576
384
480
0
-352
0
-16
-112
-224
112
-176
-224
80
752
128
-112
-16
48
64
-32
64
528
0
208
32
384
320
-64
0
-16
-144
-80
16
16
-368
-496
-400
-384
-96
32
-400
-192
320
224
0
-96
160
-32
-400
48
304
224
384
80
112
272
0
-432
272
352
-160
-480
-192
-208
144
-80
-368
16
112
304
-16
112
144
0
272
-32
-544
-64
160
32
128
-32
-496
-128
-656
-432
-32
80
-32
-32
-64
-192
64
-240
-64
-256
-64
-176
288
144
-48
0
-96
64
416
688
-288
-416
112
-64
-416
-112
-176
-240
-112
96
528
96
240
224
464
192
160
-192
-400
-320
-368
-448
64
64
-16
-64
-48
-32
-16
128
-32
-96
0
-176
32
-96
-64
-208
-384
224
-192
-288
96
352
400
688
192
-256
-272
16
144
128
0
-144
-336
-352
128
544
112
288
304
-320
0
272
-32
176
64
208
256
208
-16
0
-160
48
176
-64
-608
-192
576
752
336
48
448
16
-256
224
560
288
16
-48
352
368
-352
-112
-48
48
256
160
224
304
464
144
48
-288
-256
-208
96
-144
48
96
-208
112
464
112
208
64
48
192
368
-112
-128
176
352
-192
-336
144
304
704
368
16
64
-32
-80
256
80
-224
-448
-352
-352
-352
-96
-48
208
560
112
-96
-224
-352
-320
368
-48
16
-256
-272
144
320
-64
-256
-224
-80
368
-256
-800
-160
144
176
0
-176
-272
-160
-16
272
416
-320
-336
0
-160
-144
-32
-192
240
64
-48
-160
-16
416
240
-224
-48
-96
-416
0
176
48
-128
-400
-64
240
256
336
96
48
-96
-496
-464
-64
144
-272
-528
400
64
-48
112
368
176
160
-16
-224
400
224
144
448
368
576
384
208
32
-16
-160
-160
288
48
-384
-448
-352
-480
512
656
480
-256
-496
-208
288
32
-112
176
192
352
80
-112
128
224
64
144
80
64
448
288
-208
-208
-176
48
192
192
-224
-176
-304
-272
-368
-96
-48
-80
0
-32
-64
192
16
-64
64
256
16
32
304
304
208
16
192
-112
-144
-368
80
-16
32
64
528
-96
-160
176
-96
-144
-144
-112
192
64
-128
-112
-464
-240
-160
-384
112
288
336
272
-160
-592
-96
80
-32
192
432
608
144
48
-48
0
176
-416
-208
-160
112
336
448
240
192
-208
-240
368
192
-480
0
288
-320
-320
96
-432
-320
-320
-208
144
112
32
-160
352
80
32
320
-16
-32
320
448
0
-192
-848
-256
-16
-32
160
96
-304
80
-128
272
528
368
176
176
-80
-16
80
-48
32
304
288
384
304
-880
-272
0
144
64
16
-256
80
-64
-336
-272
-16
48
-256
-32
224
48
-224
-160
0
288
464
-80
-64
-128
-128
-288
96
48
-400
96
-96
-368
-384
-528
-928
-144
0
144
-96
-112
208
-304
-416
-224
-256
-320
-240
-176
-112
176
160
-128
-144
-80
-256
-688
-288
96
-32
32
96
80
64
-64
-144
32
-32
80
160
-272
-272
-16
-368
112
-336
-192
-16
192
176
560
480
320
272
272
192
-144
-208
272
416
80
-80
-128
-32
-64
176
80
-64
-384
-224
208
-144
-224
-608
-256
208
-16
-256
-224
-192
272
384
320
256
80
112
-176
-16
-96
-208
288
48
304
-176
-384
144
448
-240
-688
-800
-288
-176
-112
432
176
-224
-16
-96
-208
192
0
-240
0
16
-304
-96
-16
304
352
112
-416
-416
-368
80
-176
-128
160
256
272
496
0
-304
16
192
32
-240
-176
208
16
-176
-352
0
416
368
-128
-96
-96
208
240
336
544
128
16
496
400
-192
192
64
112
256
496
432
400
96
-496
0
272
256
64
-224
-16
-64
176
-144
-160
16
-240
-80
128
-128
96
-416
-448
-208
-496
-208
-352
16
-368
-560
-16
-160
240
176
-224
-64
-32
-176
304
144
-16
64
176
-112
272
-32
-304
-352
192
-320
-608
-272
-528
-160
64
208
272
272
-48
288
-224
-288
-432
-320
-416
0
208
-192
-80
176
48
-32
64
-416
144
160
64
112
-176
-96
64
-16
256
-224
368
496
272
-80
144
112
0
-128
128
480
0
-416
-368
-304
16
-400
-128
-176
-768
-288
-32
-160
-432
0
80
32
-176
-368
-496
-320
-192
160
-128
-384
-224
-16
-64
-272
-240
-256
208
-128
-512
-512
-288
160
544
112
0
480
416
240
16
176
384
448
288
512
-112
-64
-368
-464
-128
32
144
-192
160
304
304
-64
160
192
32
64
304
400
240
128
160
0
-416
128
592
624
336
-320
-480
96
112
-80
-16
176
368
-32
-384
-608
-96
96
-208
240
-64
-400
-16
-80
144
-64
-384
-96
-288
-800
-336
48
-32
-224
16
48
-368
-432
-64
32
192
64
112
128
96
112
432
64
-48
480
224
-128
-16
80
-160
-224
16
448
-80
-400
-240
64
16
368
-208
-288
0
64
64
-16
96
64
-272
96
192
-144
96
608
-16
-208
-256
-192
848
480
0
-304
0
0
224
288
224
112
-304
-304
-160
304
544
-80
-416
-336
48
-48
-176
160
384
384
0
-128
-256
-208
80
-240
272
288
240
-192
-368
-304
112
208
-480
-432
-432
0
-176
-320
-352
96
-416
-288
-192
96
128
-32
64
64
0
208
304
-32
16
16
192
160
208
-80
-128
224
416
160
-320
-384
-288
-704
-160
160
0
-32
-400
-384
-320
-336
-112
80
320
240
-80
-112
-48
288
384
288
-160
32
288
80
-448
-1040
-336
128
16
-272
64
-400
-608
-48
-368
-64
-304
0
-224
-144
64
-96
-336
-240
-544
-400
-288
-48
256
400
48
96
-304
-560
-160
-48
-176
-64
96
384
64
-528
-496
-256
-32
144
384
224
240
32
-144
-144
16
-144
-240
80
208
208
288
32
400
192
192
112
-128
-48
-448
-480
-96
256
240
32
240
352
48
208
336
304
576
176
112
80
352
80
-544
-64
-224
-560
-112
160
352
352
-80
144
272
-160
-160
-48
-128
224
64
-272
-544
-240
-192
-16
16
224
-208
-160
-496
80
256
384
-160
-224
128
560
336
-176
-64
-80
-160
-160
-96
208
336
128
16
416
64
224
-224
-128
96
-208
-432
-464
-240
-432
-352
128
80
416
96
240
384
-32
400
288
-32
-400
-256
-16
-368
16
-352
-16
-80
-352
-416
-80
-176
16
336
208
16
-96
80
-48
-80
48
352
368
496
528
672
16
48
-176
-16
0
-144
-224
-384
0
352
-144
-544
-448
-176
-304
-224
176
96
-448
-112
208
-96
192
128
112
-48
-16
0
-80
256
-192
-224
48
-448
-416
-160
-64
432
400
16
-112
400
352
-96
48
80
240
32
320
224
864
448
-176
-656
-544
-192
-16
96
-192
-592
-608
-208
-192
-288
-320
-64
240
-80
-96
80
96
128
160
288
64
160
400
224
-224
16
32
48
80
-128
192
304
-192
-240
272
240
-224
-416
-48
528
160
-448
-176
-192
-416
-320
96
-80
480
256
336
-64
-528
-112
-112
0
208
160
224
272
176
-160
304
144
-112
-464
32
160
176
384
160
96
-480
-528
-368
-80
-16
128
-64
-16
112
368
112
-160
-256
16
-336
-560
-416
-288
-144
-288
-320
336
80
544
400
16
-64
-288
-16
48
-384
-208
-64
320
144
16
-336
-272
-192
-80
304
-256
-752
0
112
-32
16
-208
-80
80
-144
-192
-272
-96
432
512
112
176
-352
-608
-96
224
-192
-144
-112
16
-96
80
48
96
-224
-592
-80
160
16
-80
144
-112
-400
-512
-368
0
-48
-448
-288
-176
-272
-64
-80
64
-96
-176
-368
16
672
16
-96
208
-16
-128
-32
0
-176
80
80
-208
16
176
176
176
-144
-272
352
16
-176
16
-208
464
208
-288
-336
96
16
160
-64
64
416
256
-80
272
400
352
208
64
-176
-256
368
848
880
-48
368
208
240
-32
-128
-112
-112
-592
32
16
-240
96
112
-192
-112
176
320
-384
80
160
-48
-64
-16
64
-272
0
-176
64
32
-496
-304
0
160
80
-32
-352
-576
-112
-64
-256
-368
-80
176
32
-80
-336
-112
96
64
-48
-176
-224
-576
-480
-368
-768
-544
-96
-80
144
-192
-160
-448
-448
-96
-208
-528
144
208
-272
352
32
-128
96
-160
16
144
-432
-496
-320
-208
16
-208
32
-384
144
-96
-96
96
-48
-16
192
-224
64
16
304
80
-272
-368
576
336
64
256
0
-48
384
144
-384
304
288
128
112
672
288
-288
-560
-704
48
432
-128
320
368
-192
-384
144
112
624
304
-416
-240
-128
-64
256
64
64
-80
-144
-80
-16
32
16
480
176
112
160
0
-384
-256
320
352
256
-464
-432
-304
112
208
288
352
48
80
32
-48
-176
-48
464
-16
-384
-112
192
400
416
0
0
-256
-176
432
400
256
224
224
-16
-224
-288
96
-224
32
240
224
240
48
-112
-368
-64
384
512
-80
-528
-496
-16
-80
144
192
400
496
256
192
-112
-416
-496
-144
240
624
208
-128
-368
192
80
-144
-96
-64
-48
-240
64
112
-208
-112
208
160
16
0
48
-48
256
48
-128
-32
352
720
512
208
32
48
192
64
-176
160
624
272
224
-144
-224
-320
-416
-96
-512
-256
400
144
240
192
-64
96
224
-16
-144
48
-240
-288
-192
-240
-32
320
32
-80
272
224
-64
-64
512
304
-48
-384
-176
-352
-192
-560
-320
304
16
144
352
64
-48
-80
176
-48
336
176
-112
224
352
144
128
-16
0
304
480
320
320
240
-112
432
224
-48
48
-32
-336
-208
272
304
16
16
-288
-448
-384
-128
-176
160
144
512
208
-240
-16
400
272
192
224
176
32
-352
-144
-160
-32
-288
-288
-112
0
-80
-32
-112
32
144
256
-144
-272
0
112
32
-32
464
304
448
560
400
416
-160
-464
-576
-112
-160
-192
32
80
-112
-208
-560
-48
-464
-320
-176
16
0
400
16
-64
-240
496
384
320
256
64
-224
-272
-640
-368
-400
-624
-80
128
240
-144
80
48
112
272
272
112
-32
-160
-288
-192
240
144
64
-112
144
0
128
304
336
160
64
80
304
496
240
-176
-208
-448
-240
-176
-32
-304
-480
-96
160
-320
-304
-464
-304
-112
-336
-16
-32
400
-16
-96
144
80
144
272
432
96
416
176
-16
-224
-128
-176
-224
-240
160
-480
-224
-112
240
16
80
176
128
-240
-352
-112
-192
-160
96
112
384
176
32
-48
-80
-32
-128
144
144
176
224
208
-96
-16
208
368
208
528
128
-128
112
-64
-416
48
416
144
-320
-528
-80
48
128
-80
112
0
-176
-416
32
352
48
-384
-64
640
480
-160
144
-224
-304
352
176
-128
128
32
-80
80
48
384
400
-16
-608
-240
16
-144
-64
368
64
-48
128
336
112
112
-384
-128
320
16
160
-144
-400
-208
-320
-96
-144
-224
-144
-208
640
448
-16
-368
-352
-16
-224
-224
-208
-160
-352
-320
-336
-400
368
112
-336
-128
208
0
128
384
80
256
368
96
144
32
288
368
128
256
-160
-240
272
-32
-128
-64
0
256
-176
-160
144
-80
256
112
48
-160
-272
-288
-128
-192
400
272
80
-272
-144
336
336
-32
32
-32
112
176
336
304
-128
-384
-48
48
-64
-544
48
176
-112
256
-16
-176
144
176
160
32
-80
80
32
80
-128
-464
-528
80
-48
128
-144
-192
288
672
80
0
-192
-368
-352
-496
-240
368
384
256
112
192
-416
32
32
-528
432
16
-512
-192
-304
-96
240
256
272
144
288
-16
-48
64
-128
-304
-192
-160
208
16
176
464
48
32
464
96
-112
48
-176
-48
-224
80
448
112
112
592
272
384
272
320
64
32
256
176
176
16
208
-112
-224
224
-16
-464
-272
64
96
112
480
-112
-336
112
400
96
192
592
-176
-464
-80
80
432
96
208
176
48
-432
192
-32
-16
112
-48
-288
32
288
80
128
16
-240
-32
128
-176
-144
-384
-288
-288
-112
-48
-64
16
-528
-288
144
-192
-160
128
208
32
-272
-144
256
-240
304
128
528
560
112
752
112
-368
-480
-112
64
-544
-448
-176
-336
80
-128
-336
176
240
32
416
288
320
400
-208
-192
96
544
-96
-320
-112
-48
64
144
-16
-144
176
160
-32
-336
192
112
112
208
160
352
-112
-368
256
368
320
160
144
-224
272
528
208
64
160
-384
-80
-272
-80
-208
128
-256
96
464
336
-112
-432
320
64
112
240
-112
-416
-16
288
176
-80
-352
-352
-192
-128
-224
128
-576
-400
-16
128
-32
-288
-464
-192
96
-80
-224
208
144
-272
-16
-128
-240
624
48
-64
-64
-32
128
-144
208
-304
-624
-288
-208
-464
-624
-576
112
-16
-288
-336
-240
-192
128
-64
160
304
464
48
-480
-112
304
112
432
576
336
256
-160
-64
-128
304
-112
80
96
-80
208
-144
-352
-224
-240
-128
-64
-288
-368
-160
-368
-240
-192
-288
-288
-144
208
-96
-112
-192
32
-288
-256
-112
-496
-32
-64
-48
-304
-128
-224
-48
0
-128
-512
-368
64
-16
368
160
32
160
-80
-128
-80
-80
224
-112
-288
-368
-112
240
-224
-384
32
-192
-224
-160
144
-176
-128
272
560
240
-96
-16
-352
-224
-592
48
176
-304
-128
48
48
-304
-432
-480
-80
64
-304
64
272
-144
-272
-48
144
-96
-448
-96
320
112
-192
-224
16
-96
-16
128
128
240
-112
-256
-368
144
960
576
160
-64
96
-144
-32
192
-80
720
-128
-400
-320
112
64
272
304
-112
48
160
-656
-336
144
48
368
64
112
464
480
-32
80
-128
-384
-128
144
16
-32
-528
-80
-176
-208
-416
64
448
256
736
496
-256
-160
-112
-416
-144
144
-64
176
-256
-352
64
272
304
80
240
192
192
-160
-144
32
64
32
-160
-176
-64
-144
-128
-448
-832
-288
0
-16
176
-272
-144
-176
-272
304
144
-192
-256
-128
192
-112
80
640
160
-48
-16
176
224
224
128
224
128
32
-176
32
-16
-128
-256
-224
-512
-320
-192
80
176
64
240
240
16
576
416
16
0
-336
176
80
304
144
-272
208
144
-48
0
-336
-432
16
256
-16
-400
-160
160
-144
-192
32
-48
288
320
-64
-64
-128
16
128
-112
176
-80
-256
128
528
224
80
-208
144
-176
272
736
304
96
-112
64
-64
-448
-48
272
160
112
112
-80
-352
-912
-304
144
-32
-208
-272
-560
-560
-192
96
16
-48
16
-48
96
336
272
-128
32
192
80
-16
208
176
80
-288
-16
208
-80
-704
-704
-48
160
-208
16
224
224
128
112
224
352
432
0
0
-128
-384
-192
-112
-560
-352
320
0
-528
-384
48
48
-208
-144
-32
-176
-208
-96
160
-176
-496
-608
-32
368
480
-80
-176
-160
-96
-416
304
208
224
-16
-608
-16
-272
-288
288
656
512
64
32
0
-64
32
144
32
-112
352
176
-64
80
160
-384
-832
-80
352
64
416
288
464
144
32
0
-96
64
48
-272
-384
-432
-240
-48
48
64
96
176
432
224
112
-224
-128
-80
-16
48
-336
-80
288
368
-32
-160
-416
-288
-176
256
304
224
80
448
80
208
128
-16
112
176
240
176
-320
-256
-96
-544
-80
-96
-336
-48
208
-432
-192
-144
496
112
-112
-224
64
112
32
-256
-432
64
0
-112
192
16
48
-96
416
272
368
-176
32
752
512
64
-128
240
176
240
32
-80
64
240
512
240
-240
-448
-320
16
-96
208
-48
-464
-304
-640
-80
96
16
240
176
-128
48
256
48
-144
-32
-224
-256
-64
-208
224
-160
-48
144
-224
-256
-256
-368
-304
112
272
16
-288
-176
-208
-544
-528
-288
-48
32
64
288
-208
-128
192
0
288
-64
32
560
288
160
-496
-160
368
96
-384
-176
32
0
-128
16
-464
48
-80
128
-80
96
160
-160
144
160
-256
-464
176
384
512
576
160
-272
-480
-416
-64
176
128
-240
-464
48
128
-112
-272
-80
-304
-128
-16
-160
224
32
-192
-144
-272
-208
-736
-256
384
176
48
-32
-112
-304
-368
-320
-112
160
256
64
48
16
-240
-80
160
-96
-64
-16
-144
-256
-96
64
-144
176
-224
352
80
112
176
320
112
-240
-272
336
352
256
272
128
80
304
-16
-160
80
-112
208
336
528
240
96
64
240
144
176
192
-32
-528
-224
224
304
-144
-80
144
-176
128
-144
-480
208
-16
-464
-144
176
-560
0
-288
-320
320
-176
144
-96
-64
-48
-96
-176
96
224
-64
-144
-224
-96
144
-32
576
416
368
160
-144
0
320
192
256
384
112
-112
16
0
-144
352
-304
-384
160
-272
160
-160
-288
-224
-352
64
-160
-240
304
224
-96
48
96
128
-208
-32
0
16
-272
48
544
-32
-48
-80
-224
160
464
288
240
480
336
352
496
-144
-224
-240
160
-96
-160
240
16
272
48
-272
-240
-112
-128
-384
-336
-384
192
224
192
528
496
-112
-576
-16
-240
-368
-176
208
112
96
400
-144
-416
-336
-128
64
224
128
160
112
-96
-240
112
-160
-128
-96
0
-64
-96
128
272
320
176
-16
-320
-240
-128
32
112
-128
112
256
368
-96
-64
-352
-272
-288
-368
-400
80
80
-368
-256
-96
-96
-272
-144
-112
256
448
-352
-336
-16
-80
-16
384
-480
-720
-432
-112
-16
336
176
-272
64
-32
80
400
192
544
304
0
-112
-112
-336
-224
-48
336
-16
-128
-32
-464
-192
-240
-624
-480
176
400
-112
-448
-320
256
112
352
-192
-576
-336
-368
448
464
64
160
240
-48
80
112
-272
-496
-432
-144
608
464
64
-256
-224
96
0
224
208
64
-304
-464
-80
-96
-96
-336
240
-48
0
-192
-528
-336
16
-80
-256
-128
-16
-128
-16
-208
-224
-192
-352
-432
-256
240
64
-384
64
128
0
-192
-48
-16
-160
-624
-256
-304
-544
-192
-528
-576
160
16
-80
256
288
-48
-496
-144
448
320
240
192
224
448
112
-96
-16
128
-160
-432
608
-80
-80
-32
32
-320
96
256
240
-224
-432
16
-64
-80
64
112
-16
96
656
208
112
384
432
-96
144
656
576
-192
-608
-352
-336
224
672
0
-176
-128
-320
-96
464
224
-176
-32
-80
32
16
-112
64
-240
-272
-160
112
-112
-272
272
256
-32
272
64
64
192
-288
-176
16
48
96
192
272
-80
-64
-224
-272
-384
64
304
464
384
80
240
480
448
144
-160
-176
208
464
784
-16
-16
128
96
80
-64
-240
112
-48
16
-32
16
-128
-384
-112
64
-240
-352
-496
-352
-320
-384
176
256
64
32
368
48
256
0
-112
-288
160
-16
-304
-160
-144
48
144
-560
48
144
352
304
416
336
208
272
-160
16
-48
-80
-544
-512
-160
0
32
400
-48
-320
96
160
80
-64
-128
-80
128
400
-48
-272
-176
-16
-112
112
64
112
128
-32
-304
-80
-160
0
-288
-416
-336
288
-112
-160
-176
112
304
208
208
-80
176
160
96
-336
-48
-240
-192
-208
208
224
32
48
496
400
112
160
-192
-208
-160
272
192
-32
112
16
0
176
-192
-192
-96
-320
-192
-384
96
-176
-96
160
0
144
144
176
-288
-64
-240
-176
208
80
-288
-288
-192
224
-96
-224
-208
-400
-608
-416
688
-112
192
464
368
-112
-160
-368
-448
-80
-112
0
-16
-512
-400
48
160
-64
96
176
-48
-304
-128
-48
-240
-288
0
176
416
304
128
32
-48
16
112
528
-208
-656
-304
-96
-288
-112
224
384
-144
224
144
96
320
-64
32
-272
-192
-80
144
-112
-304
-96
208
208
-256
448
416
272
-32
-512
-128
80
-112
-352
-528
144
-144
-416
-512
-208
-96
544
400
304
112
32
-48
-256
-240
-32
16
192
-96
448
720
496
368
-32
16
-464
-32
48
-80
160
-16
-112
-400
-128
-480
64
-320
-640
-352
-224
-144
16
-16
-128
-240
-16
0
-624
-48
-416
-256
-256
-272
368
-48
-320
48
176
-176
-224
400
336
32
0
80
-208
112
512
240
-128
0
48
80
-80
-128
-224
-256
-176
-272
80
32
240
-96
-80
96
-112
352
48
-352
96
704
336
368
16
496
224
-368
128
-16
-400
-32
224
176
112
384
-80
-96
-272
-224
96
32
-176
16
-16
480
304
-240
-576
-352
-448
432
272
-272
-368
-272
192
304
-208
64
288
160
-80
-272
-304
-368
-64
496
640
288
-96
-112
48
320
656
80
-32
-128
-160
-112
-320
-640
0
48
48
192
-112
-688
-272
-160
-448
-128
-48
0
128
-272
96
-32
-208
-368
-80
-80
16
-112
-112
176
-224
-144
-224
-256
-32
-256
-608
-448
-96
320
576
336
-288
208
-48
16
-96
-176
0
80
304
608
432
272
-272
-64
128
-16
-48
176
208
-48
656
192
-32
128
-432
-304
-240
-80
16
-304
-384
-192
-256
-304
192
32
240
208
64
176
-160
-96
368
224
32
-96
208
-96
32
-160
-352
80
208
-352
-112
-384
-320
-128
576
464
624
624
400
448
96
-176
-112
-368
-16
256
-80
352
272
256
336
-272
-256
64
400
192
-192
0
352
96
32
512
496
16
-256
240
224
176
240
-80
-208
448
-368
-304
48
-496
-368
-48
-48
192
-224
-272
-240
-16
64
48
-288
-320
-192
272
304
128
96
-112
-192
-80
-240
32
-208
-240
-288
-544
288
-128
160
336
32
-304
-560
-432
-256
-16
288
112
-64
32
272
480
-48
-208
272
48
64
160
256
-240
-64
336
-288
-144
368
224
-112
240
-80
-144
-256
-240
32
-352
-336
176
-64
160
0
-32
128
112
464
-160
-320
-80
32
-32
-256
-384
-448
-256
16
-32
-128
320
-64
16
656
528
-320
-64
160
-272
-368
-112
176
192
-128
-128
-128
-240
-352
96
304
624
176
-128
-176
-112
400
80
-48
304
-144
-640
-160
160
64
-144
0
48
96
-64
-32
-304
-64
304
-192
-160
-384
-640
-400
16
512
272
48
-96
-128
-80
32
-128
-176
-32
-64
-144
0
-32
-16
-416
128
-192
384
96
-304
-208
80
-32
-80
-32
240
560
-176
-48
144
144
160
352
48
-80
-32
-80
112
-192
-48
160
48
384
240
-416
-320
-336
-496
16
-400
-560
-432
-96
224
128
320
272
528
160
-80
304
224
-288
112
16
-80
240
-432
-64
16
-16
32
256
16
224
432
224
-256
-544
-128
-432
-352
-352
96
208
16
-256
-112
304
448
-208
-272
-304
-192
208
176
-112
224
-48
-496
-160
64
-48
96
112
64
256
-32
-304
-224
-112
144
-32
-656
-64
560
272
-176
-256
-128
0
-304
48
-96
272
-32
304
-192
-256
496
656
320
336
256
-112
-288
128
384
48
-80
-192
-144
-64
112
-48
-288
-208
32
-32
-240
240
-288
-272
384
240
0
-128
224
32
-272
-144
32
-128
-320
-368
-32
160
240
288
656
208
-32
320
-112
0
-384
48
272
32
176
208
-464
-592
-416
-640
-48
0
-432
-128
384
64
-96
64
-96
-416
-144
384
192
-176
48
48
0
-160
-96
416
368
144
-160
-48
-144
-304
-96
-48
-96
-128
-32
80
-64
192
368
-128
448
288
256
128
-528
-400
-432
64
-96
-192
-560
-384
256
128
192
-96
-128
16
-288
-176
128
80
-160
-240
-224
-272
0
272
-112
-416
-336
-192
-16
432
496
-160
-352
352
800
320
240
304
-448
-608
-224
416
-16
32
-256
-352
-368
48
96
-64
-96
352
224
288
144
48
-64
96
320
400
96
-432
-304
-432
-272
-128
-48
144
320
-336
-96
-512
-624
-368
-224
288
-208
144
256
-112
-112
272
336
256
400
608
176
224
192
112
-320
-448
-352
-432
-240
304
96
-144
-16
-384
128
-48
48
-128
-144
80
288
64
384
128
64
224
-144
32
160
304
80
-432
-64
48
-96
-192
32
-256
-224
-64
272
288
-288
-224
-192
48
64
464
352
304
368
-208
-384
-496
112
-80
-240
-336
-544
-352
48
336
240
176
176
688
704
160
-80
-336
-400
-32
-96
-80
-112
-32
384
-144
-448
-432
-352
-464
16
16
-48
32
256
-208
-32
320
416
-128
-32
176
-64
-256
128
16
464
368
128
-176
-112
-16
128
-128
-208
-224
496
336
176
-208
-288
272
592
288
32
80
96
96
-416
-448
-688
-464
-256
32
-256
-32
128
288
-96
64
256
-416
-112
-368
128
96
-64
400
336
32
-256
224
32
-288
-128
352
160
-128
-496
-144
-48
-80
96
64
-16
464
288
-96
-64
-96
288
192
608
-96
96
-64
32
256
496
256
320
480
96
288
448
224
256
16
-128
-80
48
368
272
224
-128
16
192
-16
-48
-144
-352
-48
-160
-64
176
384
-48
144
256
32
-96
-64
-352
384
144
-80
-272
96
-720
-208
-32
176
-32
-160
-560
-416
32
-320
0
272
112
-256
-352
-352
144
320
-48
-288
448
336
400
704
-304
-496
-176
-544
-400
-32
-304
-32
-400
-208
240
16
240
336
-416
416
352
432
80
384
384
-128
64
32
0
-64
16
-496
-16
288
-192
288
16
-256
80
-224
-128
-272
-384
0
-16
224
-112
-160
-160
-240
-448
-576
-592
0
-128
16
-96
-112
-64
-192
-48
416
-112
-208
16
160
48
0
304
112
-144
-160
-272
-576
-304
-320
-272
-192
160
-320
-304
-32
-464
-320
-64
-432
-320
160
-32
400
336
416
320
-432
-336
-176
-96
352
240
-144
-64
-480
16
-16
-176
64
-208
-384
-688
-592
256
272
-64
-272
-128
-80
-32
-160
-112
-272
224
-208
-160
-128
16
-96
208
80
-224
-48
-96
144
128
-96
416
-80
-144
-160
-144
144
16
-32
96
272
192
-240
-128
-448
-240
-48
-48
-400
-400
96
272
-320
-16
240
48
96
224
-64
-528
-320
304
96
-128
240
64
-288
64
128
-128
96
-64
16
-48
-224
96
-80
128
432
192
160
-256
64
256
80
-64
-144
320
-128
304
208
0
-64
-112
-16
-96
368
304
-32
256
112
0
16
64
240
320
320
592
432
128
-64
-256
432
352
48
432
96
-208
-384
-464
-160
-64
112
272
304
-176
-16
-240
-128
160
112
96
384
224
144
368
320
128
-224
-80
160
0
-224
272
384
-48
224
128
176
-80
0
-224
32
-32
304
80
-112
128
160
48
48
288
192
112
-272
0
112
160
336
384
304
-80
128
624
288
-192
32
96
272
32
-272
416
400
576
416
544
736
-144
-112
528
64
-592
0
304
-16
-208
-64
-448
-144
352
-128
-288
-112
-64
-48
400
-320
-144
80
64
-384
16
240
-256
96
-96
-176
-224
-144
-48
48
-128
272
80
128
272
576
112
-96
112
400
336
128
384
368
208
48
-112
48
-64
-352
-48
-32
256
-144
112
272
512
352
-272
-752
-496
-224
-16
-48
-384
-80
-16
-480
-112
64
160
320
80
32
-256
80
64
-384
-592
-848
-368
-176
-416
-192
32
144
256
112
160
304
0
0
-224
-384
-208
32
144
192
112
544
432
128
240
624
128
-80
-48
336
448
656
224
16
-256
352
304
192
-256
224
272
160
-128
-256
-144
-16
432
656
48
-240
-160
-288
-432
-160
-576
-48
112
-320
-160
48
96
384
16
-288
-144
-160
-240
192
512
208
64
48
-208
224
272
64
528
528
192
128
384
368
16
-128
0
-752
-1104
-576
-80
-160
-352
-144
-240
-144
48
-80
32
336
448
-144
-368
144
-64
-224
400
-80
-496
-48
-32
192
48
-512
-336
240
336
336
-256
-576
-80
320
-80
256
304
16
96
160
128
-368
-32
-192
176
160
96
64
224
496
304
176
192
-112
-80
-176
336
224
-224
-48
-48
-48
176
-144
128
240
448
432
464
320
176
224
176
-464
-432
16
-96
48
112
288
320
-48
-176
112
160
224
-96
-224
-368
-192
32
-96
-128
128
16
320
432
48
-384
-224
0
-128
96
128
432
0
400
-496
-624
-496
-112
-128
-288
-32
160
192
320
-96
-128
-192
-336
-48
352
384
80
80
224
32
320
-320
-720
-80
-304
-240
80
48
-464
-176
32
432
0
-96
-688
-240
-448
-112
192
-96
-80
-128
16
-352
80
240
80
0
80
144
-48
-304
-352
-160
304
112
-64
-448
-176
16
336
-192
384
224
-272
0
320
128
-144
-496
-128
64
-16
16
-176
-384
-192
32
0
304
0
-240
-384
-112
-304
-400
-256
128
-48
-272
-304
32
400
-48
-512
-272
-48
144
192
64
-16
64
-112
-112
192
-496
-64
-368
-224
96
160
160
80
192
528
672
112
-160
-96
256
64
-192
-96
-272
80
-304
192
160
352
272
352
48
-96
-96
-160
32
96
-256
16
-32
16
-288
0
-48
-384
-16
-352
-224
-208
-288
-32
176
48
-16
-80
-64
-144
-192
144
96
128
416
352
192
-48
-336
272
320
-128
0
272
256
160
112
-16
0
-160
-224
-48
-192
-784
64
192
128
160
528
80
-320
-16
-192
-320
-112
528
240
-144
-144
128
144
-272
-304
176
288
-496
-224
256
496
560
384
176
-16
96
0
-16
-64
112
208
128
256
-48
64
-144
-720
-368
-16
-144
-192
48
-80
-112
-80
-112
-592
-80
-48
272
352
-80
-144
-240
-16
80
176
208
64
16
128
208
16
128
80
240
272
-176
464
656
576
304
416
-176
-112
160
-96
192
-64
-256
-80
-48
96
320
64
-592
-432
-192
-80
-80
-160
-112
32
32
-80
256
96
192
336
-80
512
32
-368
-176
192
624
544
128
-160
-304
48
176
48
16
-208
0
-352
160
64
-160
-384
-288
48
48
-32
-32
-256
256
-480
-240
0
112
128
-240
-240
-16
304
256
-400
-496
-160
-768
-704
-128
-272
-144
-144
-416
64
-256
-496
272
368
-352
16
336
336
-336
-448
-112
0
-32
-96
320
576
-352
-576
-240
-304
-320
-448
-336
-240
-128
-256
-256
144
-144
-368
96
-64
-16
-48
272
144
112
32
-64
-32
-16
128
-16
-64
-160
-64
-576
112
64
-64
-288
-80
80
-64
-240
-304
-96
352
-224
-96
-176
-400
-368
-256
368
-432
-272
-224
-128
288
144
0
-416
-656
-160
-160
-224
-144
-96
-400
-192
112
-288
80
-32
-48
208
336
320
48
-112
-112
272
272
-176
96
400
-16
128
192
-16
80
64
-192
-16
176
-16
80
16
304
368
128
96
-32
-16
272
112
272
272
48
336
464
0
-64
96
-304
-64
-48
16
-80
0
-592
-48
160
-48
-288
192
304
112
-64
-464
-640
-144
-176
0
480
304
304
320
0
144
-208
-464
16
-416
-640
-752
-176
624
256
48
-128
48
-48
-80
-192
80
-240
-544
-192
-208
-288
-272
368
80
-64
-48
-208
-32
400
-320
-272
-240
-432
32
144
-352
-96
416
144
256
272
-320
-320
256
16
-208
-496
672
624
32
-48
256
112
-320
-16
240
-128
112
-160
48
448
48
0
224
256
112
176
-384
-320
64
48
32
-160
-208
384
-304
-688
-368
-80
-144
-320
-16
96
16
-176
-256
-160
-128
-16
32
96
144
272
384
48
-64
-16
336
576
-48
-160
-272
-320
-80
-64
-112
288
-208
-160
80
48
112
304
16
-224
0
0
288
-48
16
-48
144
-224
-416
-96
-80
-384
-304
48
560
352
512
224
-128
-16
96
208
-96
-224
400
384
336
48
-128
352
208
64
-96
32
16
144
80
144
-32
0
192
208
-832
-224
288
-224
-272
32
64
-48
-368
304
64
0
176
336
-400
-192
-320
-816
-112
384
48
-368
-80
160
128
224
608
-80
320
192
-160
320
176
160
320
-208
80
-192
-16
48
288
160
32
-272
-272
48
32
-288
272
-16
-256
-96
176
-64
-144
-112
192
640
80
288
-32
-80
-96
80
80
-32
-240
-32
16
128
384
160
320
448
208
-32
320
160
480
592
-64
48
-352
96
16
176
-224
96
432
272
64
128
-16
368
-240
-176
16
-288
-464
-368
-224
-192
-144
416
-144
-256
0
336
640
352
112
-208
-176
-384
16
224
-288
-112
16
-672
-480
-432
-416
-240
-192
-272
-560
32
96
-320
112
480
16
-352
-624
-352
240
496
512
208
96
-448
-368
272
144
96
128
96
304
272
-144
-144
-64
16
464
48
-272
368
256
-464
-304
-32
-32
288
496
192
32
544
-32
-16
288
-64
-304
-304
224
608
32
-368
-352
160
-240
224
80
384
0
-128
96
-288
-304
160
-128
-256
-272
-112
448
-80
-32
384
272
96
-144
-96
96
-544
-16
496
192
-128
32
-64
-176
-224
64
400
-304
16
-192
-112
64
496
336
16
-32
-256
64
-224
-240
-96
64
-624
-352
-256
192
16
-400
256
384
-288
-336
-400
16
256
464
304
288
544
192
-80
224
288
-208
-544
-224
384
-304
-32
384
-64
-80
-112
-128
336
496
144
144
-32
-240
-288
-112
192
384
240
32
256
80
-32
144
-96
-352
-160
128
256
208
-464
192
128
-320
-416
-432
-128
16
16
-400
-176
-48
352
-144
-400
-336
-176
384
-256
-608
-64
400
-224
-272
0
-272
-224
-288
-224
304
-160
16
224
560
624
192
80
128
176
64
-144
-528
224
400
304
-112
512
560
-368
-288
-16
256
416
528
640
0
0
-368
-48
432
272
528
448
480
-112
-272
-176
128
208
160
-96
-16
560
160
128
496
416
352
-208
32
192
112
144
192
-240
160
64
-256
-16
-272
-336
-352
-528
-64
-64
-352
-272
-64
-48
352
256
288
608
64
-48
-144
112
16
0
80
-48
-176
-432
80
-32
-576
-304
-144
-560
-240
464
-352
-592
-112
208
32
32
480
400
64
-112
-336
256
-160
-176
-208
-80
304
320
-160
256
48
240
272
112
-16
-480
-240
-64
48
-176
-80
-304
-64
96
32
32
-48
96
80
208
-144
-400
-96
240
-80
-192
-48
-80
-416
-384
48
-320
-368
-96
640
672
112
112
-64
-112
16
48
-32
-480
-576
-416
-464
-16
256
-512
48
-96
80
-192
128
-96
-64
-128
-208
-288
-240
-128
-272
-224
-560
-688
-80
-256
64
48
-480
-112
64
-368
-368
-544
-272
-352
320
112
-160
-336
16
304
-192
16
-592
-736
-400
-528
-160
-368
-96
32
416
144
112
-80
-400
-320
-368
-208
0
208
496
192
64
192
-448
-288
-432
-352
112
240
320
192
-176
0
-288
-240
-192
-112
112
288
272
224
64
16
-384
-32
-256
-96
-192
320
-240
80
304
336
272
144
-224
-416
-432
16
208
-128
-544
-704
-96
64
-176
16
288
32
-224
-336
-128
-320
-368
-544
224
192
-96
-80
-256
-208
-304
-96
336
528
512
224
240
-192
-128
80
384
400
32
-32
320
80
-320
-112
416
192
32
448
176
-112
-320
-336
-96
272
-304
-288
-112
208
-48
512
208
-64
-32
240
192
48
-96
-96
-176
144
80
64
-128
-16
352
-48
-176
64
256
464
192
416
608
80
-96
16
32
64
-96
-48
-192
-176
-352
-240
-64
-240
-224
240
224
416
-32
144
32
-96
192
816
272
-96
208
16
-48
64
64
-32
-288
-240
-368
-16
64
-16
32
320
512
432
384
-128
-48
96
480
672
576
-160
-336
192
496
368
528
352
432
-144
-128
-192
272
-368
-384
-112
16
-368
-208
-288
-96
48
-432
-448
-384
32
176
176
-256
-368
432
-320
-528
-544
16
64
-64
64
208
-784
-320
32
80
32
-272
96
64
192
256
-16
-624
-240
160
80
-176
64
-48
-208
64
80
32
-192
-160
-288
320
752
224
-192
48
-64
160
368
64
-144
-64
128
16
448
176
320
480
112
-304
-80
96
192
240
48
-448
32
-32
0
0
-320
144
192
240
192
-48
-48
144
160
272
176
-128
-176
-32
-160
-160
336
464
-96
-112
-32
80
336
32
416
-16
-48
352
272
448
32
-64
-144
-16
160
-192
-544
-128
64
144
-304
96
-224
-192
-144
-288
288
176
64
32
0
160
288
-224
-336
-528
-336
-80
-144
-32
224
192
32
128
-352
-352
128
432
112
-112
-160
-336
48
208
-96
-320
128
-480
-128
160
176
-336
0
416
-80
-224
-496
80
512
304
80
112
-240
-224
-96
-192
-368
-528
-336
112
352
64
-112
16
272
-64
-32
176
-256
-848
-480
-400
0
-32
-32
144
160
256
32
-16
592
368
-336
144
48
-16
144
-112
-96
0
-64
-144
32
-80
-48
128
48
-64
464
416
160
128
80
320
112
-288
176
-16
-240
416
368
-272
-416
32
-160
-256
-512
96
80
-144
-32
-544
-352
288
-32
64
-80
-192
256
224
48
48
112
-32
512
240
368
240
-128
80
208
-48
-64
-128
336
416
560
352
80
-240
0
192
144
128
-352
160
192
240
-384
-32
208
176
-272
0
-48
192
112
432
704
320
160
240
-16
-496
0
304
-480
-160
304
336
496
240
192
-288
-144
-80
-272
-416
-336
-336
-112
48
336
-272
-128
-48
-208
-112
-256
-416
-96
480
272
-48
-160
64
80
176
-240
-128
128
-48
-160
464
192
-256
0
-112
-240
-192
-336
144
192
176
416
-96
96
-80
-192
-240
-208
240
480
352
368
-16
416
688
912
336
-128
48
-112
-256
112
16
-144
-240
512
144
48
208
-320
-336
-64
16
-112
-304
-112
-528
16
256
-144
240
208
-224
-624
-272
64
-144
256
176
-144
48
64
0
112
48
64
-16
-176
-448
-48
-480
-464
-48
208
-224
-32
-208
128
176
-144
-176
-320
-560
-784
-144
-48
-96
176
-112
144
272
16
-16
160
96
-384
-224
-432
240
96
-336
432
480
-80
96
-480
-368
-144
304
336
272
432
320
-112
112
-336
-16
384
-304
-320
16
-192
64
-176
32
128
176
-128
-384
-432
0
-112
128
128
-32
-288
-128
-144
112
400
128
192
448
-304
48
272
144
-48
-96
-112
-16
64
592
432
-112
-256
-176
112
240
-96
176
-256
48
384
160
208
48
64
48
-112
-400
-208
320
-48
-240
-112
-128
-16
-32
-160
-224
240
0
16
-208
-128
544
224
-240
112
-176
-368
0
464
336
272
128
-240
32
32
128
16
400
576
640
16
32
-880
-352
16
448
96
-192
-192
-672
-336
-240
112
48
-144
-336
240
304
176
-128
-272
-512
-240
-496
-160
144
112
-224
-48
80
-208
144
384
-112
64
176
-448
32
256
112
-32
-16
128
-112
-544
-432
-176
288
32
32
112
32
224
0
-112
-32
-96
-208
-336
-608
-160
-64
176
80
-192
144
-16
0
224
192
304
0
-336
-80
-48
-144
-336
144
624
160
-368
368
400
-176
256
288
-304
96
-128
112
480
416
-400
-144
-528
-112
-208
-304
0
-128
-384
-16
112
-96
-96
32
-192
-320
-224
224
576
144
-144
-624
-224
-48
-144
-208
304
240
-160
-176
-208
-96
-304
-112
-32
144
48
32
176
96
-192
80
-464
-368
176
-224
-272
-192
336
688
432
192
48
96
304
352
160
320
-336
-352
160
-304
-16
320
256
-16
-432
-240
-288
-192
-32
48
-96
-32
112
-464
-224
80
192
-96
-320
-144
208
288
528
416
208
-336
160
-128
64
192
-16
-64
496
496
128
112
272
-112
-64
320
160
-64
-16
-336
368
-96
48
240
288
-16
192
-240
-352
-16
-16
80
0
-240
-288
-496
320
336
-16
80
-48
112
0
-352
-96
-64
16
-336
-208
96
320
32
64
432
176
112
64
256
-176
-672
-336
-48
32
48
96
-336
-320
-288
96
-16
16
-320
-528
-256
16
-96
128
-64
-96
176
-80
-224
-352
-112
176
-176
-272
128
-32
-256
-336
-480
176
96
64
-320
0
-64
64
432
-48
-80
-16
-336
48
-80
-16
-176
80
-560
-304
160
400
96
16
80
-432
-592
304
352
336
-192
48
192
160
64
-160
-528
-256
48
160
-176
144
128
-320
-144
352
112
-320
-416
-64
208
-128
-144
112
384
-112
144
-48
-144
-16
-144
-112
-16
-336
-112
0
-16
-240
272
128
400
608
208
32
-240
304
512
-48
112
-224
240
176
-64
-448
-224
144
-112
-64
-496
-448
-48
-208
-144
-144
-80
-336
224
48
16
-32
-160
-128
-64
-160
-128
96
-96
-64
336
0
-32
-176
-144
176
432
160
240
112
-272
176
224
-48
-240
-272
-16
64
-256
64
304
96
144
176
128
16
-192
-256
224
32
32
176
-48
-496
32
-160
-48
304
-80
-144
32
128
-368
-240
-80
-176
32
-144
160
80
80
128
192
-368
16
800
432
112
16
-272
-80
-224
-96
256
-144
-448
192
-224
-480
-224
-208
96
0
64
-64
-96
512
240
304
16
-64
-16
128
176
128
-336
-544
-48
160
256
-224
-64
240
192
240
160
80
112
96
16
112
-64
80
176
-256
240
240
64
96
0
-112
288
352
-176
16
-368
-112
-224
0
48
16
-128
32
-560
-656
-608
-160
-80
-144
-224
-336
-688
-432
-448
-112
384
304
-224
-352
-304
-64
96
-432
-352
160
112
128
416
-48
-176
-80
-208
-32
-16
-192
240
256
48
-192
-112
-256
128
192
0
-512
-384
-128
400
80
0
400
704
80
96
-160
-112
128
128
-288
32
-192
-160
32
-384
-272
-272
176
400
0
32
272
176
464
464
208
64
144
-16
144
-304
-272
48
80
32
-176
-448
-496
-288
0
32
-80
0
-160
352
32
-128
-176
32
416
704
544
-192
272
0
-192
-80
-272
-144
-336
-224
96
-160
-16
-176
160
288
48
-16
-304
-32
-144
-288
-256
272
336
304
-224
272
240
160
-368
-272
320
160
-368
272
-144
-176
224
256
240
-16
48
400
432
128
-288
-288
-256
-864
-304
112
-80
48
480
240
352
160
-16
32
160
-400
-352
-160
256
272
784
256
16
-320
-128
-144
560
160
-288
-144
-592
-688
-448
-480
-176
-16
224
352
64
-48
-80
240
-224
-240
480
320
64
208
240
128
-96
208
240
160
240
-80
-224
80
-288
-608
96
400
-272
48
256
128
-64
-240
-192
-48
208
320
256
-32
304
368
240
-144
64
512
16
272
272
80
-80
-256
-576
-272
128
400
-192
-512
368
720
288
560
144
32
-208
-176
480
32
224
320
-96
-64
96
-144
-384
-16
-48
96
64
-32
-48
-224
-208
-400
-144
-80
-336
-464
64
112
128
-160
-256
-64
64
112
-128
-176
-192
128
256
96
-160
-240
-32
-288
-144
400
352
304
16
160
0
-160
-128
224
-368
-272
48
144
-112
-144
-336
-256
0
48
-224
64
336
304
80
240
384
0
288
384
-256
-144
-80
240
-320
-448
0
48
208
208
272
-64
0
-304
-64
272
288
-256
80
128
240
-80
-32
-256
128
0
-192
-240
336
-304
144
-592
-272
96
-256
-192
-240
-128
-48
-128
272
240
176
-336
-256
176
304
368
160
32
-176
-192
-64
-48
272
-32
32
144
368
96
-160
-416
96
-272
-304
-416
-176
-64
-368
-208
80
-128
-112
64
224
-272
-160
-160
16
-176
192
-96
-176
-192
-32
-160
-256
32
160
-416
-368
-128
96
-160
-656
-112
-48
0
208
-176
-240
-128
-128
-272
-96
48
64
-48
-336
288
240
-240
-512
0
288
-192
64
16
-272
-240
112
-16
-208
304
-432
-464
-368
-400
-112
-224
-288
64
96
304
-96
16
16
224
-160
-464
48
-16
0
-112
64
64
-608
-480
-608
-144
-304
-80
-16
576
176
-80
-160
-80
-416
240
160
96
-96
-48
-112
-96
176
208
80
-640
-672
16
176
0
-176
-128
-64
-304
-208
-320
-720
-384
-320
-464
-240
128
-80
448
352
192
192
272
96
464
416
416
64
48
-272
160
176
-384
-512
-304
-464
-96
480
352
16
48
560
464
-32
-64
48
16
-32
-240
-16
0
96
64
64
-32
-192
176
-256
-208
-192
-48
112
-192
-224
-144
0
16
-240
-16
-48
32
-64
-144
-32
288
-128
-48
-176
-144
-400
-400
-368
-240
-368
96
160
-16
-208
80
208
-160
128
48
-128
16
128
-336
-144
336
-96
-144
-96
128
-224
-64
-320
-448
-48
272
496
-112
144
-16
-16
176
-272
-368
-256
80
480
112
336
256
176
256
144
48
144
16
176
256
416
288
448
48
112
144
160
160
320
400
224
320
176
-352
368
480
-304
-512
-144
-288
-64
256
560
128
-32
-240
96
416
128
256
272
-160
-240
-128
144
-144
32
32
272
48
-144
-64
32
-48
-64
-240
-176
192
352
256
-112
192
80
-256
592
64
-80
-112
-416
160
240
176
-16
128
16
192
384
528
-64
-352
-512
-160
-160
-240
128
-32
-176
64
128
-160
-48
80
-448
-32
-96
-128
32
-208
-96
160
-96
-128
-48
-112
-208
-112
128
288
320
-32
-320
-400
-448
112
624
80
-480
-464
-496
-256
-160
-112
-160
288
-96
224
368
192
-96
-80
-192
-144
-16
112
368
560
192
-224
-224
272
544
256
272
80
-512
80
80
160
272
224
-32
112
176
-176
304
256
192
80
80
176
144
464
400
640
64
160
256
336
496
336
144
96
480
256
272
320
16
-32
176
560
512
-224
32
-16
448
288
-96
464
0
-208
-160
-16
176
16
-448
32
240
32
192
-208
-80
80
-32
-64
208
144
-80
-208
-256
-32
-192
112
80
-176
-256
176
480
320
16
-16
-48
-176
272
176
208
32
208
-544
-160
48
48
160
32
-176
160
-448
-176
176
480
-32
-528
-80
320
-16
-448
144
-48
-336
416
400
496
288
0
-112
-64
-320
16
-224
-192
816
352
-320
-288
-176
-192
-512
-384
-416
-512
-208
32
400
528
144
-128
256
592
272
-144
-112
-128
-112
-160
16
-352
-512
-32
32
-304
-192
0
-320
-224
16
-112
-48
272
672
240
144
144
-128
-112
80
128
-96
-528
144
640
-112
-176
-288
32
-16
-240
0
80
-160
-192
-80
272
64
192
288
-112
-256
128
160
-96
-112
-80
128
80
176
-240
-128
-64
-304
-448
-224
256
-176
-384
48
176
144
80
-32
96
112
0
48
-64
-176
432
256
-176
-64
128
64
64
-48
-160
-112
272
96
-128
-176
400
320
-384
-576
-80
-80
-112
96
-464
-272
-384
-272
-64
-176
48
16
128
80
224
224
-64
-160
-64
240
128
-240
-80
-128
-16
-80
128
48
-304
-128
-224
-32
336
-16
-160
0
-304
64
-16
144
800
368
96
-80
-272
-96
-144
-32
-16
144
128
-320
-192
112
32
-96
-80
32
-112
-304
-416
-272
16
-336
-64
304
-192
-128
0
32
-288
-512
-544
-272
-320
-176
-32
-112
-272
-32
112
-96
-192
352
416
0
-96
-448
-176
-256
-224
-48
32
-192
208
-128
-208
-160
-352
-192
-64
48
-304
96
512
224
176
160
-16
-208
-144
-304
-112
240
-128
-208
304
256
16
-128
48
560
48
208
496
272
224
-208
-176
-96
-160
224
480
-32
144
512
256
16
768
112
-400
128
192
560
160
288
272
160
160
-288
48
-80
-192
256
-80
-160
208
-384
-256
96
-528
-160
80
-672
-224
112
-16
-80
96
16
224
0
-320
96
-192
-96
-320
-64
-96
16
192
800
160
-80
-480
-80
496
496
256
96
-128
128
448
48
-144
-176
-192
16
-48
-144
-288
-176
96
-160
64
-128
272
32
-560
64
432
-48
176
-48
-448
-688
-448
-224
-288
-240
160
208
32
-80
-480
-80
112
-240
-816
-368
-336
-288
-336
-448
-592
272
48
272
288
304
-368
-384
112
512
352
-48
512
48
-224
16
352
432
16
-176
-192
192
304
544
528
-80
64
240
48
-256
-368
112
-192
-704
-544
-496
-112
16
240
400
32
304
-256
-368
16
32
-288
-16
-48
-512
-448
96
-160
-160
-96
80
0
-32
-352
-336
352
448
368
304
240
240
0
-352
-96
-64
224
208
128
304
304
-64
-144
144
96
-160
-160
208
128
-144
-96
-144
192
32
0
128
-96
-272
-48
64
208
32
-144
288
384
-176
0
-320
0
-400
192
352
32
-592
-304
112
-64
160
96
-96
-64
400
16
-80
-176
192
0
-464
96
272
96
224
432
144
-32
-16
-144
16
-544
-368
-224
-320
-64
384
144
128
-160
368
80
416
208
48
240
416
560
464
512
-16
-80
176
160
-32
-288
112
-256
-48
240
-256
-640
-64
-16
0
304
432
-80
-272
64
416
240
-96
-224
224
144
-352
-80
32
144
304
304
-224
192
272
-16
224
704
272
-16
-208
224
128
96
-112
-432
-240
160
128
-64
224
128
-192
-208
288
192
32
16
-16
-128
-80
272
448
432
160
48
-256
464
496
496
64
240
64
432
432
-64
416
208
576
240
160
544
304
272
-240
0
-240
-176
-192
400
0
-272
416
400
240
-16
-464
-208
176
-112
-240
432
352
64
-16
256
0
-192
-160
128
144
128
-352
-656
-352
-192
-176
160
400
352
-96
-528
-400
160
320
-112
-64
-112
32
-32
-128
368
176
320
-368
-112
-384
-16
256
400
-48
-224
-144
-160
688
832
304
-144
-176
32
-64
-256
-560
-144
160
-16
112
-80
-256
-368
-416
-384
-64
64
-48
-736
-384
304
256
320
272
176
32
-368
-176
0
-208
-176
-160
-144
-336
144
80
-80
352
336
240
-256
-208
-160
272
-80
16
304
80
480
-320
-208
112
144
-272
-352
-208
-176
-256
-208
-208
96
-80
192
32
-112
-96
-80
160
-48
240
64
592
256
-304
448
128
-80
-128
336
480
-304
176
336
-256
-528
-224
112
-16
16
48
560
208
-592
-656
-384
-208
176
-256
-224
144
352
-288
-544
-528
-448
160
160
-48
-80
272
576
-128
-256
-336
-288
-80
-544
-176
-240
-528
-576
176
336
16
-560
-208
-80
-144
-192
480
288
144
0
384
304
448
176
-80
-32
-32
-288
-256
-48
224
304
-48
-352
-208
64
-128
-320
-352
384
112
-608
-176
32
608
544
80
112
-144
80
-160
-464
0
64
-160
224
-224
-448
-240
-240
-176
-448
-144
240
160
-64
-256
-240
-192
208
144
160
-208
-352
-16
-400
-512
-96
288
464
160
-144
64
416
64
160
64
-80
272
-48
-288
288
128
64
80
384
80
-256
64
32
384
272
-160
-496
-160
0
16
-80
-64
16
-176
-304
-368
-512
-336
-64
0
-224
-496
-464
-368
240
16
-304
416
304
512
-256
-272
-96
304
272
32
176
128
32
-208
-208
-336
-240
64
-496
-304
-208
-416
400
528
0
-144
-64
32
400
320
96
-144
-320
-16
-64
32
0
-256
224
592
32
-160
112
16
32
-576
-336
464
144
-64
-32
-368
-240
80
272
-272
32
224
64
272
240
48
-32
-96
128
272
-80
80
160
-192
-528
48
-32
-128
-112
272
-160
-64
224
336
112
0
-304
-192
-352
-144
-208
-160
320
752
400
240
-80
-400
0
128
192
0
-432
-320
-336
-80
-112
-128
176
352
-64
-336
-192
-208
-368
64
336
144
-336
-480
-144
-208
-16
-48
0
256
192
-80
-48
-240
320
368
144
-64
160
400
-416
48
336
-48
-368
-464
-144
-272
112
-176
-96
32
272
-16
-176
-16
368
-112
-448
144
-112
-224
-192
48
192
-176
96
-16
336
304
144
16
144
192
-96
96
448
32
-16
-96
224
-48
-352
-80
336
656
-64
-224
-48
80
-128
32
-192
-256
-288
-208
-224
528
448
-96
-80
16
-16
208
80
-256
16
0
48
192
-240
-384
112
224
464
496
-224
-160
-144
32
416
256
336
64
240
48
-240
-48
-176
192
496
-176
-144
512
400
-80
-32
-192
-240
-176
-96
0
-160
144
624
336
544
224
432
480
272
224
-16
160
32
128
-496
208
64
224
352
160
-432
-96
32
416
400
-192
144
96
96
128
80
80
-624
-416
-160
-128
128
160
432
320
256
464
656
416
-16
-320
-128
96
96
-512
-528
-128
-16
-80
160
-96
112
32
-224
-64
-240
-176
224
464
-176
-80
48
-400
16
-64
-192
-112
-160
224
128
160
496
160
32
32
96
128
288
16
-80
336
-96
48
176
96
192
0
-80
272
-464
-352
288
-32
384
-224
-176
-32
-336
-272
-496
16
144
-448
-448
-160
160
128
-320
-288
-128
-112
-256
-80
-720
464
240
-112
-368
-448
-48
256
112
32
-464
-288
64
64
304
112
-16
-160
176
-240
-192
-544
-80
-448
-256
256
128
-160
352
-176
-528
-288
-416
-464
-192
-496
-80
-400
-80
80
80
160
-16
-192
-48
48
192
112
-144
176
0
-144
-160
-288
128
-448
-240
112
160
-288
64
352
-16
-64
-368
-608
-192
0
-192
-48
-256
448
144
-32
176
-64
-384
160
144
128
208
112
-48
144
432
304
-16
336
416
464
160
112
32
48
-32
80
336
128
-144
224
-336
-160
112
288
432
320
496
64
128
-160
-64
16
80
176
-64
96
32
-144
0
384
704
-192
-560
-464
-160
224
96
-128
-48
-384
-208
-192
80
-64
832
912
512
48
-96
-224
-400
-336
-16
-192
-192
-96
336
528
384
256
352
-16
32
128
336
-496
-304
128
-240
-160
16
208
304
-96
160
144
144
480
144
48
-256
-256
-288
0
336
64
352
224
256
624
-64
336
240
112
192
272
-64
-80
16
-144
-192
-272
592
224
16
-48
32
-272
-240
16
-544
-352
-272
-32
-32
144
-16
544
576
384
384
32
208
400
304
160
400
608
0
-352
-128
0
-32
96
-176
-352
-176
-96
-112
80
160
336
256
304
-192
112
144
-48
48
160
-64
-32
-592
-368
-592
-32
32
-160
-496
-128
128
-80
-320
16
112
-16
-544
-160
224
80
-208
-208
224
128
-80
32
-464
-672
-144
224
224
0
-128
-112
-192
16
16
112
208
64
-176
320
528
208
-176
-144
320
288
144
-112
208
-64
-160
304
272
208
32
336
288
160
576
192
224
-32
-48
-64
640
-32
32
-128
16
96
272
304
176
-144
-96
-48
-96
64
-112
0
32
272
304
-128
-352
-160
112
-144
-16
0
80
192
-32
-16
-336
-192
-32
-480
-128
-128
-32
48
-112
-576
-448
-176
288
480
-144
-16
176
240
80
48
416
-32
128
-256
-544
-160
-176
-192
-336
480
-16
32
-208
144
64
-240
-144
0
-192
-112
-288
-464
-544
-384
64
336
752
-176
-176
-208
-352
-208
-448
-304
-240
-112
288
288
-64
-32
-16
96
256
144
368
-224
-384
160
64
-624
-64
240
0
336
-80
-416
-368
-192
-224
-272
272
192
16
16
80
-128
320
-288
160
-16
-160
-288
-656
-400
32
-48
-64
-80
-192
160
0
160
128
240
0
-208
-432
-16
272
256
-160
16
-32
32
-240
-112
-96
-224
576
480
304
-160
80
-48
64
-64
-320
-208
-96
208
752
592
336
64
-288
144
512
208
512
208
-160
240
-160
-224
-256
-160
160
352
288
192
288
208
-192
-432
-48
416
176
-256
-416
-16
368
368
144
192
256
464
336
256
-48
352
416
192
-64
176
192
96
-272
-240
224
480
-32
-320
-160
128
0
-272
128
288
416
-192
-256
-208
96
0
224
256
-64
-384
0
32
-368
-160
-112
-96
-32
-224
-224
160
-16
-80
208
-544
-544
-224
272
304
-208
-464
-432
-352
0
-240
0
0
240
-240
-336
256
320
96
-96
128
48
0
-32
80
336
80
64
-224
144
-176
-80
96
128
400
576
464
112
-144
0
432
-32
-80
-32
112
16
112
-160
-144
-352
-32
288
48
96
448
272
-144
192
-16
448
480
336
-368
-48
240
336
240
-400
-16
400
624
80
-32
-80
32
-224
-128
-352
-384
-560
-464
256
144
-272
80
160
288
208
96
-160
112
-112
64
336
-144
16
-400
-320
80
48
-208
464
560
80
128
80
240
64
368
48
192
-16
0
-96
-16
352
48
-288
-480
-288
-176
-32
384
304
352
-256
-240
192
464
-80
-160
192
48
-64
224
128
-368
-464
-240
-128
-320
-96
-240
-240
96
-128
-272
-96
-128
96
-144
368
64
-144
-16
-208
-256
128
384
560
-96
-496
-288
208
32
48
64
-160
-32
-80
48
-192
-368
-176
-176
-464
-448
-288
-240
-432
-32
384
304
64
0
240
48
112
-240
-240
-336
64
224
192
-368
-256
-128
608
-48
-480
-432
144
240
96
-240
32
128
-128
-256
176
112
32
-192
-208
-176
-480
-80
-288
144
480
512
144
-96
80
80
208
176
176
-336
64
-128
-736
-560
-32
-240
176
384
-32
80
256
400
176
80
-352
96
64
-160
-112
-224
160
368
80
80
-64
-240
144
-192
-192
-144
-176
-160
64
-464
-384
-160
-672
-496
-384
-320
-448
-272
-352
144
-272
-352
112
96
-112
-416
-544
-80
-80
144
0
-224
-272
272
48
-64
-32
-160
80
-16
48
-192
-192
288
336
384
-336
-160
-80
-128
176
-208
64
-416
128
240
176
-16
-272
-352
64
48
384
192
176
-160
-48
-384
-288
-432
-48
-304
-176
-208
-32
-16
-560
-240
96
-64
-176
160
-16
-96
-48
112
96
-16
-304
-128
256
208
-512
-288
-64
80
0
-32
-304
-96
80
96
-192
-192
-160
48
272
304
224
-16
-256
192
-32
-112
0
-288
-320
-80
272
240
-240
-416
-272
-16
-224
-640
-640
128
288
144
128
16
96
16
-336
-256
368
352
-272
-192
-256
-64
-64
-480
-224
-176
-80
32
-64
-624
-368
-128
-160
272
96
-16
-256
-496
-256
-240
-688
-144
320
272
-176
80
32
-144
-608
-192
-192
112
-48
-176
-496
-368
-64
-240
-80
208
64
-160
-544
192
160
-176
-240
-64
-80
-96
64
-32
144
48
32
592
48
112
400
544
-128
-528
48
160
-272
368
96
-288
-112
-192
-288
-400
16
0
176
352
-144
-208
16
-16
-128
-96
-80
-496
144
272
160
96
112
432
160
-144
80
448
384
320
272
256
176
-256
-304
448
832
432
-16
64
-160
-192
-64
-208
176
224
-128
-240
-256
176
288
-144
-400
96
-128
-96
64
-192
0
208
-64
-16
-192
-256
192
272
128
-80
-400
-336
-80
16
-32
-240
160
192
-96
-64
-480
-320
656
640
96
-48
-288
-464
-448
-352
-560
-592
16
-96
-304
80
608
384
-192
-80
80
-176
-400
-160
-176
-64
80
80
288
368
-192
-384
-288
128
112
0
128
-384
-768
-416
-128
-208
-272
80
-224
16
304
112
-144
-48
224
16
272
-64
208
-336
-464
-544
-432
-80
-32
-432
-352
-160
-96
-80
96
208
-304
-528
-80
32
320
176
64
288
-128
64
64
-128
32
-384
-352
-16
144
-16
64
-240
-64
-240
-176
320
288
256
96
176
-272
-464
-192
-224
-32
-368
-288
-400
-144
-320
-288
304
224
224
336
176
432
-256
-448
96
464
544
384
176
-368
-320
0
-240
-144
0
112
-272
-320
48
288
-224
-352
-288
480
0
320
720
144
272
48
-64
96
-208
144
672
144
-128
-112
112
-48
32
272
176
352
-48
-352
96
512
112
176
-16
176
192
-192
32
304
144
-352
-224
-176
-208
32
464
64
320
-64
48
64
-160
256
512
208
80
256
320
256
-304
-16
-176
-544
-16
272
-48
-32
-80
128
368
-96
-240
-96
-64
-192
208
-192
48
16
0
-48
288
32
-544
-368
464
272
96
-160
-64
-112
-464
-352
-256
384
208
0
112
0
256
912
688
-208
32
416
32
-64
-32
-48
-48
96
272
464
192
192
208
-208
-144
-96
208
64
-320
-320
224
-128
-304
32
-32
32
128
-16
-416
-400
-624
-320
464
240
96
640
320
64
-144
-368
112
368
32
112
-256
0
-80
112
144
256
576
496
640
304
0
-416
48
592
0
96
128
-112
-416
-160
128
-64
-128
-64
0
-272
336
256
-208
-256
48
-32
128
-16
-80
80
176
-64
112
304
80
64
128
-192
-608
0
240
80
112
0
-336
80
-272
-240
0
368
336
-144
160
192
-176
-320
-560
-528
-336
-512
-48
-128
-144
-128
-224
-128
-208
-16
-192
-144
96
-160
-608
-432
-432
176
48
0
0
48
-64
208
-192
176
-272
-272
240
-80
96
208
-32
272
-384
-288
-64
-48
304
624
192
240
112
-128
-96
112
112
-80
192
-64
0
-176
-192
-176
32
-288
128
368
-32
160
448
-32
-160
-400
-496
-64
-352
-224
-208
160
384
112
416
0
-48
-208
368
96
-144
256
544
544
-80
-32
0
256
-272
-256
-176
-336
64
-80
-272
-192
160
368
464
-336
-704
-368
80
-176
112
352
-48
96
384
-160
-96
-448
-80
0
-16
-128
-352
-592
32
208
64
-576
-96
656
-144
-176
-160
-560
-352
48
96
-288
-112
-96
320
240
-144
48
-224
224
320
608
32
48
-48
272
-272
-48
-64
-128
112
48
-224
-80
32
-304
-800
-160
160
-176
-80
160
352
80
-32
144
384
112
-160
48
272
80
-480
-320
16
336
288
256
-224
-224
336
192
-208
-128
400
592
496
256
128
-80
48
288
64
-256
-224
-176
192
272
128
416
128
-32
-160
128
80
-192
-176
112
160
144
464
464
224
-32
-592
-608
-400
-96
496
-256
128
272
256
-144
-96
64
-80
-464
-384
-304
-352
16
272
-112
304
528
240
-160
-192
208
64
-16
-240
-304
-160
-480
-224
-176
-544
-80
16
0
112
-208
112
128
368
160
-48
-176
112
-256
96
-16
0
384
176
-128
-144
-224
80
512
-32
-16
-368
-224
192
-96
-80
304
-32
-288
-16
-304
-80
112
32
-80
64
96
-16
-224
-368
-352
-208
-80
-256
128
-176
-256
-112
-16
-112
-160
-128
-160
-48
-304
144
336
80
-352
304
304
16
-400
-176
-16
224
16
96
-480
-576
64
32
-608
16
240
400
528
272
288
-48
-224
-288
-80
288
32
-256
-256
112
480
352
480
256
192
16
-320
-416
-512
16
224
400
208
-80
256
144
192
-112
-96
-384
0
-96
592
384
-32
240
32
80
192
-160
-112
-208
-160
224
112
-16
-368
208
304
256
-288
-336
-176
-240
-320
-592
-432
-240
64
208
-432
-304
-208
48
-128
-384
-48
80
144
-96
304
144
-16
-32
-176
64
400
-448
-320
96
448
48
240
0
96
112
112
192
-128
-32
224
112
0
0
48
128
-160
-176
-144
-320
-304
160
240
304
-128
32
304
80
-96
-304
-464
32
-80
192
176
16
-96
192
96
496
-32
-400
32
272
176
-144
-160
-368
-96
208
-16
-240
64
-32
-128
-160
-80
-128
256
-192
-208
-160
-304
-288
304
-128
-256
-80
-224
-512
-160
-320
-352
240
-288
304
48
32
208
352
528
672
176
-160
-704
-608
-608
-304
368
-144
-224
16
176
384
128
-144
48
16
-64
-368
-288
512
-240
-352
240
-160
-336
272
320
-160
-80
-288
-192
224
336
112
-416
64
64
-16
-16
-400
-128
-272
-576
-384
-160
288
16
176
128
16
-400
-272
-224
80
224
-48
656
-336
-320
-336
-32
-224
32
320
224
272
64
-128
272
128
-336
80
176
336
448
-272
-304
368
32
96
512
160
32
192
288
464
-192
-64
144
96
272
-160
-32
16
256
800
544
320
144
-96
288
-176
-160
-112
0
-160
96
-336
-48
208
-48
-128
48
-160
-448
-480
-192
96
208
320
304
48
-224
496
48
-960
-864
224
80
80
-208
-112
144
-128
-32
480
32
-224
416
-32
-208
-128
144
16
64
32
416
-176
-512
256
192
-448
32
-144
-176
-192
-176
-528
-416
-336
448
-112
-448
-624
-144
-224
-80
320
-144
-304
64
64
-304
-144
320
176
-272
416
144
-32
432
832
352
240
-96
32
0
-96
16
-288
-272
-256
-320
-112
224
-16
32
192
256
448
176
0
-16
-160
0
-128
64
272
-160
80
16
192
128
16
192
128
-64
-336
-32
-400
-592
-224
128
176
160
112
32
-288
-432
-192
-432
-864
-592
224
-96
-16
432
64
-720
272
576
-16
-32
-208
-368
368
208
-192
-288
-240
208
160
208
256
432
144
-368
-336
-80
0
240
192
112
0
336
-160
176
448
-208
-32
-96
0
176
-48
80
-240
16
-80
32
176
-352
80
96
-240
-240
304
-160
-320
224
224
-176
0
256
-240
-192
-80
-48
-560
-432
-32
-400
-432
-160
320
480
-80
16
176
512
-160
-112
-16
48
176
176
256
-288
192
288
-144
32
-48
-160
48
-16
-272
-112
80
384
768
720
272
-16
256
240
240
32
112
-352
-336
208
448
144
96
128
16
48
0
-272
288
-112
-272
-96
0
-48
128
384
400
-64
-176
32
112
-32
-16
-224
-96
-176
0
-144
352
208
320
-304
-192
288
48
160
480
-176
560
-64
-112
16
-240
192
-128
144
32
-368
-32
544
64
0
0
-272
-384
-64
-208
80
288
304
-32
32
96
240
112
-256
-496
-448
-496
-240
128
304
-208
-176
208
-144
-64
512
384
432
160
384
-16
-64
-256
-128
0
112
-448
-416
-464
-400
-128
480
368
-192
-96
-48
96
272
-64
-448
-128
-272
-64
-416
-672
-272
-16
-16
-160
48
-48
-16
128
544
112
-176
-208
-320
-208
0
656
0
64
352
256
-48
112
80
80
80
-80
-32
304
160
-32
-288
-400
-352
-144
-320
-272
-80
224
48
192
128
64
-208
-432
-512
-160
-224
128
-288
-160
224
144
-48
-304
-208
-16
48
-240
-192
128
144
-368
-240
-224
-256
0
-128
-384
-544
-416
-160
-96
0
-192
-224
-128
384
352
128
512
432
96
-224
0
144
192
-288
-320
-96
-320
-256
-96
32
112
352
-160
-400
-288
-96
-320
176
128
64
288
224
-64
-640
-192
-64
128
16
-176
-128
0
304
528
224
-64
144
176
112
-16
160
160
256
-144
400
192
-16
-160
32
-208
-160
304
112
128
-80
-224
-16
480
80
448
144
224
-128
80
-384
-80
-160
16
176
48
-416
-368
96
352
-160
-304
240
-64
-224
-320
-112
0
-96
32
208
144
-48
32
-240
-80
-80
-48
48
128
352
-192
-368
-48
0
176
352
320
-80
256
256
224
224
-160
-48
-544
-336
576
208
-352
-176
-96
224
176
-16
192
-32
-160
112
-368
-160
160
-128
-224
-240
-32
-16
192
32
112
80
384
224
-16
-32
-48
48
336
96
32
400
64
64
-128
-656
176
-32
-48
192
64
128
-368
-464
-160
0
176
352
176
320
144
-48
-80
-304
-192
-64
272
224
-112
-368
-208
-32
-304
-32
96
384
-240
-592
-16
224
112
384
-80
48
240
560
-32
32
512
176
176
-48
336
-32
304
112
-48
-352
-384
32
160
-144
-192
-128
-224
-64
224
256
400
-336
-80
144
240
176
-16
-512
0
240
-96
592
448
80
-192
-192
-32
240
-48
160
-448
-32
-320
0
576
576
-32
-144
224
-656
-288
-352
80
-160
256
432
160
0
96
-32
-48
-144
-80
-80
192
448
32
112
144
-176
-288
-272
560
288
48
448
656
80
192
224
64
-112
-560
-656
-48
-128
-544
80
32
-384
-336
-64
96
-128
240
192
-336
-272
-176
-320
64
-272
-272
608
272
64
-64
512
432
272
304
-688
-560
-64
-112
-80
144
-32
160
176
-128
176
96
-272
64
-96
-320
80
-128
464
96
368
336
240
272
-256
-16
624
480
112
368
368
128
-224
-512
-336
-208
0
48
416
-48
144
352
16
-272
-128
160
-256
-160
-240
64
304
768
304
64
-448
-208
-400
-128
-736
-416
32
-80
-208
-272
-16
-48
-384
-272
272
496
496
384
-208
208
48
64
-128
-272
176
640
-16
-416
-144
0
-256
-16
-48
-608
-208
-16
-208
-160
-256
48
80
144
160
-224
-160
304
240
-272
-288
-416
-64
48
-48
-32
-16
-224
-352
-272
80
-368
-208
-16
-368
-224
64
192
576
144
16
-64
64
-144
-432
-368
-112
-240
192
512
-32
-16
-288
-16
0
96
32
-16
96
-48
-32
16
144
-32
80
0
80
-240
-688
-736
-592
-256
-128
-112
-192
-48
176
112
32
16
112
288
-240
-272
144
-224
48
256
-64
256
80
-352
32
272
192
-16
32
-112
-48
304
144
-320
-144
112
-176
-448
-224
-160
160
48
368
304
-208
-64
16
80
96
160
-80
-64
-32
112
-224
-192
-224
-560
-272
-160
-304
-224
32
112
48
240
448
64
-608
-416
-160
-48
-80
-352
-112
-144
-16
144
-16
320
-160
-128
96
352
256
-112
144
112
-160
-480
-416
-16
240
-256
-192
96
32
272
224
-32
-224
-304
-80
32
0
144
-224
-272
144
144
-32
160
96
-16
160
-16
144
64
-64
-224
32
240
-48
0
192
160
0
-32
368
-80
-32
-192
-208
-192
-544
-16
320
-80
-208
256
400
-256
-592
-400
-128
0
-96
-160
-256
32
288
-208
80
96
384
16
-320
0
112
-240
-400
-640
-80
128
128
-320
-144
112
-192
128
96
176
208
-112
128
448
192
400
32
208
-320
-192
-144
-112
160
-64
-352
-96
464
-64
-368
-480
-496
0
432
176
-160
192
400
192
432
528
672
432
-16
80
224
-16
-192
240
320
-240
-672
-272
-96
128
-144
-128
112
400
-96
-96
-672
-768
-528
32
32
-208
-272
176
48
-128
16
64
-96
48
0
-144
32
-112
288
64
-48
288
528
672
128
-96
-432
-80
48
-192
-144
32
64
176
448
304
448
-192
-464
-128
-80
32
-208
96
-16
-544
-320
-192
128
176
64
448
208
48
160
272
464
96
-240
624
336
304
-208
-320
-96
352
768
256
16
-208
-352
-80
64
-240
-304
80
-112
-496
320
448
-16
16
-96
112
432
208
-32
96
64
128
80
304
-80
-480
288
224
-64
-80
-176
-160
176
288
-48
-176
112
368
-32
-320
-368
112
336
416
256
-256
48
-32
-576
-544
448
240
48
-80
-176
-272
64
160
240
400
144
16
-192
16
-16
272
480
128
-144
16
160
-32
64
-592
96
96
144
-48
128
192
-192
304
256
144
336
16
-48
368
48
-176
-400
48
80
208
-32
-192
-64
16
320
32
80
128
80
400
128
-496
-464
64
240
112
256
-128
-240
80
192
224
352
256
144
320
176
128
368
-336
-336
-144
576
-80
-80
-160
-160
160
64
-112
32
64
-112
-144
-48
16
-208
-32
48
-480
256
32
112
304
-208
224
176
-80
368
176
160
176
-208
-288
-512
-416
-128
-416
0
-208
-192
80
-160
-448
-80
-96
-112
160
48
64
48
-256
-496
-480
-224
-288
128
288
160
144
112
240
-32
-336
-464
192
448
176
-528
-352
-176
336
544
432
464
560
240
96
320
-80
0
112
-80
-112
192
304
144
-16
208
112
32
32
-32
-48
-80
-224
-224
-272
128
128
-208
160
224
64
144
-80
32
224
288
288
16
144
304
96
-80
64
112
-272
-208
96
80
-192
32
80
-176
-288
-320
0
-224
-384
256
304
272
240
368
320
320
528
432
464
416
128
-160
464
464
112
96
496
560
496
112
-48
64
368
-80
32
-304
80
688
272
144
48
224
48
-448
-64
-480
-560
400
400
176
-48
-96
-112
240
304
560
16
-192
-480
16
-112
48
112
-192
0
-176
-624
-16
16
160
-480
-112
-240
-32
336
464
32
-16
96
-48
-16
480
656
96
-128
208
592
144
-352
-144
-432
-144
-64
-400
-112
-176
-48
224
48
-192
-144
-320
-208
-64
-16
16
-16
544
736
336
48
-64
-496
-688
-384
-192
-96
160
128
144
192
256
-96
-256
-144
-80
-464
-352
-400
16
-192
-304
112
-352
-848
144
240
240
432
160
64
-432
-416
368
-112
-304
-64
-32
-96
-144
112
192
224
368
192
-48
400
192
-48
832
224
368
-96
16
-16
160
192
336
-400
-544
-32
-112
-256
-320
208
-128
-272
-416
-192
-784
-176
-32
-160
-256
-288
-48
176
64
416
-208
64
0
-32
240
336
320
192
112
-208
-352
-240
16
-128
-80
384
144
-176
-144
416
48
112
240
560
480
48
-144
16
-240
304
496
-80
-96
112
368
192
-32
16
-144
-704
-592
112
128
304
-224
-352
-176
-112
-320
32
-144
-80
-272
-48
32
48
272
-144
48
64
-48
-336
-160
-96
64
256
16
-320
80
-64
112
32
96
400
432
320
176
-176
368
128
48
-208
16
-64
16
-192
-64
-80
-80
-176
-208
64
-144
0
-224
-32
464
112
-368
416
608
528
-64
-224
416
368
224
400
432
0
0
112
-32
240
112
432
176
0
-544
-336
80
208
48
32
288
256
16
-608
-368
-416
-352
-432
-464
-224
-96
-16
288
320
32
-144
-48
80
-400
-272
64
-336
16
272
-32
-208
-176
-48
320
384
192
-32
-624
-480
-272
-112
-288
-416
192
-16
-560
-320
-560
-176
-704
-720
-16
560
-16
-32
-96
-656
32
384
272
208
-64
-144
48
-128
-32
80
-112
-464
-160
0
-48
-128
240
-80
48
96
384
32
-272
-304
-80
272
0
-240
48
112
80
336
464
208
-160
80
352
368
336
464
368
96
-128
-400
320
-320
144
-272
-208
-48
-288
-96
-304
-352
-16
-320
-368
-352
0
-80
-464
-544
-432
-16
-224
112
-320
256
64
-256
-128
-144
96
-528
-512
-48
-320
-208
-384
-64
176
-80
-208
-256
96
320
32
-128
208
-16
-96
-160
-256
-320
-144
-320
-592
-176
128
464
704
176
-32
-16
-96
-144
96
-288
240
144
-32
-112
0
64
-208
-448
-368
128
112
96
-288
16
-144
160
-208
112
-240
-48
96
144
64
0
64
-144
128
0
32
112
-16
-144
-64
240
336
128
16
160
-128
-240
-304
-176
192
-352
-48
-16
112
112
176
-400
-16
-144
-160
-368
-176
304
304
-112
256
432
80
256
144
144
128
208
-160
48
256
-176
-224
-192
-400
-176
-336
-192
112
96
80
320
48
-160
-16
-224
-224
-32
16
-80
-144
-80
96
352
224
304
240
-224
80
-304
48
64
-192
-224
-496
16
-160
-400
144
656
240
-112
-224
-528
-80
16
0
-80
64
-192
-272
288
208
-176
-272
-128
64
160
128
48
-192
-336
32
304
32
-496
-128
-16
-288
-128
-192
-144
112
128
-128
64
80
304
160
-128
-272
-176
-272
-336
-192
-16
272
-48
128
-48
-464
-96
-80
64
-208
144
-352
-352
-128
224
320
0
-32
352
736
192
320
336
160
-80
-208
-272
-48
496
384
128
192
256
96
-96
-336
0
400
0
32
0
-112
176
208
48
32
-192
32
-160
16
80
-352
464
192
-496
-208
-80
-128
-304
-64
160
176
128
-288
192
-192
32
544
80
304
240
304
-80
208
32
160
320
-320
-352
-16
64
-160
-112
-64
240
240
640
208
-48
352
64
-592
-608
-64
-16
-256
-128
-224
-432
-496
-144
400
304
288
-192
-64
144
-80
-336
224
400
432
80
-336
432
448
144
0
-224
-240
-224
-208
400
384
-288
-176
-32
256
-208
96
192
0
208
112
-320
-384
-224
-224
96
32
-32
176
112
-224
-448
288
-48
80
32
208
112
-208
352
-16
704
256
-320
-368
64
0
-208
-160
-32
-288
-400
-288
224
-336
-192
64
-448
-400
-480
-176
-208
0
480
336
16
-448
-352
-272
-96
32
224
0
-400
-192
336
368
144
-80
256
-176
-48
16
-96
160
-80
-304
-112
-160
-272
0
320
16
-464
-96
-80
-400
-432
-448
-224
-192
-160
144
-48
0
-48
0
-176
-272
-288
-208
-496
-80
-80
-352
-464
32
448
208
224
16
32
160
128
-256
-192
-416
144
-48
-320
-320
-368
-480
-192
144
0
32
48
64
304
-48
144
0
-128
-416
-480
-80
128
144
-32
-480
-208
-336
-128
-112
-368
-48
-176
-272
-32
-224
224
-32
80
16
160
32
-16
-32
96
16
672
608
272
16
-96
-32
-64
704
256
-144
-128
560
320
-320
224
-64
256
176
-96
80
-128
-48
-304
-240
-224
-80
352
160
-128
64
-240
-672
-96
-16
64
448
256
112
64
-32
448
80
32
400
160
48
-336
112
-112
-96
288
160
352
-80
-256
-128
48
-16
288
160
0
160
288
240
16
-272
-32
-64
128
304
464
160
0
192
448
112
-176
112
-352
0
384
288
-240
-144
-160
144
336
256
320
240
304
-272
160
416
112
320
-64
0
-96
128
144
-64
48
16
512
128
32
320
192
0
48
272
48
-80
-16
-352
-80
16
368
352
144
432
16
-112
-48
240
-176
80
272
64
-384
112
416
512
-64
48
48
-176
-416
-496
-96
-128
-160
48
112
-80
80
-208
-128
-80
32
0
-208
-432
32
-64
0
-432
-480
-448
-448
176
192
-192
-288
64
432
256
352
-64
-128
192
-128
192
-176
-96
-128
-208
-48
160
-224
-464
-320
16
192
16
128
272
160
240
-112
160
96
448
432
-112
-112
0
368
336
48
128
160
192
-80
-528
-576
-224
160
96
-144
16
-224
400
512
80
-48
224
96
384
208
-448
-192
32
160
-256
-112
-112
64
96
96
0
-304
-16
32
-64
-96
-176
-96
112
-64
144
144
-192
48
160
288
112
160
48
-192
144
-96
-112
80
720
208
-240
-64
16
416
304
416
288
96
48
16
-64
-128
496
144
272
16
272
112
-336
208
480
96
112
-192
-128
64
112
16
240
464
464
16
-320
32
208
-64
576
496
48
-80
-80
-208
464
416
432
336
112
80
688
112
400
-64
-80
-128
-496
432
256
256
-16
112
320
560
-336
-352
96
16
16
-128
-224
-432
64
304
192
224
16
-320
-192
-144
-32
112
240
592
-160
-80
-32
464
272
304
-64
48
288
128
32
256
-80
-96
288
-336
-176
-32
320
-16
-256
-160
-608
-208
32
320
-144
144
96
-160
192
-384
256
160
0
-112
-240
144
128
144
192
112
320
-112
-144
16
48
160
-32
608
752
608
96
-480
-304
-112
80
192
-16
-352
-208
-176
-192
-80
208
80
352
-48
-144
-112
-304
-192
-224
-32
-144
32
624
432
-208
-288
32
-320
-464
-176
-160
176
464
304
96
-144
-240
-112
48
-320
-16
64
-16
16
-48
-208
-208
0
-112
-224
112
-448
-144
-224
-144
-640
-720
-832
-16
240
-144
-128
144
112
400
240
48
-32
-96
128
-272
-144
16
80
0
512
160
208
-304
16
-560
-448
80
128
80
16
128
16
-16
-80
-16
-272
-416
16
-176
-32
480
688
560
176
-192
-336
-496
64
16
-160
128
128
-32
16
240
208
464
80
48
-96
16
-16
-144
-512
-496
-336
-128
32
192
-80
-592
-400
112
-32
-304
16
-16
-656
-304
208
0
-368
-720
-176
320
-240
-688
-352
-96
-160
-160
384
304
-144
-32
32
208
240
96
0
-576
-624
32
16
-208
-224
-96
-304
-560
-368
-16
48
224
208
400
48
-304
-16
64
-176
-464
112
624
448
112
-192
144
304
-48
64
-48
-128
128
368
496
32
-64
-464
-512
-96
144
160
-368
-96
-32
-48
-128
-144
-288
-592
-704
288
64
32
-304
-288
80
-16
384
544
576
112
-560
-128
480
368
-32
-176
-128
160
-144
-208
64
112
128
-80
-144
-48
-80
-192
-736
-128
272
320
96
144
384
176
352
272
160
288
544
128
-368
272
368
176
0
-448
80
-48
-64
-240
-640
-400
32
144
304
-352
-368
-304
-336
-32
128
48
-192
-336
-944
-336
32
400
-320
-512
-448
16
-16
64
-304
48
192
464
96
112
224
-96
-224
-208
112
-272
-544
-192
-80
128
208
176
0
-544
-464
-256
240
144
16
-336
48
256
-512
-160
-480
-160
-128
-560
-336
-48
-160
-336
-48
-288
-144
-448
-256
-128
112
-16
-320
96
-272
-560
-368
-192
80
-112
160
-32
-352
160
-80
-224
-240
80
-32
384
464
16
48
96
-192
112
-16
-48
-224
160
192
208
-64
-64
-416
-16
272
192
-128
16
-144
-48
-96
-384
-16
144
32
112
16
144
432
624
32
-96
176
64
16
-32
208
-64
-192
48
176
-144
48
176
-208
-176
80
-304
-592
-208
-272
-224
96
48
-272
256
112
-496
-176
-112
112
-80
-144
-48
-352
-304
128
-16
112
112
-96
64
192
-96
496
448
80
-192
96
128
208
96
256
368
336
32
-480
-32
160
-112
-64
320
384
768
160
192
384
-32
-432
-256
-288
-160
-448
-32
352
-224
-160
160
-256
-272
-48
-320
-192
192
16
-336
-576
-240
-48
112
-48
112
0
-96
256
-64
736
64
-192
-160
64
144
128
-32
736
160
176
32
-80
-32
-96
256
-320
96
304
-96
-256
-128
-32
-176
-80
96
96
-112
-176
-304
-592
144
192
-176
-80
224
64
144
-160
-256
32
-80
96
-112
-144
528
448
400
112
0
192
-112
-144
-160
288
80
288
-48
224
-368
-448
-160
16
144
-112
-368
-608
-384
48
144
64
0
-352
112
-416
-800
-384
176
16
-48
-48
-96
64
-256
-176
192
-16
32
96
-16
128
-144
-272
-176
-576
-208
-32
208
640
880
528
416
96
320
176
-16
256
-96
-192
-48
64
224
-240
-272
96
176
16
384
272
-224
16
80
-208
304
112
128
-16
16
80
-64
384
128
-48
-256
-176
-336
-80
224
272
160
0
-144
640
416
208
304
-80
-416
-208
-288
-112
-176
-192
-352
-80
-144
-96
128
-32
64
368
48
112
16
-64
64
-384
-224
-176
-144
224
-224
-112
48
112
-336
-256
-288
-256
128
304
208
272
-336
80
96
-64
304
400
432
32
-48
336
272
112
400
-48
-336
-80
144
288
112
-128
-512
-432
-208
-144
-432
-528
48
112
-272
-176
96
-336
-48
176
-192
-128
176
-32
176
208
128
128
192
-48
-192
-16
-160
384
256
256
208
32
304
48
-560
-656
-16
-64
16
16
-464
208
240
224
-96
96
368
-80
48
128
-64
-480
-160
-64
128
-32
-272
64
448
-400
-448
128
-192
-288
-304
-64
48
-32
-272
-288
-448
144
-304
-192
-208
-336
128
-48
-208
-16
160
160
-96
-400
-96
-96
-320
-320
64
-112
-80
288
176
208
176
-256
-432
-416
-176
464
352
352
-48
0
256
448
-96
48
96
48
192
352
240
240
-240
-400
-560
-480
-16
-80
592
560
288
-256
-320
-240
112
64
-160
32
128
288
-48
176
320
144
400
-272
-528
-96
-192
-128
-208
256
192
-32
16
-208
48
-16
-240
-16
144
-240
176
208
176
400
112
-64
96
-144
-32
-240
-384
-464
-80
448
-352
192
672
336
0
-32
64
-16
-96
32
-144
-304
-16
320
336
416
240
-256
240
304
80
176
448
-160
-592
-32
112
592
224
144
432
-64
-192
-224
112
224
-176
48
-304
-224
-128
-288
-464
-288
-112
80
576
384
160
-16
192
-32
48
-208
-16
112
128
48
144
160
64
112
272
0
144
-144
192
-80
-48
400
256
256
32
48
-320
-64
192
32
-192
-368
-464
-80
-368
-112
128
288
-48
32
240
336
448
48
-16
176
-192
112
128
-128
-304
-240
400
368
64
-64
224
-160
-224
112
224
-272
-80
320
16
48
96
96
432
-256
176
64
-80
-192
-64
-240
-288
304
304
208
128
-128
80
240
352
192
208
-208
-288
-160
48
-256
-176
-64
-304
-304
-432
-384
-256
-48
16
-288
-448
-272
-16
272
112
64
-96
176
32
304
576
448
128
-96
192
128
-176
256
304
128
-304
-192
384
-208
-272
-112
0
112
-112
-336
-144
-144
-96
-240
128
192
64
-16
-176
-400
176
128
-48
16
0
0
-288
-240
240
256
304
272
64
32
128
64
-48
-208
-160
-64
128
96
144
-64
32
176
16
-368
-64
224
288
-272
-128
32
32
112
208
176
176
128
224
-80
-144
32
16
-112
272
112
-208
-96
-272
-64
288
384
368
-64
-224
-192
-432
-176
-32
-368
-112
128
-304
-400
-528
-112
-80
-64
-336
-176
256
96
-176
-496
-320
-208
-384
128
32
16
-528
-272
-64
-144
-304
48
-144
304
96
176
16
-176
-112
-224
-16
0
0
64
-112
128
-32
-400
-192
48
544
448
-192
-96
240
160
400
192
-208
-432
-400
48
-176
176
-48
-80
352
368
-32
-48
-208
-112
80
32
0
-304
-112
-16
144
336
-32
256
-32
416
16
-448
-544
-224
-144
144
0
208
160
-400
-48
-192
-416
-192
400
368
208
64
608
-48
-160
-208
-144
16
288
-128
-336
-96
16
-272
-176
192
112
-160
-224
-320
0
-48
-720
-384
-608
-576
-544
-784
-208
-16
-32
256
176
352
80
400
224
-16
432
208
-448
-416
-432
-624
48
-48
16
192
320
176
176
-32
80
144
272
224
-208
304
272
-208
-112
-368
-368
-304
-304
-96
-288
-256
-96
80
128
-32
128
-368
48
16
448
384
80
-80
-304
-192
-96
176
48
-64
-48
-48
-16
-176
240
96
128
-480
-432
-368
160
-176
-128
128
-112
-64
224
176
16
160
176
-224
-224
256
208
0
112
512
320
-16
0
-64
-304
0
-256
-16
80
176
-352
-112
0
160
-64
64
-112
48
-16
96
-448
-16
704
288
224
-16
256
224
432
144
-336
48
432
-320
-64
208
576
32
-256
208
272
48
-304
160
128
256
176
16
-208
-448
-96
160
-128
816
336
-416
-240
-336
48
224
-112
16
176
416
176
-256
-80
-16
672
640
320
32
144
16
192
48
-32
-32
-208
-256
0
-16
-160
-240
-160
-352
-480
-16
304
-64
-256
-288
576
384
240
32
-160
48
-112
48
80
-400
-64
-64
112
-112
-336
-112
-256
-192
-176
576
-192
-288
288
272
240
480
304
112
176
96
-16
-416
-192
80
448
512
384
512
96
-208
-448
160
576
144
-32
-160
-32
-384
-80
48
-128
-112
176
-144
-464
64
16
-416
-96
-336
224
0
-320
240
352
64
144
320
160
-64
-560
-272
-80
-192
-32
-320
224
192
0
-96
-400
-144
-208
384
112
-16
16
32
-64
-256
-64
-176
-64
16
432
32
-64
192
-16
112
560
496
208
272
224
-16
192
224
240
288
0
-320
-320
-256
80
496
368
-48
576
128
192
-192
-528
32
320
96
32
160
240
544
96
32
-112
-64
32
16
112
448
288
-112
-112
-16
32
-224
80
160
96
-64
112
-192
-400
-352
-320
112
240
-192
-80
352
160
192
80
160
-416
-192
-144
-192
-80
176
-80
-416
-384
80
-448
-224
-448
-304
-384
-304
-160
-80
-16
-96
80
208
-176
144
-80
-48
48
-176
-384
16
144
-144
-224
-48
112
16
-80
-160
-32
-64
-192
-192
-256
-96
-544
-64
-112
144
-112
128
256
-128
-224
-544
-32
-144
-208
224
-96
-496
-336
-544
-496
-64
112
-160
-240
-464
112
176
-384
-192
336
288
176
416
144
-352
-16
-144
-352
208
208
-144
96
304
560
608
160
0
416
192
32
-144
-336
-240
192
64
-80
-192
-32
272
256
-496
-80
-176
-480
-480
-16
400
96
384
-112
-224
32
96
-448
-512
-96
256
-336
-384
16
224
-272
-192
-160
-112
0
-32
144
96
-192
-272
288
0
240
336
-160
0
224
192
-288
-352
80
272
16
80
-416
-160
48
480
16
-336
-560
-112
416
-160
208
-112
-240
-96
128
-176
-16
64
-112
-32
-256
-240
-16
-288
-288
16
-16
32
160
192
-80
-128
64
-176
0
176
80
224
224
-176
-512
-80
-96
-32
448
144
48
128
224
192
-288
0
-160
-384
-384
192
-96
-400
-160
112
256
0
128
80
-176
96
-160
-256
-432
-496
192
272
128
-352
240
416
272
16
176
-176
-224
224
-80
64
128
-64
16
-304
32
-32
-368
-144
-240
-464
160
-48
-112
-256
-384
-352
224
320
352
128
-256
-448
-368
-464
-320
-16
384
48
-128
-112
224
416
192
-144
64
-272
-256
112
192
-16
128
-96
-304
-320
-112
-96
128
48
-192
-464
-64
64
112
-144
80
640
304
-32
288
-352
-144
-528
-192
352
192
160
128
-144
224
240
-32
208
-32
-528
-432
176
-384
-480
-48
96
-320
-416
-64
144
176
80
-240
-192
320
352
-160
80
240
-32
-80
64
560
176
-128
688
416
336
304
-176
-352
288
496
160
320
-64
-256
224
352
16
-224
-80
-64
512
336
-224
-288
0
96
272
192
48
128
48
0
304
288
176
-96
64
112
-128
16
-16
-160
-112
272
336
144
-304
-352
-224
-432
-432
-32
288
80
-96
-208
-272
320
352
224
-16
-112
112
-80
176
208
208
-96
-16
-48
-112
416
-112
-544
-528
-656
32
-32
-352
48
192
416
720
480
448
464
224
-48
-224
-144
384
384
80
-368
64
128
-416
-304
-160
-544
-480
-256
96
-448
-496
-16
-256
-416
-64
-144
-144
-320
16
-16
-16
-112
-32
-112
-16
128
144
-16
-272
176
0
-272
288
-288
224
304
0
128
-64
-560
-384
16
224
-16
-592
-160
240
240
-176
-192
32
-112
-192
160
576
288
160
720
160
-208
-144
-144
64
288
112
832
496
240
96
448
-16
-112
208
368
-128
-224
-64
144
288
96
-368
-160
224
-96
80
80
-48
-64
400
-112
-336
-80
-160
-224
64
-480
-256
-432
-352
-336
80
32
-112
-176
112
144
-336
-336
-96
-96
16
-48
-48
-128
-320
-48
640
-80
-208
32
-80
-480
-592
-576
-128
144
240
-224
-336
-48
128
-16
-96
288
-112
-512
-560
-336
256
-224
-16
160
448
320
336
96
96
-48
-208
192
-96
-288
-160
-144
128
208
208
224
48
-96
-80
-48
80
256
-48
-32
-128
80
240
272
-304
-368
-256
128
560
256
-80
-160
-336
-176
480
560
176
176
160
-224
-416
128
-80
-464
64
240
576
-48
-192
-48
-176
0
-160
-16
-144
-208
-256
112
144
-48
320
560
128
48
96
-64
-240
-16
-96
-176
-16
-208
-480
-304
-144
-96
96
-96
192
448
16
-512
-288
-32
-336
-48
352
752
416
176
-400
-224
416
272
432
-384
-352
208
112
-64
-112
0
-176
-96
320
144
-288
-80
32
0
-16
384
192
144
-496
128
464
-80
48
432
80
-592
-288
432
-336
-304
-80
-240
-128
-128
-352
-480
-144
-272
208
528
80
-432
80
272
-496
-848
-432
-256
16
-64
-336
16
-16
-256
64
-128
-368
-240
192
32
368
-48
-240
-224
416
0
128
240
0
-576
-224
304
64
-112
-240
-176
-784
-720
-528
-336
-224
304
80
-160
-80
16
-176
-512
64
720
336
-16
-320
-112
-48
-224
-176
16
16
80
-80
-96
-416
64
-304
-240
368
0
-48
160
144
-128
-64
-80
-96
224
304
368
-16
-304
-208
-96
-256
-256
0
336
96
400
304
-112
192
176
-16
240
-112
464
288
176
-288
-320
16
-192
224
-256
320
304
80
-240
-224
-80
32
-272
-64
144
-192
-320
-192
-160
48
-80
-16
208
160
144
384
368
448
464
256
48
112
192
-224
0
-160
-224
336
-160
-48
352
-240
-48
272
192
-112
-32
96
320
96
112
176
-160
-160
-32
176
-112
-160
128
-128
-192
112
-64
-64
352
-352
144
-64
-160
-192
-96
-256
-48
304
304
144
352
-64
-64
-80
-128
-96
-96
-64
-160
-224
-160
-176
-352
-336
48
-16
-288
64
64
64
-144
-832
-544
-368
-224
-96
-176
192
256
224
80
-496
-288
-176
512
352
176
-592
-400
-144
-288
-112
-144
-48
96
-144
-320
-256
16
32
192
-144
-240
-80
-192
96
192
-320
80
96
0
240
272
192
272
272
208
384
160
96
64
-64
192
272
352
-384
-80
64
-32
-160
-16
208
320
160
-64
16
0
-272
-64
336
32
-160
160
-96
-192
-368
-352
-32
-160
0
-48
160
-64
160
192
288
-400
-304
-256
-16
-160
-320
-176
-384
48
-48
64
-224
-224
-80
-192
-160
0
-16
224
0
-48
224
64
176
96
-224
64
-16
352
-224
-624
-800
-544
-608
304
48
112
512
368
-496
-176
16
-192
-368
176
528
704
0
-544
-416
272
224
-544
-416
-16
-112
-80
-160
-528
-128
240
224
-528
-432
48
128
32
288
336
256
544
0
128
-64
192
128
304
256
240
-304
-208
336
320
-144
-144
272
224
320
128
288
208
48
448
128
176
272
16
112
-32
16
-352
-528
208
768
208
464
-176
-128
-208
-32
464
288
192
-128
-608
-592
-288
-96
112
672
640
448
352
-80
416
-256
112
304
-48
-64
-496
-144
96
64
80
-128
-384
64
144
176
208
96
208
160
-32
-64
-240
-416
672
320
32
320
592
368
-128
64
64
-160
-96
-256
-144
-128
208
544
384
-160
-16
288
16
-256
-240
128
256
304
-304
-160
-64
-64
0
304
0
-256
-544
-448
-192
-48
-256
-176
-272
-32
-240
464
192
-96
0
96
256
336
0
-80
-112
-144
-336
-176
-192
-144
160
176
-16
-16
160
256
0
-48
224
-256
192
304
-240
288
544
-544
-368
192
64
-32
16
16
-176
64
288
96
176
320
528
336
416
400
48
-176
-16
-48
496
384
384
224
256
544
432
80
-96
16
48
-384
-96
192
-480
-256
160
272
256
-96
-272
-80
-112
560
480
208
560
384
112
192
496
112
16
-112
-480
-448
-400
-352
-144
-16
48
-432
-224
-336
-224
208
-80
-368
-128
-176
-336
-64
16
496
112
-144
272
-208
0
96
512
592
256
-80
-80
-48
-144
-208
16
224
304
32
-32
112
-48
48
-176
64
96
320
0
32
272
-16
-320
-336
-320
-112
64
-432
-336
-112
-192
256
192
224
240
-464
-1088
-448
-80
0
-256
-112
-32
-304
352
368
-352
-400
-304
144
-224
32
16
-128
352
160
-112
64
448
320
-400
-320
64
32
256
48
240
352
-80
16
480
880
304
48
80
0
128
224
-32
-64
-656
-528
-336
-112
-176
-144
-80
80
-128
-32
-176
-384
48
80
-96
-256
-208
-128
-240
-416
-656
-288
-192
144
336
-32
-352
-112
-64
-304
-416
-112
112
96
112
-576
-128
0
-416
-448
-368
80
208
-592
-432
32
-144
160
-256
224
144
32
96
304
400
16
-128
-240
-448
-48
0
16
-288
-272
-128
-192
-144
-208
-416
-288
-240
112
176
32
-64
272
-240
-352
-384
-320
496
624
160
-432
-688
-96
464
-144
-240
32
224
176
384
240
-128
-336
160
0
-320
-576
-400
-256
48
-304
-304
-32
464
208
288
144
0
-112
272
-144
-240
-224
-368
-256
192
0
-144
-320
-304
304
384
-288
-336
-48
32
-352
128
160
208
48
-240
64
416
32
288
16
128
432
192
272
128
48
432
192
272
224
16
448
336
-128
-224
-16
-240
-288
224
48
-176
-416
-80
144
80
432
-112
-288
-112
288
0
-48
-224
-304
-128
16
48
176
208
224
-288
-528
208
432
224
112
176
-400
192
368
-32
-352
-464
-128
48
192
-208
-48
416
192
32
160
-16
288
448
288
96
80
16
-368
-256
576
560
128
-272
32
256
-240
-192
-128
32
144
-448
-128
160
480
-272
32
-96
-560
-192
-352
-432
128
-48
-112
-112
-288
-352
-128
32
304
384
-192
-272
368
272
-320
-224
96
96
-112
0
160
-16
-32
16
-240
-112
256
-32
-176
432
80
32
64
32
16
16
112
-176
-432
80
-128
144
144
32
128
112
48
-80
-32
-496
-336
-304
64
96
432
512
464
208
-176
-64
-80
-304
-240
256
272
240
320
-16
-112
144
-16
-400
16
-160
-224
-96
240
-256
-192
-32
224
320
288
224
64
-176
-160
-336
-80
288
368
-224
96
224
-96
96
-128
96
-320
-560
-336
-272
-256
-16
-416
-352
-320
-384
368
336
240
-128
64
-48
144
224
432
304
-96
80
208
144
-64
-512
-352
-336
-128
-224
-224
320
336
-224
-528
-592
-16
-48
-224
-32
-432
256
416
-144
-64
192
128
-240
-192
-320
336
288
320
416
304
224
368
272
480
288
0
-192
-272
-288
576
-256
144
512
-96
-320
-272
352
240
48
128
192
208
-352
-288
-336
-80
-96
-192
64
-352
-192
-48
-400
-272
368
256
-480
-416
208
368
96
48
-304
16
368
416
-128
-192
224
112
320
96
-80
-176
-256
-464
-208
0
-64
-112
-160
-96
-224
-368
-48
-16
-224
-96
432
768
256
272
-16
656
384
-112
192
-192
-32
64
96
-224
-192
-624
-304
-160
-256
-288
-256
-432
-32
352
256
-16
64
-384
-720
-704
-128
-160
224
48
352
384
-256
-176
128
272
48
224
256
16
-368
-208
176
688
-32
-272
16
32
16
240
320
224
16
-48
96
144
16
144
240
208
416
-96
-336
-464
-224
112
176
-528
0
-160
-304
368
480
-16
-48
-192
336
-80
-432
-176
384
320
208
496
320
-240
-112
16
-160
208
-432
-208
320
400
-64
112
-208
-112
48
16
-400
-160
-256
-352
0
80
128
64
-80
-416
-448
-400
-384
160
112
-240
-544
-416
48
352
352
208
16
128
320
288
160
-560
-400
0
32
96
112
48
-400
-256
-48
176
-176
-256
-176
-64
-128
-272
-224
-192
80
208
-208
-432
-512
-16
-64
-512
-96
64
256
288
144
-128
-224
304
416
464
-64
-64
496
464
144
112
-32
-192
-128
80
480
96
-288
-288
96
592
192
32
528
320
-384
-80
-480
-384
-128
672
624
144
-80
224
80
32
128
-96
0
-304
384
144
-192
-96
192
240
-48
-16
128
-640
-400
-64
176
384
-192
-96
96
-96
-336
-384
-48
304
-112
-96
-192
224
0
-240
-272
-64
160
48
224
80
-288
-176
-48
-592
-464
-256
-464
-144
752
288
416
80
-112
-336
-64
-272
-560
-400
208
288
512
576
352
288
-384
-592
-32
416
-32
0
192
32
272
-96
-416
-176
384
304
256
-368
-224
112
-96
0
608
768
-96
-480
-576
-656
-224
208
-256
-128
64
96
432
-96
-32
528
352
736
320
-80
-464
-32
144
-752
-336
112
-208
-208
-336
-144
-256
-160
-576
-208
160
48
144
-176
-176
0
272
304
32
-544
-496
-384
-256
288
-192
-208
16
-64
32
32
-80
-144
128
416
32
-176
-304
-240
-16
16
-144
160
240
-304
-224
-112
0
272
208
-176
-224
-656
-128
-192
-192
64
432
-176
-160
64
512
144
-304
-208
-112
-304
-256
-208
-192
-80
-272
160
192
32
-464
-304
-320
272
-144
48
352
240
128
-480
240
-320
176
432
304
-192
-144
0
-16
-448
-176
0
-80
0
160
464
128
-48
128
-96
352
320
320
256
-112
-80
-96
-352
-464
-512
-320
0
-64
112
144
640
304
-64
528
368
80
-80
0
-304
192
208
80
48
160
-320
-80
48
320
-48
-448
-176
-352
-272
-240
176
96
-16
-80
-496
-112
144
32
-128
-320
-192
96
-112
-400
-176
16
0
176
256
96
-288
-464
-80
192
-16
-208
224
192
-384
-48
160
80
400
-48
-32
240
80
96
-16
-144
16
-176
-16
272
128
32
-48
0
208
224
-96
240
192
176
160
-48
-96
-384
-112
-256
0
-32
-112
192
192
144
-48
-304
-336
-272
192
-128
-240
-176
80
304
-144
288
160
80
208
-368
-160
128
-112
-48
80
288
400
0
352
-48
-80
80
64
-192
-240
-288
368
192
-224
-416
-208
-336
-64
-240
64
160
128
128
224
144
288
448
96
-320
-112
32
64
128
448
544
-64
-64
16
208
272
288
-96
96
-272
0
352
352
208
-128
480
160
-80
-272
-160
336
-128
-96
336
272
-16
-176
176
48
-16
128
80
80
64
-400
-224
64
-128
-320
-560
-320
384
176
-144
-432
-144
-576
-208
320
160
-544
-240
128
-320
160
64
304
64
272
160
-48
192
-64
-144
-64
48
144
128
432
320
304
-96
-512
-192
192
-48
-16
240
128
-16
176
416
-208
-336
-368
-288
-144
112
32
-48
320
-16
-240
-64
272
288
144
400
256
96
656
160
-16
224
304
288
0
16
288
-288
-352
-176
-464
-512
-208
96
-32
-32
384
240
-176
96
-336
-192
-192
-352
128
-288
-560
-272
368
-160
384
416
400
-64
176
208
-176
-160
-176
-208
128
416
256
-176
-16
352
-256
-256
80
240
112
112
-192
224
160
16
-272
0
80
128
352
48
0
-96
-96
96
-224
-480
-464
-240
-128
192
48
160
160
-112
-128
-240
-384
-624
0
-144
16
48
-64
-432
240
224
-112
64
352
272
96
-432
80
336
80
-416
-560
-112
96
0
-64
-48
272
208
208
96
16
-48
-32
-336
464
48
-160
-192
240
48
-384
-48
144
48
144
384
80
128
368
96
64
288
48
-544
-256
0
272
320
352
64
368
96
-144
64
-64
208
-224
-192
-240
160
256
-96
-144
0
-96
-160
-32
-112
-384
-80
-16
64
-128
-928
-512
-272
-288
16
160
-160
-304
-336
112
-16
288
256
-304
-32
-16
272
-176
224
-16
-608
320
160
-384
-64
-240
-416
-512
240
464
640
192
-128
-432
-320
-80
-64
-80
-144
-32
-176
0
-80
128
-256
64
320
-48
-176
-288
-288
-208
528
288
-128
-80
-64
160
128
-480
-96
-400
-304
-192
112
112
480
336
48
-32
-176
272
816
720
208
-288
272
-176
-400
-272
-320
-112
-224
336
352
-96
-80
-160
160
96
48
-192
-368
-176
-112
16
-288
-208
0
-64
128
-16
176
-368
-560
-176
-368
-608
-560
-352
-160
0
-32
16
-128
-368
-192
144
336
80
304
64
-224
-128
-160
-224
-208
48
128
-96
208
208
-224
-368
-688
-768
32
224
240
48
-144
-32
304
80
448
432
-32
32
80
112
-240
96
-432
-384
224
304
-48
-320
-128
-112
16
48
432
512
32
208
16
-192
-48
-112
-48
-272
-336
176
-80
-288
128
-64
240
-112
-64
256
-224
-208
-320
-464
144
160
320
96
-144
-384
-272
-480
-352
-112
-160
-160
-64
-48
-16
-256
-64
-112
48
-256
-368
-176
-288
-352
-112
144
-144
0
32
-16
-16
-192
16
-160
256
560
576
320
64
320
240
64
-16
-96
64
160
-144
192
48
-224
-160
320
-96
64
208
192
64
160
-16
-400
-448
48
192
512
256
416
-48
16
192
16
-128
64
192
128
-208
-288
-32
464
320
16
-400
128
-368
-320
304
480
256
288
448
176
-224
32
752
288
272
16
0
-256
128
160
-432
-336
16
-144
-432
-208
-352
-112
-160
176
192
112
240
192
256
-368
-80
304
352
64
192
48
-16
-352
64
224
-96
-368
-192
-288
-192
16
112
176
512
400
288
-16
-96
240
400
144
-144
-224
-112
-240
-416
32
-272
-128
-480
-160
0
0
128
-16
336
-16
-48
-96
192
256
800
592
176
16
512
400
96
-96
352
352
48
224
240
-240
-64
64
32
-144
208
144
64
416
240
256
0
96
-336
-176
-128
-128
-192
-48
80
-288
-480
-496
112
224
176
368
80
-32
224
128
-336
-112
16
96
240
-160
-432
256
320
16
-16
160
272
144
96
-128
80
64
384
-64
-32
-288
272
288
80
-144
-432
-176
288
320
-80
160
720
384
208
-16
-192
-176
-16
0
-96
-48
-128
48
320
16
-288
-320
-80
-272
240
64
-224
-496
-352
-208
-112
-240
368
-48
-272
-96
512
272
224
-64
-304
96
-192
-240
-192
-272
-32
-16
-336
-352
-112
320
16
-96
400
144
-96
0
-112
48
272
-144
-304
-624
-496
-496
-128
32
-208
208
240
320
-80
-432
0
-128
-192
64
-176
-144
-64
656
432
368
176
496
464
400
128
-144
0
400
560
-48
64
272
224
128
-352
176
144
-32
-304
-320
-512
-304
400
576
432
320
-224
-144
128
544
208
-16
352
48
-832
0
320
416
608
320
-176
112
224
-48
-176
-112
-208
-288
64
224
-32
16
-272
-48
-256
-144
176
32
192
144
384
64
-256
320
240
16
96
352
464
160
-352
-160
-64
272
-48
-16
448
240
0
16
16
160
176
320
0
-400
-272
-32
0
288
480
512
464
272
304
608
240
-32
-128
192
528
16
96
128
96
64
32
-320
32
-96
-32
-48
80
240
80
176
112
64
-240
-128
32
384
256
160
-128
-112
128
-240
-128
112
32
256
64
128
640
336
672
160
48
144
224
-16
-64
-352
208
240
256
304
304
272
112
16
128
112
0
-80
-96
-64
128
384
-224
144
112
0
-192
288
-96
-528
-48
0
-464
-16
320
-64
-80
-240
-240
-336
-32
64
-400
-544
-320
-640
-336
320
-272
-96
-176
-96
128
-192
-144
160
336
144
-160
-128
96
-80
192
160
-96
112
144
208
-176
-576
112
-80
-16
64
-352
-224
-368
-224
-208
112
368
192
-320
-512
-64
-224
80
96
16
-160
-528
-224
-96
0
288
224
-64
400
496
288
-96
-320
-448
-288
-112
-80
-32
16
400
352
-208
-304
-32
256
160
112
-32
-144
-576
-224
-112
544
368
256
-336
-32
-32
-48
-352
96
288
176
80
-304
-400
-288
48
0
-16
-112
96
-544
-48
352
256
352
288
-224
-208
144
16
-176
-192
0
-80
-368
96
144
-112
-48
-544
-384
-320
-144
-144
80
-256
-16
176
432
-192
-448
-448
-240
-208
-80
-144
-416
-144
16
-352
64
16
-96
-64
-304
0
320
0
-528
-448
-128
384
288
80
-352
-176
32
-32
-144
-64
96
-80
-112
-32
96
-288
-768
-144
144
32
-32
-112
-160
-288
-112
96
-192
-80
176
-304
-288
-96
-624
-368
416
128
-112
16
-160
-352
-368
-64
-272
-272
-416
-224
-416
-304
-112
-128
-128
-336
-32
-96
-128
-336
-336
-160
-544
-336
-16
224
-224
-352
-192
112
736
-96
-416
-464
112
272
448
64
-112
-48
128
176
-240
-336
-368
64
256
-176
-176
-416
-320
-320
144
192
48
-192
-432
-208
96
480
128
336
608
560
256
256
368
-288
16
64
0
64
-80
-16
64
-224
-64
-112
-128
304
-96
-112
-416
-400
80
80
688
480
192
160
224
160
48
176
-32
16
-96
192
800
48
-224
-48
-224
192
96
224
432
304
320
384
-32
-336
-352
-272
-432
512
496
80
-160
-368
-208
64
368
112
-208
256
-112
-224
-32
288
-112
304
272
-112
-272
-256
-112
320
-16
-80
-224
-80
0
-512
272
-384
-704
16
32
-192
224
192
176
-480
-160
336
128
256
0
-112
-256
144
192
-112
48
208
48
-16
-144
-80
-64
-272
-272
-80
-496
-592
-256
-16
-96
-192
-320
-352
-384
-272
-112
-32
0
192
256
416
32
-16
592
-80
-560
32
544
96
-112
-32
256
304
-208
32
64
192
96
320
416
256
-160
-208
-96
-160
0
-96
-176
-224
-448
-192
464
320
-16
-32
-144
16
-288
272
-288
-448
-192
176
-48
384
288
-320
-224
432
96
112
32
-592
-16
240
96
-144
-80
-176
48
0
192
16
128
400
-32
-144
-48
32
-192
208
112
496
416
64
448
272
112
-128
-192
-112
-64
16
112
80
336
288
48
224
224
240
400
-80
512
240
-48
32
-128
-96
-160
0
-176
-352
-112
-144
256
352
144
-48
224
64
48
-32
-192
-432
-32
-80
-160
-16
320
144
176
-16
-224
-128
48
-112
368
128
-352
-240
16
272
-32
48
48
0
0
112
-400
-80
-160
-96
192
112
416
240
-32
-384
-352
-512
-48
176
176
368
192
-304
-304
96
32
240
96
48
112
320
352
352
-144
-384
-128
-192
-192
-128
32
-208
-16
-224
-256
128
-112
-16
-64
16
-176
-80
-384
-32
-272
144
304
128
384
112
32
128
-144
-272
64
-464
-320
128
112
48
-240
-48
208
144
-96
-176
160
512
496
64
-144
-224
-32
-48
-96
0
-64
-192
-192
-160
-304
160
128
-112
272
-400
-464
-464
-448
-112
192
-112
240
80
32
480
224
-384
-96
288
-384
-96
-320
-64
16
-96
160
-80
192
0
416
608
112
-608
-752
-448
-496
-352
-240
-96
48
288
576
80
-224
-176
-48
-640
208
320
-16
-224
-368
96
64
160
128
736
608
80
-208
64
-112
-352
-304
-240
-432
-112
96
272
368
112
-144
-96
32
-32
320
0
-112
288
32
-208
-176
336
176
-368
400
544
160
272
112
-64
-592
-240
16
-224
64
400
272
-432
-304
240
96
-16
-144
272
464
-160
-240
-96
-320
-128
-400
192
432
240
96
256
80
384
640
480
176
80
16
-128
-288
-448
-256
160
-160
-112
-48
400
-16
-96
336
-80
160
-112
-416
-512
-432
-128
96
208
32
32
-256
-272
16
432
304
304
176
-16
-64
-192
-256
0
-96
112
352
432
384
-240
-80
272
464
512
64
-32
-464
0
512
-48
-208
416
288
432
464
160
96
-320
48
-256
256
320
-320
-128
-16
112
32
-240
-112
-144
-432
-352
80
208
176
-192
-544
-320
0
-496
-432
128
-48
80
-80
160
272
-16
144
160
336
352
-48
-144
-176
16
64
-96
64
192
64
336
240
112
-112
-464
-304
64
-192
-272
-368
-512
-496
-112
-32
-336
-272
-176
-144
-16
-112
-512
-224
32
240
256
-128
336
64
-192
64
48
160
208
240
208
64
-352
-592
-64
128
448
640
-64
-784
64
96
-640
-320
208
144
-224
-128
96
-160
288
336
736
304
176
-64
80
-272
-288
160
112
144
0
272
-64
0
-384
-384
0
288
336
-240
224
-208
-272
176
-144
80
-80
176
64
96
-160
-128
-304
-160
-32
352
112
-304
-272
160
528
432
-16
48
240
80
-128
256
-16
-160
32
160
96
256
192
304
16
-416
-592
-512
-224
416
256
336
-160
-16
160
256
48
-192
16
0
-336
192
-272
-304
96
-32
384
240
-64
-256
-240
-384
640
-192
-336
-240
-80
-480
-256
-320
-96
256
32
-32
-160
-144
-64
-240
192
-48
128
80
272
32
-128
-336
-80
256
-32
-128
-288
64
224
496
80
-416
-448
-448
-272
-480
-368
-336
-528
-208
-224
-16
-400
-224
192
224
128
-336
-144
-384
-368
48
0
-336
-320
-176
-320
-272
-672
-464
-128
-256
-16
304
176
-128
240
-32
-112
-64
16
112
160
-224
-48
-240
-128
0
112
224
32
64
320
416
-128
-128
-96
208
128
-416
-144
-64
-352
-128
-240
96
192
-64
-112
-400
-320
352
-96
64
-48
-80
-256
16
128
-32
640
512
64
400
208
384
608
-144
16
64
0
352
80
-208
-336
-288
-448
0
-224
-256
144
144
256
96
-16
-592
-224
-272
-80
-256
224
-32
-320
-96
-112
-416
-64
160
384
512
240
544
368
416
-64
144
160
288
304
64
48
144
-320
-144
208
-80
272
-32
-272
-16
-224
-48
-208
112
16
128
-48
-96
64
176
-144
-336
32
-64
32
-160
-352
-208
272
288
-16
-176
-176
0
-208
-128
128
0
-704
16
144
256
48
-512
-400
224
400
-16
-208
-192
-336
0
208
-144
-112
160
240
96
-144
-144
-32
-144
112
-16
176
-272
-208
-224
-128
-160
432
144
80
256
-32
352
-32
-592
80
-160
-368
160
-192
0
32
32
112
64
816
880
48
128
480
224
-32
-288
-240
-48
96
-192
-272
-224
64
-32
432
448
112
-368
-224
-64
-224
-272
-336
-256
208
320
432
624
448
528
416
96
256
-80
336
160
0
192
-32
544
576
240
256
384
192
-144
176
544
96
-256
192
-256
-128
784
400
128
160
640
544
176
-416
-752
-176
464
288
-64
144
256
400
256
48
48
96
-128
-368
-240
-208
-400
-192
-512
-144
496
48
-272
64
-272
80
-208
-96
16
-240
-80
96
32
336
304
80
96
-112
432
48
128
128
0
32
272
-160
-128
80
688
336
144
112
272
96
-272
448
16
-272
-352
-48
144
416
496
32
-80
-48
240
16
224
-256
-160
-160
208
240
192
-384
-176
-80
-368
-16
-368
-192
-80
-160
-160
-224
-320
-176
0
-144
144
320
96
80
160
128
128
-48
384
-336
-192
-48
-448
-64
-144
128
-208
-128
-144
240
512
272
176
-240
-240
-256
-112
176
640
464
272
240
32
160
-160
-368
-80
-80
-304
-64
-304
528
208
176
176
368
528
208
-368
-96
320
48
-16
-272
32
112
-256
-64
-320
-624
-64
-64
-144
128
176
256
-368
-704
48
48
192
-144
-128
-112
-144
304
-96
-256
-672
-224
-208
-256
-208
64
-144
-96
-144
32
32
-192
16
32
-112
0
32
144
96
16
-80
-112
-160
-704
-112
-496
-544
144
496
-96
-528
-352
-416
-448
-64
112
-96
32
496
352
-32
256
224
432
224
-320
-48
128
-288
-656
-48
368
-128
-160
560
368
0
224
288
128
304
-304
160
352
144
-368
-432
112
224
16
0
0
-288
320
160
-208
-496
-208
-128
-208
-320
32
176
128
176
448
320
160
-112
-496
16
320
-64
-224
-496
-160
112
32
160
-288
-496
-96
-160
288
256
-80
592
192
-416
-112
272
160
288
144
272
80
-144
0
-48
192
144
-384
-128
240
208
80
-400
0
-112
240
-240
0
64
-208
112
224
144
-384
-16
688
368
208
96
80
-320
-80
0
-272
-400
-304
-112
240
-528
-320
-336
-368
-144
-32
416
112
-288
-224
512
304
-304
-16
-80
-224
64
144
112
-336
-208
-256
0
-128
-64
-112
-704
-480
224
144
-48
144
240
48
-160
-320
-432
-304
-160
32
32
-640
-128
-64
-416
32
-304
-288
48
-80
-304
-224
160
64
128
-16
0
368
-96
-256
240
-32
192
288
128
-32
640
512
512
832
640
-144
-176
416
0
-336
-320
-192
304
-144
-480
-224
-80
192
224
-96
-112
-224
208
48
208
-16
80
384
384
192
-224
16
320
16
-16
-176
-96
336
336
0
-64
16
-48
-48
608
-64
-544
-1152
-992
-144
272
-64
-128
-352
16
320
352
-448
560
-48
-96
-144
-96
112
-272
-304
16
0
32
-208
-256
-176
240
128
320
592
528
0
288
128
240
128
0
-64
-32
-80
-16
-112
-192
-48
16
-240
-48
48
160
144
-32
-80
-320
-576
-176
256
-384
-272
48
96
-176
-304
-256
-256
-224
560
128
128
240
-80
-368
112
16
-176
-80
96
288
64
-304
-192
208
-112
-416
-352
-32
-224
-320
96
256
352
176
112
128
-16
-16
-80
256
192
48
144
112
352
144
272
-32
-192
-112
-208
-192
416
-208
-400
336
1056
480
-48
-416
-432
-192
-128
32
176
192
304
16
-496
-752
-160
-304
-208
-32
368
224
32
-48
-16
-288
-192
-256
-32
336
176
-240
-144
128
0
48
160
-272
-432
256
16
256
80
0
160
0
-16
-528
-448
-160
0
-288
64
64
256
96
0
-224
-304
-32
416
-224
-112
32
320
224
160
-16
-320
96
416
384
336
-16
-192
144
-352
-240
320
96
-112
-336
-96
-352
-288
0
400
-176
-80
224
432
336
-240
-112
176
128
-48
-16
-96
-304
-128
-64
-176
-176
176
384
208
-256
-32
-272
-224
176
-208
-320
192
16
-560
-400
64
352
-32
48
-112
64
208
-32
160
240
192
128
-32
-96
-272
-256
-704
-432
-368
208
-64
-160
-576
-400
-288
128
176
32
272
0
96
-80
-144
-432
-48
256
288
272
-176
-752
-816
-592
208
528
0
-96
0
-48
-592
-368
64
32
320
192
80
464
240
-64
-112
320
432
144
-80
-16
48
-272
176
-160
-544
-144
176
16
-336
-208
-240
-80
400
32
-512
-416
-240
256
-48
-48
304
160
-368
-272
160
-128
-96
-112
-368
-224
-48
208
80
-96
336
688
256
16
-128
96
496
288
-336
-416
-176
-16
352
144
176
-48
-112
16
112
304
64
-128
-464
-416
-176
-224
-448
208
64
144
112
144
368
688
624
640
352
512
304
-224
-160
96
432
784
832
384
-112
0
320
-208
208
256
-64
192
-400
-608
-256
-416
80
144
-96
208
352
-176
-400
16
-48
-80
32
-240
-160
112
32
-80
16
16
48
-64
112
-32
160
-128
-240
-224
-80
-400
0
-80
-160
160
0
-96
-448
-16
-224
160
240
48
48
112
256
-272
-256
-96
-208
-496
-496
-320
-224
-208
-96
-176
-368
-256
-48
112
288
352
32
-48
-144
-400
-64
-432
-288
16
-320
-352
-144
304
-80
0
-112
464
368
-160
-48
-48
112
-80
80
-96
-352
-256
-144
320
-16
224
368
80
-272
-112
96
-32
-16
-224
96
272
-16
256
96
192
144
-112
-416
-688
-224
-16
-96
-176
-208
160
-32
-256
-176
384
112
-208
64
-112
224
288
256
144
-48
-704
-352
-48
-96
-288
-224
-144
-560
-544
-128
-208
-16
-176
-96
-80
-240
240
128
224
224
48
-96
96
256
464
144
-272
80
-288
-64
-240
-240
-32
-320
-512
224
-112
-272
-64
-272
-400
80
-96
-32
48
-144
-80
-176
-560
-240
768
416
-64
-240
-144
576
352
128
96
176
176
-224
-32
144
240
304
128
176
320
96
336
-48
320
-48
0
-192
-432
64
48
80
32
-512
16
-240
-176
160
-208
-288
-48
0
-224
112
16
-528
-64
-288
16
16
-288
0
176
288
-240
16
352
-96
-288
-32
-160
-576
-272
176
-224
-336
64
-144
32
480
48
96
80
400
416
-112
-416
-256
32
-16
80
64
-32
-112
-672
-512
-448
160
336
-192
-128
128
496
160
-160
-304
96
208
400
432
160
-112
240
48
160
384
-432
-112
-160
64
352
704
672
608
-464
-240
48
400
208
48
96
32
-256
-160
64
336
304
192
400
416
-128
464
256
-368
0
416
-320
-192
-352
-816
-752
-512
0
-304
240
320
128
-240
-224
-544
-496
-384
-368
-112
-128
-96
-272
-544
-128
320
224
48
0
336
128
32
-240
-336
-816
-32
288
-304
-192
112
-128
-224
80
304
-64
-208
-128
-256
-384
-304
-128
528
64
-112
496
96
144
304
240
544
432
-160
-144
-16
-336
-368
-400
-480
-96
-96
208
64
48
160
304
48
-144
0
-304
-96
-336
0
112
-320
144
368
208
208
496
368
288
-176
304
176
-160
-128
96
-48
-160
-112
0
-64
0
128
-304
-304
-400
96
464
288
32
144
176
-240
224
688
384
-32
-272
-224
-240
32
288
176
-64
-304
-512
-240
48
32
-288
-144
112
224
80
272
496
80
-128
320
400
208
-32
416
192
128
320
352
176
320
144
-112
32
304
320
-176
-416
-352
-160
144
-144
-368
96
-304
-352
16
160
192
256
832
640
240
128
-192
-304
96
-336
-224
352
224
-384
-608
-320
336
144
-80
80
-48
-176
-192
-288
-448
-480
-32
32
96
16
496
-128
-192
400
352
-192
-368
128
-528
-208
208
400
-240
-208
-32
80
368
128
128
128
-128
-272
-224
-32
-240
336
-16
64
384
224
208
208
48
400
512
-32
80
304
32
0
-160
-352
-208
48
-192
-208
-240
448
592
160
-352
-496
-64
96
192
-320
-288
-48
48
-192
-32
384
48
-416
-400
16
288
-64
112
-384
-624
-480
48
-48
96
464
256
144
368
128
-432
-304
96
192
304
-80
-192
-240
-96
112
-80
160
-128
-304
-80
-208
-432
64
-256
240
352
80
480
128
-272
-16
192
384
304
160
128
-144
-448
-400
-112
16
-112
48
160
-208
-256
-224
-112
-368
176
-224
-432
-48
-496
16
192
224
304
384
384
-96
-528
-512
-432
-128
-304
-144
-352
-240
-208
144
-32
-96
96
288
496
96
368
528
208
-224
-192
-432
-384
-496
64
464
96
-176
-288
-320
80
192
208
240
32
-464
-400
-208
320
304
80
80
0
-80
32
480
368
112
448
240
80
-32
96
-16
-112
480
208
-304
144
-304
-512
272
192
-272
-416
-272
176
-128
-144
160
64
144
-224
-176
128
224
-112
-128
0
224
-272
64
-304
-16
16
176
64
272
208
96
-560
-128
-144
-256
352
128
-384
-400
-400
144
256
-448
-624
48
336
-160
160
-64
-96
208
16
-592
-688
