1216
1376
128
-1712
-1600
-224
-736
384
1328
768
-784
352
1184
288
-448
-496
912
1104
1072
224
-880
-992
-1296
-192
-512
-368
-96
-304
-208
-1152
-1136
-736
-416
-240
48
160
160
816
-800
-432
-640
-1280
-64
784
928
1088
-240
-1424
-928
-576
48
784
-912
-1520
-1264
-800
-80
1312
896
704
1104
64
464
912
-720
-608
1488
656
416
-224
-784
-544
976
928
-592
368
-560
-288
16
-320
48
-592
-944
560
-1024
64
464
-1104
-1152
-400
288
256
464
544
656
-256
0
480
192
64
-144
160
16
-304
160
-320
-832
432
-704
-384
-1488
720
-64
-1376
-560
-80
0
-224
-592
-528
-720
-64
-368
752
592
-272
-848
256
-1040
208
592
-576
-400
816
896
-784
-560
1360
1152
-320
-656
16
1392
304
160
-880
-528
-1376
-864
-448
560
0
624
192
240
-992
736
720
-1536
-432
320
-544
-352
-448
-1088
832
1152
688
1488
1008
1040
1488
-64
1248
1104
480
480
112
208
-400
16
-144
304
144
16
-160
-480
192
-336
448
528
-784
-160
-384
-208
-336
-112
-96
640
304
-640
-576
48
-736
400
32
-32
-112
480
800
288
-16
384
-64
-384
-944
-1120
96
-256
528
528
-192
576
768
784
528
-144
-448
704
-624
-672
144
1264
-128
-80
-384
-1312
80
-848
-656
-1024
-496
-208
816
960
-1424
-1152
1872
480
624
672
-144
-544
-208
608
-432
-1376
-1296
-368
160
-80
1680
144
-1456
-416
528
-96
-144
-944
-800
-384
-720
-272
480
208
176
752
-1248
-400
-800
-448
80
1024
768
-592
512
1216
-48
-256
1168
720
784
-912
1072
16
144
480
-464
224
416
640
-592
-576
1424
1040
288
-512
544
256
-560
-624
-1616
240
608
-32
448
-208
-336
544
96
544
896
752
-1024
-2032
-896
384
-16
224
672
-32
-432
-800
80
1168
1040
432
176
256
592
16
-1328
-848
-864
-304
-576
-368
352
-1008
-576
-80
352
1056
400
-304
1008
800
128
-736
-416
688
336
224
704
944
1152
-240
-544
160
-144
640
432
496
480
432
144
80
-64
-464
-176
688
304
800
160
1056
1072
192
144
-112
-304
-128
64
-112
-768
272
288
192
240
1328
1664
-960
-1280
-1600
-784
-144
288
-96
304
96
-592
-144
-432
-320
-144
-400
-656
-1040
-512
-832
400
1344
656
560
256
592
-560
256
32
1328
1088
512
912
320
-192
320
-32
-624
16
16
-416
160
-864
48
464
416
240
384
-784
240
1312
-752
-256
-848
-1008
-1664
144
528
-240
480
656
-48
320
-16
240
-400
-160
-80
272
-640
-336
96
48
-48
-912
-192
-432
784
768
320
1088
1184
256
-384
816
1120
-512
-64
16
1776
1152
-224
-352
240
656
-112
-128
144
-768
-32
0
144
208
-496
256
1520
592
-1088
-416
96
-112
-432
-896
-336
-640
-400
-1056
-976
1872
816
-1344
-1168
-496
-528
-528
-976
48
-336
-496
464
352
208
-224
-608
-752
-1264
272
1040
-160
-192
240
-1088
-112
-464
208
848
1152
-880
-1296
-784
-32
-64
-80
112
736
944
448
1280
1296
688
848
176
384
352
-992
-1488
-48
-32
-304
-288
992
256
528
-576
-304
464
976
-112
144
1440
448
-112
-592
112
-432
-1216
-1232
-1328
-848
-992
-144
464
288
144
-128
528
944
1168
176
320
400
-64
624
-480
160
304
-192
-1072
-1120
-1664
0
1088
1152
912
16
480
752
-320
-128
0
-272
-368
1040
0
1696
288
-80
1808
1536
752
48
640
-16
-928
-1456
256
608
-416
-176
704
1872
1248
1328
752
-1216
-272
272
80
-256
-592
-256
-640
512
320
-496
-736
-304
-352
-1328
-800
112
48
208
352
880
-160
96
304
-1472
-272
-272
48
992
1280
656
608
-96
-1648
-784
144
-768
-192
-560
-976
-368
688
144
496
480
-320
16
128
-1328
48
80
752
-16
-96
960
480
-640
-1216
-624
-1984
384
-512
448
1808
336
528
-384
160
-1808
-640
80
-64
-432
-1232
-128
-480
-288
-320
544
1664
336
112
-224
608
1360
784
-944
-256
0
496
496
1152
752
368
1008
624
640
480
-704
-32
1088
464
576
432
976
816
96
-192
896
544
656
880
1488
624
-800
-1120
48
896
592
688
192
656
48
816
384
-128
-608
112
544
512
432
368
272
-80
624
-624
-528
-784
-992
672
1216
-48
576
-160
1040
880
1200
1248
560
176
608
912
800
-496
-496
-304
-496
-528
-480
-1024
-320
784
448
208
-624
-576
464
464
1728
448
-624
-896
0
112
-704
-1376
-288
-144
272
912
288
720
688
832
-640
80
880
240
-1408
-1152
-240
-240
-720
-720
-112
208
-1232
-1200
-192
-896
-816
-448
1136
384
1776
1104
-352
-656
-1152
-960
-816
-1072
-912
-576
-1280
-1280
-1200
848
528
576
1296
816
400
432
32
-368
784
544
-1136
-496
496
432
336
944
992
1376
432
-1056
-1216
448
-864
-1408
-720
464
752
-48
-848
592
-304
112
-256
-864
-208
272
-272
-144
64
1008
1664
944
-400
208
48
320
976
464
128
224
-544
48
-32
-544
464
-256
-496
-128
784
1120
48
864
-96
-208
80
272
1056
784
896
352
-96
-1024
-688
-176
-752
-560
-1104
-368
656
720
1152
-128
-816
560
-160
-304
-16
880
288
-16
464
304
-480
-1008
-800
1344
320
-1008
-864
-544
480
400
-304
-576
-608
-288
-592
128
80
-544
-368
1040
32
-416
384
-848
544
1024
1232
-272
-176
-368
-64
784
880
-608
-1696
-1440
-1072
-848
-624
96
208
16
720
528
-752
-160
-160
-1856
-496
928
96
-400
-1040
-208
384
864
688
-912
-576
0
-64
720
144
704
944
400
1312
880
208
96
-480
-432
-528
496
960
128
400
256
32
-528
-48
288
1088
-544
32
720
704
256
32
-768
-448
384
-560
720
-176
-672
-592
320
752
-512
-1168
-752
-384
-848
-624
-176
-32
960
912
-496
-224
176
1744
1472
656
-304
336
-128
16
352
368
224
432
-544
-544
1056
-480
464
-64
-624
272
256
448
544
640
96
224
-848
-576
-1408
-928
80
96
-544
-208
-704
336
256
-16
944
464
240
496
-496
32
80
560
1136
1712
352
832
816
-96
-800
-544
-496
-80
704
-288
-352
288
-864
-112
-720
160
-544
-464
-992
-176
0
-128
-1232
-768
-208
192
-672
640
576
256
176
-176
-224
224
736
-544
-1392
-480
560
80
-672
-832
-1600
-1584
1120
-848
-1088
128
928
848
576
288
-448
-1696
-1600
-1008
-912
-624
784
-592
-864
848
1296
736
-432
16
864
-1536
-1536
-1008
-496
1456
1328
1008
1280
-560
-720
-144
1216
480
-464
272
-448
-64
-704
912
544
-608
96
48
-960
-16
0
208
400
544
-1232
-528
-784
816
1056
928
704
-928
-80
1104
-400
-848
144
1504
1760
720
384
304
400
144
-128
-224
-448
-144
-816
-608
-720
-592
256
-1120
256
1072
208
-192
-320
368
1104
688
-1360
-128
560
464
-928
-384
336
64
-656
-624
160
-32
96
-32
-528
-1248
-1472
-768
-720
-416
-608
-368
-352
528
16
-576
-176
-272
-624
80
720
-336
-608
-416
320
-224
464
-288
-432
-1248
-416
688
768
480
400
-576
32
896
1008
848
-16
160
-464
96
-384
-752
-16
-864
272
336
352
496
976
128
512
512
224
240
-128
656
1520
992
-144
-960
-928
-16
688
192
464
144
816
1232
896
240
-464
1072
1728
1504
1232
576
720
640
512
-592
-608
240
288
-16
176
64
-1008
-448
-608
240
80
-32
-1120
-448
-112
-432
-1216
-384
352
1392
816
112
48
-448
-928
-448
544
656
0
752
1392
944
1184
192
608
-48
96
784
432
-256
-144
368
880
320
-736
-1296
-1168
-592
-1056
48
-80
-592
-544
288
-64
-1184
-128
32
256
-336
-848
-912
-464
-336
384
64
-192
80
576
528
-1008
-272
272
16
-32
192
-192
-64
144
-288
1216
352
-624
-288
144
224
1088
624
48
-480
-1504
128
1040
-224
-1200
192
464
496
1024
1696
1360
-784
-1056
-16
-448
-624
-304
-256
-416
864
784
-480
48
1488
160
-320
32
1040
336
-320
320
384
864
240
416
-448
-528
160
624
416
688
224
-624
-1648
-1504
224
-624
-288
448
832
-160
784
512
0
-80
-1232
-1024
-912
-544
304
-96
-480
-1680
-1552
-944
-384
400
-1168
-688
-272
-816
-880
-1248
-80
-688
-144
-544
-720
-32
432
-352
-624
-256
-80
-192
-368
-592
448
1536
448
-80
-320
576
144
-384
96
432
1280
816
-528
-96
128
528
144
272
1200
880
-848
-1008
-368
272
-448
-560
-160
144
1184
240
112
-16
1040
832
640
576
544
576
-592
400
144
240
-64
-272
80
-544
-272
-592
-448
-320
288
-464
-144
992
352
224
-48
-800
-288
-96
640
368
-1024
-1360
-80
528
-304
256
928
400
-752
-1248
-784
416
-432
352
368
304
-384
-224
-464
-400
112
128
320
864
-80
-80
112
1040
112
480
112
-848
160
624
704
1152
1008
272
864
288
928
-672
176
-304
-1264
-304
-32
96
672
832
-352
-80
704
1104
800
368
608
48
288
752
32
400
-912
-912
-400
-1456
-816
944
1152
560
-16
-96
240
112
-416
464
-240
-832
448
560
-272
-1536
-80
-112
-240
0
416
864
-608
-160
-160
-272
288
-720
-720
-64
336
400
-16
-1792
-1824
-96
1440
304
96
432
384
-256
-1024
-864
-96
-1104
-512
-176
800
-240
336
-592
320
1600
-112
160
912
848
-176
-336
-944
-544
-336
128
-320
-448
-1312
144
208
256
400
112
224
-512
352
-720
704
1024
768
1008
1312
-592
-1600
-352
-128
-224
-1472
16
192
384
208
432
208
560
992
1504
368
1104
1088
1104
784
336
-208
-400
96
-80
464
288
352
-288
-816
656
-32
-48
-704
336
-528
-192
608
-512
-768
-96
192
-736
-448
912
1216
-1056
-1008
-224
16
-112
368
-96
-1136
-1008
-192
48
-784
-1200
-496
-32
1040
-144
-608
544
1248
432
1296
16
-400
-512
-1472
-1888
-1216
432
544
208
-640
-576
-32
-32
-96
352
608
1440
96
-272
-80
-1248
-608
-432
192
-1280
80
416
192
528
1424
1200
592
896
-320
-592
-448
-1392
-448
480
-864
448
1408
1056
464
1088
1136
704
224
-1152
-368
80
272
-80
128
1072
80
-224
816
1040
-80
272
-928
-688
160
432
1024
32
288
-560
-896
-528
256
672
-224
-2032
-816
-320
-496
-1104
-928
-128
368
-1280
-816
672
512
752
416
768
704
-16
-512
976
1280
848
320
-96
-144
336
-64
96
272
416
1168
720
-272
-48
656
576
-1024
1056
496
-32
-624
976
-576
0
-896
-176
304
400
-16
-16
-336
-240
-432
896
784
640
1424
240
-256
-592
-1072
-1184
-528
-176
-448
-32
576
-480
272
880
1440
432
-192
-800
-384
-1216
-1456
-1072
-96
368
-128
1216
-416
-112
576
448
416
160
128
752
128
-320
-256
-848
-1680
-1328
-1328
-688
464
592
-336
-480
-320
448
-528
-368
-704
768
-160
128
1216
-48
768
-1024
-912
-224
352
80
-176
-512
-448
-160
-1008
-1600
-1072
-528
-496
-304
-1008
-1328
-416
-96
-384
-432
1088
48
-64
624
592
-448
-320
-96
-656
-1056
48
-96
240
256
-112
-832
-448
-896
-256
-480
-240
480
224
336
-416
128
480
128
-192
-688
-336
-1104
-544
-1536
-1264
-432
-464
-592
-640
-944
-784
-704
128
656
320
640
1296
1008
-320
-1712
-176
-528
-496
1216
256
416
-912
-1152
-1120
1376
32
-224
144
704
528
224
-976
352
272
864
800
480
1072
752
1120
736
256
-272
-1344
-176
208
592
-128
640
240
-848
64
256
768
-496
112
-48
-704
-336
-48
64
240
928
1952
864
-384
-336
-128
0
-720
-1376
-1248
-144
1008
800
976
48
-304
80
224
176
-544
64
-96
-80
-464
-112
-144
-288
-320
144
-128
256
-64
992
1936
1360
976
480
400
848
-544
-720
240
-224
112
-976
240
-128
688
464
-848
0
48
752
368
-752
-1504
-512
528
192
288
-32
624
-576
-352
32
960
1216
160
-928
144
48
96
-880
112
192
912
528
-80
-480
-1712
-736
704
1568
240
864
-400
-640
-624
336
-112
-528
-528
1488
656
-1104
-96
-752
1552
-320
-1984
-944
256
1056
1568
1840
896
-448
-704
-528
672
128
624
-352
32
1744
672
-1200
-64
96
176
144
-48
-352
1488
528
512
1328
448
-64
-384
-416
256
672
416
160
-64
400
48
464
400
-528
320
-368
-960
1056
128
-1104
-928
-128
560
608
528
32
608
624
640
-1088
-464
416
416
1008
544
-288
-464
-800
-1008
-80
16
-320
64
-992
-1280
-16
-928
-192
48
48
-1360
96
1072
1200
-1056
-32
16
192
512
-16
352
768
1056
1216
240
-1024
-1056
-720
128
624
576
-304
-368
-208
-672
-192
-528
-736
1120
1008
-1376
-1648
-528
-560
-704
-592
832
-32
208
1104
1360
768
1024
1248
320
-928
816
1104
592
16
-288
496
-48
-160
864
-528
-1008
-80
560
1552
784
-496
-544
784
1568
0
1008
-256
-240
176
-16
-32
400
704
880
1376
320
496
-784
-352
512
-48
144
224
96
-208
-640
-544
-1104
-608
-128
-656
-192
-192
-352
-96
496
672
1200
-96
448
720
48
-272
-320
-144
-1088
-1728
-272
304
832
128
-384
48
144
192
-496
-80
-704
192
-1360
-1056
256
736
32
-880
-336
1280
1360
528
-1328
-624
-208
-96
992
-208
880
448
-96
-1008
-112
560
-1232
-960
64
-1008
-1760
-688
560
1216
1184
400
-624
-752
432
-16
-1856
-128
400
256
-384
448
656
144
-336
-496
-224
-640
-368
-416
-1120
-256
256
-1920
-64
256
-256
-192
-736
-1136
416
416
-1104
-800
208
352
-704
-1456
-848
-528
-192
1072
-432
-736
448
432
-560
320
-336
-1728
-1264
-560
832
-752
-1088
1024
288
16
-496
704
-736
-960
-928
-288
464
464
1104
528
96
144
416
336
1264
560
480
-1056
-192
-160
-16
912
128
320
-48
32
-208
512
416
1728
-480
-1504
-1456
192
192
-384
1232
208
-560
1520
704
464
384
-592
-336
976
-448
1056
816
768
-384
0
128
176
-656
-1056
-1216
-80
-192
0
48
16
512
432
-208
-704
208
1248
-592
-896
-160
-1600
96
-656
-1280
-448
-544
560
-16
-384
-416
32
416
-656
112
-32
-1280
-944
400
-1488
-192
912
-208
560
1264
368
288
464
-496
-544
-736
-1024
-208
-432
48
752
-352
-1200
-128
624
-128
-512
0
-768
-1040
-272
-1184
-1088
-896
-128
-288
-192
-176
-512
-48
704
976
-656
-1056
-512
-1312
-1072
16
-480
-688
-368
-448
-112
624
384
1840
832
-656
-1152
-624
-96
656
160
80
-1824
-896
848
1312
64
-1248
-1248
-400
-1280
-192
-1008
-1968
-1520
-768
-48
832
352
352
-384
-1424
-320
1056
448
-320
32
-528
416
160
-128
-480
-688
-192
128
-448
-352
-160
-80
80
464
-512
-1056
-1280
576
688
752
-256
128
-48
768
912
704
240
-240
496
-288
-528
-128
-304
976
880
240
-976
-1552
-656
-1264
16
480
-1008
-944
-1248
-128
880
-208
-720
16
-208
-1088
-928
-48
368
-80
-64
-352
80
-1104
-1264
-352
64
816
1232
784
912
-400
-368
1120
1216
464
-912
-144
-256
-1152
-464
464
336
784
-64
-224
-560
672
992
192
320
-752
128
-416
560
608
96
656
592
128
320
-64
192
592
-208
-400
-400
-160
-1472
-1760
-512
1136
-112
-80
-240
-336
-208
960
96
1024
880
624
1136
1200
640
-1680
-944
-768
96
1280
-16
-400
-144
-480
-304
-224
640
288
992
1008
48
-912
336
368
-768
576
640
256
-832
-464
-352
-976
-96
-320
-592
240
816
288
-336
-672
-16
400
-432
-1616
-640
672
-160
-1296
512
-160
-432
-176
-544
0
-448
352
-128
368
-608
-784
-656
-1312
-1360
432
-304
-592
800
1200
-128
528
-848
-336
528
-288
-1024
-592
368
912
-928
-816
-608
960
560
-192
-1168
-144
-928
-640
-128
496
224
-400
512
-944
-1008
-336
-592
-304
1040
512
816
1056
960
944
80
-736
-1680
-128
144
-848
-1280
288
1200
240
832
-640
-896
-944
-1328
-144
64
-1008
464
368
-640
-1840
-208
-208
-144
736
-416
-688
-144
432
-320
-1600
-1424
-1072
352
1104
1184
1584
-208
384
240
-896
-1376
64
-448
192
1072
288
-672
144
112
496
176
-704
-1040
-1264
-720
432
-192
-1264
-128
1424
256
-80
48
-64
-32
-992
-1104
1104
1184
400
-464
-176
384
-992
320
688
704
512
176
560
1056
1056
1264
1264
912
528
-640
-256
-896
-16
336
96
32
688
736
416
496
1872
1568
896
1200
1600
528
-64
-496
528
1568
400
608
944
-112
704
240
-64
592
240
-80
-784
896
-32
160
240
-1008
-1120
-1392
464
-16
-1296
320
-272
-1136
-112
-256
1168
16
816
16
-976
-1248
-736
-464
-544
-112
736
1232
368
304
-768
-1136
-208
-256
-16
-192
736
1152
0
0
192
1184
16
-288
176
1360
-16
-400
544
864
1408
288
-640
-240
544
224
1776
1744
-176
-752
-576
-480
192
336
864
128
1312
432
16
576
448
96
48
-880
-656
-448
160
-112
304
-224
-224
672
640
864
864
-144
160
208
-368
-1424
-816
16
208
1536
1408
32
-448
592
-384
240
560
272
-32
-240
272
656
880
1264
1440
1200
304
144
944
512
464
208
-128
-960
512
656
-432
-32
224
576
-16
80
-80
-992
-160
640
-400
-368
288
-192
576
-400
-1600
-816
-400
-320
-256
1616
592
-560
-560
-672
-1312
384
672
112
1344
224
-800
0
-592
-640
272
-496
-224
-496
-224
0
-304
80
-48
1328
864
-64
-720
-1008
-160
-304
-672
512
208
-112
-400
-496
-1136
-1168
176
16
-1184
-992
112
-1024
112
-256
32
528
-160
-736
-1024
1168
1072
288
96
432
528
64
-1040
208
240
1008
656
1056
-272
-352
976
400
64
1568
880
640
128
-64
-896
-608
240
800
816
-176
832
320
-560
-240
-800
-800
-864
-560
912
256
-368
288
256
-32
-784
-160
576
160
-224
320
112
-288
-1216
464
1120
384
-352
-128
256
320
0
1360
-272
256
976
128
-688
-464
400
480
768
16
320
-1344
-192
336
-48
160
592
992
944
192
-416
816
0
-336
256
304
96
-80
704
-1088
-720
416
-352
-608
-80
-464
48
16
1248
-32
-1216
976
784
1440
592
-192
-400
-400
-992
-560
112
624
-512
-144
480
64
240
-512
-240
-1056
544
-192
288
-432
-976
-48
304
-272
-208
320
1472
1568
816
592
112
16
-1728
-1504
272
-1056
-1872
-144
-1040
368
608
736
272
448
-256
-368
-944
-112
656
496
-528
-160
-1424
-32
288
-576
-1792
752
768
-32
-192
-384
128
-352
240
544
272
-576
304
112
-16
-416
-928
-1952
-144
272
-1248
-880
-240
-368
-464
464
1040
-48
-2016
-1184
512
1136
224
-352
-848
-848
-576
192
-640
-1056
-1088
64
1312
448
496
-176
-16
-80
-144
768
224
-192
-448
-1120
-144
512
-144
-928
-336
-704
480
368
576
560
-768
-1520
-80
0
96
80
-368
-576
-1264
176
48
-208
224
560
1088
464
-496
-752
-1856
-912
144
-928
64
400
-848
-896
-768
-208
-416
-128
880
1168
48
-592
-160
928
560
240
-592
304
304
-624
-544
480
352
448
-512
-512
-432
-48
-880
-608
-32
224
-112
16
352
-256
224
-16
432
1088
464
1120
880
336
-32
-416
160
-752
-496
-368
768
288
-384
-112
304
1120
1248
1008
608
-208
-1024
192
-1200
-1056
-752
208
-160
224
-816
-400
-320
-624
-480
-480
400
-640
-496
-976
-560
160
-336
-352
848
608
208
368
-64
368
544
-64
-816
-176
-256
144
720
-464
-1536
-720
32
-576
-448
-16
-128
1504
704
768
-752
-576
-464
128
608
2032
752
48
96
832
240
-192
448
448
-128
80
1632
1104
976
688
-224
544
1024
560
560
672
-176
352
-640
-1248
-960
0
-688
-1312
-432
-880
240
128
624
1728
1488
896
640
480
-464
16
-624
256
-80
-368
-1264
-352
96
-32
-448
-368
912
144
144
-144
496
1120
-480
-480
624
320
128
-592
-672
-224
400
-768
-208
-336
-352
-864
560
208
0
144
32
-1120
224
432
544
208
896
-928
-240
-480
-304
-464
-976
-608
-384
-1184
-656
-864
-960
-224
-992
-208
384
672
-784
-1600
-1376
-256
448
336
-96
528
1520
1904
576
-752
-288
-752
256
1120
1200
816
544
400
-1008
-208
1296
576
864
-464
-128
-368
-1568
-816
352
1088
784
-304
-352
-144
-96
-288
-864
-608
-1600
112
144
480
2000
640
528
-336
224
400
928
160
-736
448
-128
-688
208
-640
-816
-1536
304
1744
1136
672
384
80
1728
32
-752
-592
-304
-336
240
-256
320
-192
1088
880
848
816
-64
-192
304
-752
-1040
-80
-288
720
1024
176
-544
-400
-608
-752
224
144
-400
-352
320
352
-16
1008
-352
-592
-288
-1728
-128
592
784
560
880
480
640
1856
-560
-976
-32
-944
-1056
-288
32
-704
144
1744
1424
1376
512
1232
1200
48
-592
384
-32
560
-48
-640
288
-224
-800
-1008
-32
112
-512
-224
-112
400
944
-320
-256
16
-960
-704
-256
-544
48
400
192
240
-880
-752
80
336
160
288
-304
-96
-240
352
240
176
1680
560
1552
640
-1152
-160
96
-512
368
-160
-192
400
-560
-368
-464
672
48
192
384
1424
976
-352
-224
-832
32
-768
336
752
-272
-336
240
896
1296
656
-432
208
400
-864
-960
-1552
784
864
-16
288
800
432
240
-848
336
-928
208
992
912
-112
-544
-1712
240
144
-288
-256
-784
704
608
416
-64
416
-208
592
752
432
-496
304
384
208
400
-592
1216
848
592
-32
-624
-1184
384
672
240
288
-576
-1024
688
800
832
656
896
1424
1456
288
-912
-816
-288
16
-16
-272
448
928
48
-736
-912
-512
-512
16
96
-1392
-1040
-320
-288
112
224
-784
288
1088
944
1920
1952
960
512
-384
144
1952
224
-384
-432
32
-336
-1328
-544
-208
160
688
-576
-976
-832
16
992
912
944
144
432
608
480
464
224
64
-352
-304
-832
-848
-1040
176
320
256
80
-32
-1280
-400
256
352
416
512
464
1760
1568
-528
-624
-16
496
416
176
-752
-1216
48
-240
-592
-320
-736
-400
480
976
-448
128
-464
-80
-480
-608
-720
-64
-160
-752
-16
784
256
-1280
-304
784
-240
-864
608
1296
768
496
144
-816
816
432
-656
-272
816
880
816
528
352
1104
112
-432
160
-288
-1392
-496
896
-80
208
1088
-400
-1168
-544
768
240
-400
-1488
-192
-96
496
960
-816
16
-336
-688
96
1248
256
-976
-400
-144
-448
256
656
-256
-1056
384
224
-128
240
-544
512
304
-672
608
-48
896
544
1552
1424
672
320
1248
240
512
528
112
128
368
336
-112
720
560
64
-16
-992
-1184
-656
-144
-400
-624
-768
-496
-640
144
-368
-400
-1776
-1456
-608
816
992
128
800
-624
-512
400
480
192
-96
96
560
784
-320
-400
-1792
-1040
208
-528
-752
-656
-1744
-992
-1056
1072
704
-736
-1152
544
-144
320
464
-1504
-1584
-816
-496
768
1216
-80
-720
784
576
80
-432
-704
-752
-16
-208
400
544
-128
592
944
880
-640
-992
-1152
288
80
-864
-400
80
-16
1312
176
672
-16
48
464
1728
816
240
16
-432
-544
1232
1440
384
352
-192
160
752
-720
368
-624
-976
-768
-672
224
-448
-816
304
848
-112
-1024
-256
272
-1216
-1840
-1136
-448
-960
-1200
-32
-80
-1296
-848
496
384
-624
-64
-384
-1152
384
256
704
1584
-16
192
896
192
-320
16
-272
752
-16
112
-768
448
1632
768
-48
-128
-208
-976
48
352
240
1392
688
-80
608
1200
-16
256
1200
864
864
96
-352
64
336
80
1760
1728
432
224
480
128
32
-464
-128
1184
160
-176
-336
1200
1328
656
720
-576
-128
672
-752
304
384
-784
160
32
368
-176
-704
-512
-1024
384
-1120
-720
384
640
752
144
-240
-864
-448
-112
-528
16
-528
-112
912
912
960
288
432
320
-928
-304
-512
-1376
240
752
-192
-448
-512
-480
272
448
-1408
-992
-208
-512
-960
-1504
336
272
800
96
416
112
-384
-16
-208
-48
704
176
560
576
448
672
128
-224
656
-288
-928
-1056
-336
-1424
-704
128
-160
928
96
-720
864
1920
832
96
528
-720
672
-432
-944
-368
-272
720
544
-208
224
-32
-1120
-1248
-640
-944
224
928
464
608
992
1008
400
368
592
880
320
32
576
-576
-672
-288
-592
272
128
-448
1088
240
-32
-640
0
144
-16
352
448
1024
1456
496
-128
288
-736
-1936
-976
528
-112
-128
-304
-608
-128
752
1072
1040
240
80
720
144
-640
-32
240
-304
672
0
288
368
-464
80
224
992
-1104
-384
-1392
240
576
-112
-160
656
-736
-736
336
192
1280
912
848
-64
-144
688
112
-448
-656
-928
-544
704
832
1264
288
160
1024
1088
672
-336
144
-992
-400
-64
-368
736
-208
-832
64
160
-816
-1440
0
64
-1008
-176
-416
784
-560
-1104
-736
256
464
80
-1072
-1392
-416
-208
32
-464
-672
464
240
16
-80
-448
-800
144
224
0
-384
48
-384
64
1264
-304
-432
352
272
320
592
-224
-400
-1632
-1984
-320
608
208
-400
-16
512
736
1136
16
-96
-176
-672
-912
-1264
-416
-144
224
800
-384
240
-480
-96
640
992
880
560
288
-64
928
768
16
592
336
-160
464
-48
-1312
-1376
336
0
-112
256
528
-32
784
576
688
624
192
-480
432
224
-176
384
-1216
-1776
352
192
-1232
-576
-1248
448
128
128
736
96
704
-240
256
-272
736
816
912
1408
528
-32
-256
-640
-208
-192
784
640
592
640
-864
-544
-240
-464
-384
-256
128
192
-544
-352
880
-272
-176
736
880
-416
-688
-16
-144
-1968
-464
-752
-1520
-1216
-1264
-96
-320
224
288
432
-352
-464
-976
384
1168
-608
320
-144
-368
-960
-48
176
-240
272
432
-800
-832
32
-448
-416
-160
128
-1104
-1024
-176
-176
-1264
-384
-1120
-720
-240
-576
-1072
-512
-336
-576
-336
-224
-656
192
-432
352
160
-496
-336
-800
-96
-496
-624
224
-864
-896
-336
624
-672
-1360
-544
-32
-1040
-240
-608
624
480
-80
-224
-496
-592
64
-704
-1024
-384
-1456
-832
560
-560
-992
-384
1344
1040
1344
1376
-1120
-384
-1168
416
-192
-1536
-896
-1184
-1040
-416
880
-880
-416
176
1168
-576
0
1632
432
-480
1728
-208
384
544
-304
-880
176
-608
-896
-240
-544
-368
32
48
416
272
-672
-160
816
544
-48
-832
-1248
-1088
512
880
-352
176
848
-80
320
912
16
-1200
-368
-1152
144
256
-64
-1184
-736
992
448
-288
-1344
48
880
736
-192
-224
-544
-496
-1440
-416
-512
736
528
288
256
-352
-336
-1008
-2000
-992
976
304
-1296
96
1680
1104
-1504
-416
0
-224
656
224
-160
-960
-560
160
-688
-800
-656
544
-32
-368
-1312
-512
-32
-928
-752
0
848
496
864
-480
-768
32
-656
-192
-896
160
-784
-848
-1216
-416
-240
-864
176
880
512
-368
784
1104
736
448
0
-16
496
-480
576
896
688
320
240
-160
480
1696
112
80
-192
-384
16
-176
32
464
-464
416
-560
-944
-1360
-80
768
-112
-608
64
-112
-848
-480
1040
992
1648
944
512
176
-32
1472
1024
-864
-704
-832
-432
-528
944
560
656
1696
1344
-208
-736
288
816
288
-176
720
-624
-1248
-32
-608
704
1408
928
128
64
464
144
208
1056
-592
-608
-512
32
384
-192
32
160
288
-848
-1104
-144
-944
640
-880
-1664
384
448
-816
-976
-1280
-1232
-112
-624
-320
-736
-240
816
768
-432
1136
1760
208
-352
976
592
1216
320
384
-96
-16
800
1056
-128
-224
784
688
736
880
-288
-16
80
544
944
1008
-64
480
-512
-992
-560
-1136
-560
-800
-2000
-352
-1344
-1264
-400
-416
-160
-608
480
528
80
-1616
-1920
-640
-240
-768
-1152
-816
-160
272
160
-272
880
432
352
1056
576
-1088
-880
-816
608
592
160
560
352
-528
-1248
-336
-512
-304
-640
-1168
736
560
144
-352
496
272
-640
336
-144
96
912
160
-1040
-208
384
-80
848
544
240
-352
-1088
-224
864
-800
64
848
240
672
128
144
-432
-704
-352
-1296
-912
-592
-1072
-192
992
-176
-1408
-720
-64
-880
-976
272
-480
-560
-816
1040
-832
-640
-128
912
848
960
1040
800
-480
-1568
-1904
64
512
-160
592
304
-400
-752
0
-656
-160
768
720
-176
-304
208
368
-480
-1472
-624
400
448
32
-1568
-1392
-1008
528
1216
-800
-336
864
560
-96
-400
0
64
128
-1136
-1072
-352
352
176
-1296
-1232
144
288
-400
592
976
1104
400
880
-160
16
1024
1760
-32
-656
-704
128
-560
192
1024
192
640
-240
336
-944
-704
320
256
-64
272
384
-496
-944
-1072
-800
-128
416
336
1088
816
688
-512
-176
560
-352
-16
128
112
112
-288
624
-800
-560
-560
-720
-880
-1280
-256
960
-48
176
1056
528
192
1072
-800
-736
-288
-864
-1184
-528
-928
-464
-192
576
128
-928
-784
-960
368
-352
-448
-384
-240
368
-304
16
-1040
288
928
768
-368
-176
-592
-496
992
32
-496
384
432
-608
-704
-48
-512
16
816
256
-448
0
560
-896
-416
528
176
1024
688
-496
-208
-16
32
992
688
336
224
208
928
-304
256
176
-640
-208
-1136
672
704
-800
192
912
640
-752
-176
400
80
-848
240
-496
400
720
-192
-1424
-864
-256
-432
-64
-128
64
928
512
-640
-1168
-432
-240
1056
1344
-48
976
848
-336
-528
-1248
-48
224
1104
720
448
608
544
-192
880
-448
-960
-672
-64
-736
80
1616
1344
208
432
-128
-336
400
608
464
-32
320
160
336
848
160
-160
-64
528
1680
848
-1712
-928
32
560
-16
384
-16
-352
-416
224
-304
464
-160
-320
-736
-624
-368
512
720
224
192
-768
240
608
-432
944
992
-1184
-1104
-720
608
800
704
1936
1440
816
1008
272
1168
512
224
-368
-304
-144
-352
192
-16
432
-48
176
32
1024
944
1040
784
1104
1584
480
0
-1040
656
-464
608
144
112
784
112
400
160
208
832
288
-160
-96
-496
656
416
-80
80
-48
-608
-496
-784
992
784
64
192
-592
352
592
48
-224
624
1600
256
-736
-1232
-960
-1456
-560
-48
-640
-16
528
-128
-288
-672
-80
1312
768
464
480
-64
-400
-224
-496
-624
-80
304
784
1024
960
1360
32
1072
-240
-160
544
368
-1072
32
336
496
-128
416
720
112
-496
-528
0
-432
-944
-688
-1472
-1120
-528
-528
512
960
1376
592
96
944
848
352
896
112
-368
320
-176
-144
128
464
448
-240
-800
-48
176
-32
192
-656
0
704
1200
32
-64
320
-800
304
-64
-160
80
288
32
672
-176
80
-336
-192
-352
1440
-384
112
-272
-512
432
400
528
592
304
1232
1664
192
32
976
832
384
336
912
544
-96
1376
400
-48
1248
512
-208
-272
-128
224
992
-128
336
576
-64
448
-256
-960
-400
-960
-1072
544
944
288
-816
-432
560
-544
992
16
80
-160
-288
880
1216
1632
64
464
-384
-432
-768
-576
-1360
-496
704
1440
208
-848
-416
176
-944
528
-864
-1232
1200
0
-304
352
224
832
-160
928
656
1136
192
-832
-1184
336
-480
704
176
-224
496
128
128
576
16
-416
-1360
-880
416
160
-336
-192
-64
112
-32
32
-400
624
-32
-224
272
-80
-336
-688
944
1008
960
1152
1024
352
944
160
48
224
-528
704
576
464
1216
-128
-800
-192
-96
-384
1088
288
-528
-560
816
512
544
-1376
-1408
-1008
704
720
176
-336
-96
-1264
608
368
496
464
-80
-1184
0
224
560
464
176
384
176
272
672
-640
1328
48
-448
160
-672
-464
-848
-288
-784
-112
-608
416
-80
-544
-464
-720
16
736
-208
-48
1008
896
-1312
-704
256
16
-352
1120
-144
608
1168
896
-160
-1152
-1456
0
736
640
-160
-352
-112
432
352
-336
-32
176
-112
16
-144
448
-80
-368
-720
-1296
-1152
-400
400
-176
-368
-832
-1424
240
784
-272
-1824
-1056
272
512
688
-528
128
0
-448
-960
-832
736
-496
-752
-352
-1312
-576
-496
496
1616
736
496
-480
560
368
-896
-1120
192
240
464
272
432
704
-240
240
-544
0
-400
-304
-48
-800
-800
288
-256
-576
-256
-544
-448
352
240
240
-656
1056
848
-496
320
560
256
608
912
1728
304
-112
-608
-2000
-832
-256
960
1408
1200
816
-368
-400
-896
-48
352
-48
-528
256
-128
384
-448
-288
-432
688
736
-16
-208
-784
192
-1328
-496
576
384
448
160
-1184
704
-960
-1424
-1216
256
1952
880
-48
-64
80
-544
320
-144
-1344
-1680
-496
352
240
-128
-992
-944
-592
-336
608
560
-304
64
-304
-512
-560
-560
-1904
-1824
-544
-1104
48
-496
1120
144
-704
0
-128
-1152
-1728
-1328
-1344
-720
-544
416
1056
160
-576
-816
336
480
416
-32
-336
-720
384
-256
-272
208
-208
-704
448
1024
1280
832
-480
-672
-480
-1248
400
832
-688
48
304
-496
-304
352
32
-736
-1104
-32
560
240
992
2000
464
304
-400
-1232
-1552
-576
-1504
-880
-720
-112
-1312
-960
-16
688
672
352
48
-96
880
-1008
-1680
432
256
16
-80
1184
-944
-1248
-16
-544
288
-176
-656
704
1664
336
800
-240
432
816
-368
-656
640
1392
816
192
1232
-224
-992
-288
208
0
256
512
192
96
-528
192
-704
-368
240
-496
-1280
-656
0
-16
368
-272
-864
848
1376
800
64
-1504
-912
-192
-304
224
1216
624
-512
832
80
1360
832
112
368
272
-288
256
400
1136
320
400
352
704
-16
-672
816
704
496
-368
992
544
-800
-576
-496
224
-464
-848
-416
-1136
-640
96
272
-176
-224
784
-448
-928
-592
1568
1024
144
976
0
528
128
-368
-112
-656
-512
-672
368
1040
-80
-224
272
272
1008
176
-112
48
-144
-64
48
-784
-640
-192
752
192
112
256
1056
528
960
1280
384
-864
-1616
992
912
368
864
672
-400
-720
-1024
160
976
64
-784
-48
320
-1040
128
928
1024
-1184
96
16
608
-496
-1024
80
112
464
-128
-288
368
992
1280
816
864
-464
208
1472
400
448
528
736
160
0
768
320
-1184
-528
-640
880
528
1056
640
-384
-112
944
-208
816
16
112
-112
-1024
-688
80
-864
0
304
128
-176
-672
-576
64
176
720
352
16
-1344
-1088
-640
-48
800
1072
672
832
656
112
-80
416
-192
-400
352
432
-624
-1296
-304
-112
912
-896
-1728
736
976
768
-432
-784
-992
-1056
-416
752
848
1056
944
-64
432
-944
368
-112
-112
400
416
464
320
-80
-704
-592
-336
1072
1552
800
320
240
768
784
-704
768
896
112
1408
-288
-784
-976
64
-1104
-464
-240
-272
-208
-864
-1056
-448
944
400
-480
-384
-208
-256
-144
-576
224
-560
32
-1232
-656
-112
-512
-576
-576
-736
32
1584
928
336
-160
496
320
800
496
-656
-432
272
608
-48
48
-624
-272
800
64
-624
368
592
160
-912
-464
-288
-2016
-528
-96
-640
-928
-784
-96
-272
1296
1504
64
-768
96
1360
464
-272
-768
320
560
-128
96
-496
112
224
-656
128
-256
-464
848
1200
896
976
960
512
240
320
-208
304
-624
-496
-240
-848
256
-944
-816
-1312
640
496
1184
1136
-144
576
-368
-864
80
-528
-944
-16
96
-928
-2032
-1920
-704
448
288
528
-192
624
624
-208
-1600
-944
608
1504
-240
-224
-320
1776
928
-96
224
-400
480
736
160
384
-800
-800
16
-128
224
-144
-80
32
-448
16
1072
400
-320
-1088
-1936
560
976
480
256
880
320
1520
1328
-1392
-336
1008
448
-672
-576
-512
-176
-1600
-672
144
224
-288
80
-400
512
800
-656
-1488
-1248
-336
-496
256
1168
-304
288
-752
-736
-464
-768
-112
704
1376
1808
1776
1024
448
1328
64
-1168
-1536
-496
1552
1840
-528
-1328
-704
64
-784
784
1984
1440
128
240
608
240
1472
-304
816
1344
-272
-80
-224
-1472
-368
-144
480
112
176
96
-608
448
-176
32
624
320
-80
-1008
-912
-1248
-1424
448
-96
-960
-176
-512
-176
656
-192
304
784
1040
-224
-1312
1072
224
192
-256
-1088
-288
480
640
96
-224
-64
-368
80
224
176
-368
512
1104
1504
112
-1040
-960
896
416
112
864
1872
496
-64
864
1024
1264
720
496
-528
-496
-464
-576
-688
192
608
896
1232
400
848
-192
-816
-1168
-784
288
480
352
672
912
976
1072
336
96
112
432
96
-64
-1040
-192
-608
-656
-1344
-352
-560
-32
416
-432
352
464
-720
-592
1184
464
352
-928
-656
-256
-688
-272
-864
-400
160
-864
-672
192
288
-672
-976
-560
-384
-192
-304
416
-832
-112
-912
-816
-1136
144
112
-1408
-240
-400
-288
0
-1536
-1360
-352
-240
624
-32
-1328
-80
432
-848
-832
832
112
-480
-144
-304
-704
-400
-880
-304
-448
-464
-1808
-1056
-384
128
-96
128
544
-448
-784
-1200
-256
304
-656
512
1280
896
80
-320
-416
368
96
-432
16
-688
-608
-768
1264
928
-880
-1568
-560
640
416
-384
592
688
192
288
448
32
-176
-976
-272
-864
-1008
-576
-1632
-1072
-1632
144
-464
-112
256
352
704
32
304
160
784
288
784
688
240
624
-224
-768
-656
208
-208
352
-336
352
1248
880
-432
-352
240
-1232
-416
176
384
-592
-1120
-656
80
96
336
-256
-528
-1408
1040
-112
736
288
112
-720
-1184
-896
-64
592
112
384
544
32
-352
16
0
192
1200
1888
1744
432
-48
-288
-528
592
-16
240
320
1360
1680
-800
-384
448
32
-112
288
1328
336
-528
-560
-240
160
496
112
608
-80
-960
-592
-176
-48
368
1072
448
1296
-240
-576
-496
560
736
-144
-592
-1264
256
528
-160
256
816
1152
1824
1440
528
-272
-992
-256
672
-288
-624
624
928
304
-512
32
-384
0
528
368
1024
0
-1088
-640
416
640
96
0
160
352
-528
-320
624
544
-208
-1184
768
-208
112
-576
-1600
-192
-288
-48
-336
112
48
-416
128
752
960
944
1504
560
1056
976
1440
-208
-800
-688
-896
1008
320
-352
560
288
-128
-384
736
1728
784
400
1088
304
352
640
-1216
-160
0
864
320
-32
-528
-2000
-1312
-560
-320
-400
1600
48
-784
-896
-304
-368
-64
-336
-80
256
336
448
1040
544
-832
-176
400
16
96
880
1376
-720
-64
800
336
-544
-1056
-528
-1488
528
1440
224
320
160
-576
-400
304
-800
-928
384
-1104
-288
-80
-624
-1104
-224
80
-496
-1200
576
976
320
-448
-560
160
-800
-528
720
336
176
128
128
480
-112
192
1616
208
400
-192
784
1392
912
576
608
1392
704
608
16
48
-656
320
752
-240
-576
448
-512
1040
816
-608
-112
-496
-992
-1280
-1744
-1184
752
624
-224
160
80
896
768
688
-224
-1104
-464
-752
-976
-704
816
1440
1040
-64
-112
496
208
512
832
1200
1056
176
-1616
1312
1104
656
1008
1344
1744
768
-16
-224
-688
-320
48
-576
128
-160
-336
-480
-1504
-688
-240
192
560
256
-688
-704
704
832
800
208
-448
-752
896
1616
704
-64
400
-96
-208
304
-112
400
496
112
976
1472
-704
1088
432
-1104
208
128
-640
432
480
960
640
-320
-320
-400
-448
-768
-208
-976
-592
32
1072
-304
-96
-448
-576
-768
208
-80
-992
-400
-816
-624
96
1232
-64
-816
-1760
-144
640
-288
-400
240
720
112
-416
32
-96
-208
336
16
-272
96
1232
64
-672
-944
-992
-48
-1216
-736
528
512
512
1184
720
448
832
-880
192
-288
96
-1536
-128
1040
608
448
464
-816
-624
-832
-384
1056
128
928
1312
-544
-1472
-192
-304
288
-704
-544
-720
-864
688
0
-864
128
-432
-720
-800
208
112
-672
656
864
768
-752
-864
-624
192
944
112
704
160
-624
448
656
80
496
896
480
816
480
720
-160
832
976
896
320
928
160
720
608
1824
-640
-1136
-256
144
-672
176
480
-464
-656
48
96
-736
-208
576
400
-160
-768
-448
-480
-1120
-1488
192
16
-464
-64
496
560
-496
-496
-400
-256
0
48
-704
272
-16
432
416
-736
-432
16
592
160
-512
-32
-48
240
-864
-96
-48
-656
688
-80
-64
272
-32
1040
-128
144
704
352
624
448
-704
-752
80
576
-16
1136
-240
-320
32
-272
-208
-64
576
-80
-592
240
576
64
1216
864
928
80
176
-880
-576
-336
368
448
-112
-224
-512
-432
336
976
-176
112
1296
1648
896
224
672
-592
-512
368
480
144
608
1264
1920
1344
48
-832
-944
432
864
-16
-816
-112
-144
-400
-112
224
272
1312
176
-1072
-272
32
-352
576
-480
-576
544
672
-464
-256
304
-256
-512
-400
464
288
288
-64
-608
32
560
80
112
-144
768
-272
-1024
-656
1472
1040
656
352
1152
816
368
192
160
640
-176
720
816
96
-912
-656
304
192
-144
0
-32
-608
768
1968
1088
320
1504
496
368
768
208
192
1280
752
-608
16
832
336
-336
336
448
-144
96
-256
-320
-96
-160
688
368
320
240
192
48
-720
112
496
-256
-704
1008
1360
560
-32
-496
-400
-352
-80
560
1776
800
128
48
416
-384
-336
320
-48
-1296
-416
-1168
-528
208
-256
688
960
416
-624
-448
-368
-400
-304
656
-464
48
1152
736
816
-176
-448
16
-96
1120
1088
-880
-640
-1664
-800
-1296
128
-256
-1344
-880
-1264
-1408
-1072
-96
-320
400
-64
-480
-944
160
-688
-1616
544
304
-1008
32
1184
-160
-704
-448
160
1024
-528
-1408
-288
528
-128
48
528
816
0
-736
-752
-1616
-192
-528
-576
832
800
240
1072
-176
-1280
80
-16
304
432
304
832
672
-336
608
512
704
-224
-752
-544
-192
560
-32
-1136
-448
400
384
1152
240
-80
400
464
-496
-1008
-432
-480
-832
0
64
-384
-128
224
496
832
288
192
384
496
-352
-1392
-1280
-1408
-480
320
80
800
1120
192
-768
752
-96
-720
320
-208
-240
432
-640
-704
-384
272
-560
-368
144
144
-736
144
64
144
-256
-1120
-896
448
736
1008
256
-512
-336
-288
-512
256
-128
368
-240
240
512
224
992
-496
336
288
208
-384
-96
-800
-416
176
592
-400
704
1232
-16
-992
64
288
304
336
208
-32
240
544
912
208
-224
80
-592
240
656
240
-480
-144
672
464
-352
448
1168
848
416
-848
-288
-336
0
-1152
-48
-128
-672
-32
-256
-432
-432
-160
1664
464
-16
112
-752
256
784
48
112
-192
-432
-320
-816
-1088
0
-336
176
560
496
-144
624
736
-672
-1776
-704
-272
-528
32
-928
-464
-352
-336
-672
-512
-656
-432
224
-368
-912
688
-80
384
1488
464
400
-192
-288
1040
144
-144
-512
-128
128
-80
464
352
480
144
592
736
-448
-1024
192
1424
1168
1232
528
0
176
336
192
-240
-672
0
-496
-80
0
464
-112
-176
544
-576
368
1680
592
-288
-896
-1440
-1008
320
-144
-240
-656
1504
752
-272
-1232
16
704
624
-16
-512
48
-224
-1104
-240
-272
624
336
-768
-208
-768
-288
-112
544
1456
416
-224
-1184
-1168
-1888
-368
-144
176
-320
-528
192
-416
-928
-176
-544
560
-496
-784
-144
496
-1248
-816
-288
80
1712
672
-208
160
272
-592
144
976
288
480
864
-80
336
-480
-1024
-432
-1344
-1344
-144
576
608
368
768
-384
-592
-880
-608
912
1472
368
160
-224
-384
848
-352
-800
-752
800
-432
-144
496
128
-1632
-1936
-336
-304
-496
-656
-752
-992
-720
-1696
-864
16
-1392
-224
112
0
0
-256
-432
-176
-272
416
80
96
560
-176
240
1040
432
464
912
-144
-384
880
928
-288
864
-432
-688
-1968
-1232
-1456
-1024
-144
-48
464
1040
-912
-1168
-480
-112
-160
-336
-80
560
96
800
1232
-256
128
160
80
32
96
-416
-80
-992
0
320
384
1040
-16
288
336
64
-1152
-848
560
496
464
720
-176
-160
-96
-240
-96
96
-352
-176
240
704
784
-176
816
-592
368
208
-176
1488
48
-192
-96
624
464
864
544
1216
1216
240
-80
-832
-128
944
128
-160
-32
752
-352
-848
-16
-864
-272
-32
-896
64
-432
-960
-144
480
-560
-160
1008
640
-624
-528
-592
224
-896
-1664
-80
-144
-464
-288
-432
-592
-176
-528
-272
-992
-688
-736
-448
128
544
-880
-1344
-880
-640
-80
640
768
-800
-416
48
16
-1696
-1904
-1312
656
1264
1088
448
736
864
-320
976
1440
1264
-656
-1184
-1280
-800
-528
32
80
448
832
32
160
224
624
464
336
448
752
496
-224
-32
176
-64
736
-688
-304
64
208
-224
-240
352
1040
848
-144
-992
-32
528
-624
-752
-352
-976
-160
-512
-992
112
-240
880
304
-656
288
304
400
16
544
96
-464
-64
-416
672
992
-640
-512
-208
448
544
352
512
208
-1040
-1648
-1168
-496
112
-240
1056
112
304
576
-464
272
240
-128
272
-880
-1104
-848
-176
-784
-1184
112
1024
208
-592
304
1200
480
768
1264
544
-144
528
-464
-752
-176
-128
256
576
896
1248
-80
0
-176
-560
-1696
480
832
-448
640
688
-1168
-1008
-1376
-96
736
256
-96
160
-48
400
256
-1088
-560
-208
-704
384
-800
-576
-848
128
-400
928
-992
-640
-976
-144
-32
32
-368
800
672
288
144
1376
896
-592
896
1040
320
-864
-1008
-784
-304
256
-320
-992
144
-192
-1088
-1728
-1360
-416
-224
-528
-848
1664
1728
-288
-736
-64
384
288
256
-176
-176
-192
368
-432
-432
304
944
1680
848
544
-16
-1648
-672
-688
64
352
0
-1296
-1232
272
672
-272
-448
368
-496
160
128
656
896
864
528
368
-112
-112
1248
-64
-352
-624
512
-48
-192
592
144
-1200
-464
480
-512
528
176
336
-336
-1584
-1824
-560
336
1712
864
928
448
464
-80
-1472
-64
224
256
-208
-384
-912
-48
-48
-160
240
-704
-400
400
880
0
384
-576
144
-704
-640
272
544
128
736
-144
-576
-528
-608
320
-464
-1248
-1152
-768
560
208
-32
48
400
-768
528
976
144
-320
-896
-240
-464
336
1232
-640
-720
1088
880
-1184
48
592
-1408
-624
-160
-336
336
1104
272
-560
-1152
320
784
1008
-208
-288
928
800
1168
0
96
128
384
208
-32
-976
-640
-880
-672
-208
336
-944
-448
496
-208
-240
-288
1232
496
-128
-1344
288
320
912
352
848
64
-432
336
-96
80
-992
-784
112
-608
-304
240
-608
-736
-32
-160
-624
-480
1408
1184
304
-96
192
-1024
-304
-656
-16
-320
-336
-16
-224
176
32
-32
-816
-736
-128
528
288
160
928
-560
-576
-1024
-144
16
-32
-432
496
288
-496
-416
1024
464
-128
288
352
480
-208
752
880
-992
-640
-1088
-224
-624
736
-336
-624
320
-288
208
-96
320
-64
576
800
176
-240
-800
592
1184
-656
-192
192
416
832
-192
-1264
-128
720
48
848
192
176
672
-224
-560
-768
-320
48
-528
32
-704
1344
416
-480
192
-592
-1632
-480
1920
640
-1248
-768
-1152
-912
256
-336
-192
960
400
128
1648
1200
-560
-208
944
1584
992
544
-368
-672
144
-384
688
944
544
-784
-992
720
-160
-496
-320
32
-256
784
528
-1072
-1536
-176
496
48
1440
1088
112
832
16
-864
672
1744
352
-800
-1728
-672
96
560
752
448
-192
-384
-960
-624
-832
96
560
448
224
272
-688
-400
288
-480
-816
-560
-256
-16
-528
-672
320
624
768
-80
-688
-432
-368
-832
-480
-1056
-1360
-1920
48
608
720
-880
-784
-80
432
944
-816
-816
-736
-784
1104
1216
-128
16
608
752
-144
-208
-48
-496
-1008
-528
16
176
64
-624
-1040
-1072
-176
-288
-1312
-480
-496
-176
-336
-640
-272
-688
-544
1296
1120
496
592
464
-1056
-64
672
1328
784
1248
-736
-896
-320
-704
192
-112
-1168
368
1168
1216
816
-208
144
672
32
-1008
128
640
1296
1760
432
-80
304
592
1200
640
704
720
528
-480
-400
704
112
656
1312
528
-320
528
816
-96
-1184
-112
-928
-512
-896
-512
368
-48
-48
640
336
176
144
64
-560
752
608
-784
-1792
-784
272
864
-224
-80
640
608
80
-592
336
-128
-1152
512
240
-736
-544
304
0
-640
-1056
-320
592
0
-96
528
560
-800
96
1056
-848
-512
192
192
160
-288
-1616
-128
128
-496
208
240
-976
-896
-144
-16
-144
-272
-128
-416
560
1664
1152
512
64
1056
976
1072
592
-432
-32
480
-240
-224
240
880
352
-16
-112
-512
-400
-128
464
-160
400
-576
720
144
-944
832
336
-528
-576
128
1312
-976
-704
-336
-32
-576
64
128
-816
768
656
-720
400
1648
992
-496
544
-48
-496
880
32
224
-1040
-1104
-656
352
-720
-880
-720
-880
-176
800
560
-256
-560
256
496
-32
400
576
-640
720
608
320
1648
1632
48
64
800
384
736
400
-496
-256
480
-448
-1040
-224
0
-352
-96
448
480
-1216
96
-560
240
192
32
-528
-848
416
-80
-960
0
-704
-1376
368
-656
-1088
-560
-128
0
928
736
-1104
-352
752
992
1040
1296
32
-112
320
704
1216
32
944
-368
1104
-96
-512
-368
-656
-112
80
704
480
80
-752
-832
-192
-544
-832
-704
480
112
336
1280
128
224
-48
-1664
-480
448
480
-416
-880
64
1136
400
304
480
176
48
320
160
-496
-768
-576
-336
-400
-800
592
1376
144
-16
1664
928
736
1216
560
368
608
720
-624
-240
32
-48
208
32
-1248
208
1344
96
1328
1728
368
-1168
368
-176
192
336
-1056
400
-48
432
-704
-368
-480
-240
176
896
-80
-432
544
400
-832
-384
48
-80
-960
-1344
112
496
-560
-1456
-720
352
784
1104
304
400
640
1040
560
1376
640
1680
688
-112
448
288
-160
1504
1616
1264
432
416
-816
-64
784
400
480
-912
-16
656
-400
272
-448
-752
-640
48
-752
-928
-224
432
256
-1520
624
1120
400
640
-192
-832
240
-224
80
432
560
928
816
1040
384
-384
-336
560
-352
-304
-240
-32
-192
48
528
-256
-752
-672
48
480
-384
1008
304
64
-480
-32
-992
-208
960
304
352
-592
160
608
416
-48
240
-592
-320
-864
672
1120
192
992
384
-304
-16
192
480
896
-448
-1328
-1152
-64
-512
-304
-240
480
608
160
496
-800
-624
-880
608
-224
-1392
112
-848
-1328
624
256
-816
-1568
-1456
368
-592
-208
112
-192
-1200
-928
-224
-480
-176
160
-208
-336
1056
-48
-1120
880
256
-1392
-240
0
-48
-160
-384
640
752
64
-256
608
1264
-800
896
-496
-976
-224
208
1328
496
208
-112
352
592
-384
16
304
-32
-1312
-1376
64
-368
-176
-352
48
992
1216
144
144
816
800
-448
832
816
-304
-384
160
208
-304
-688
-720
272
832
1056
0
-944
176
192
-848
-2048
-704
-352
272
-368
-304
480
752
16
-192
-368
-240
-192
-544
48
240
-1008
-1312
-224
272
864
-624
-816
288
800
432
-832
-1136
-896
-816
96
576
1152
400
160
-880
-416
320
-640
352
-256
-448
-32
896
304
400
-272
-176
480
32
-112
-160
-352
272
432
960
-1264
-224
-768
-832
-992
-384
224
608
-160
64
-400
-224
-688
-32
896
624
-128
112
-64
-1264
-16
112
-400
352
256
-208
-176
112
720
-336
80
256
-48
432
688
240
-912
-1072
-192
-640
-560
-624
-144
16
-560
-1072
-1440
-528
192
720
816
-896
-288
0
-768
-416
-32
304
-944
-896
64
480
-400
-432
304
1264
1360
-416
-912
-208
16
944
144
128
736
592
-832
48
1536
1472
832
-624
400
-448
-176
336
1040
-720
-1168
-912
304
-352
304
-480
-80
704
624
576
-208
-608
-688
128
720
192
-1184
-432
128
-112
-288
-448
-192
128
-176
-688
-928
16
528
-928
352
1504
1584
112
432
496
-656
-352
848
400
-384
-16
-2016
-80
-544
-1376
-624
96
-576
-352
-272
-592
304
416
-1184
-784
352
592
1168
1200
32
-32
-688
608
-816
128
688
544
768
240
-672
-352
-992
768
1360
416
-592
-224
576
16
-192
288
160
-704
-64
736
272
-1040
-368
-480
96
320
-16
832
624
-560
-192
-144
-128
-992
-576
496
608
32
768
400
-624
-240
720
320
208
1088
208
80
912
400
96
720
976
416
944
208
32
464
336
432
496
-320
-96
1136
1744
1344
976
-800
-352
-416
336
960
-672
112
544
80
832
896
688
96
1712
0
-416
592
560
-512
416
-96
-992
-336
352
160
-512
-864
832
464
-48
144
-688
-1936
-96
-880
96
592
1104
-272
-1072
64
704
592
1120
720
-800
-928
-816
-272
880
576
-1824
-672
816
640
528
-480
-1088
-992
-512
48
912
48
-32
192
176
-1136
-640
-48
-896
-288
-240
-800
-512
-48
368
-816
544
-16
832
208
-208
-1120
-1552
-224
400
1056
-528
-432
64
832
160
-432
-304
224
-448
-512
-768
-240
-512
-1360
144
-224
240
-288
-144
-384
128
-1168
-128
192
736
560
-208
624
880
528
416
1168
800
576
272
512
112
208
176
-1040
-544
352
-624
-1408
176
272
-384
-80
-896
144
-176
1280
336
-464
-192
1600
2032
992
-1472
-1136
-272
832
448
-48
-576
64
-464
-1248
-32
-736
-1664
-400
48
-640
-496
336
880
320
480
96
-704
-768
-448
544
1616
224
816
1296
448
-688
-128
112
576
304
-336
-592
-688
-976
-816
240
176
1440
-336
-1040
832
1792
1232
992
768
-256
-16
160
272
912
480
-1248
-240
928
-288
-752
800
1168
544
208
-704
-560
32
384
624
-736
-752
-448
-1264
-448
-1184
-1952
-1392
-1648
768
368
-416
-704
-352
688
848
16
304
112
336
880
928
496
720
-32
976
1584
512
720
32
112
-560
-880
48
-432
-336
-64
688
1136
272
272
608
-192
-1296
-352
80
-832
-448
-720
336
336
1088
672
288
208
-816
-1376
272
528
-640
-1376
-336
288
0
432
-144
608
96
-64
160
-1184
-16
784
-320
272
96
-32
-624
-976
-192
224
816
-48
768
400
224
-16
-672
448
960
-16
160
-1008
-624
-464
-800
-544
-64
672
336
336
1360
464
48
-80
-624
-992
-1024
-1440
-336
-128
-208
-656
-128
912
576
784
464
48
-784
-592
-80
576
784
-416
-192
-368
-304
0
320
-16
-672
-16
-528
-1232
-16
-688
-272
416
400
-48
-496
-272
-240
-736
-832
704
528
736
304
-832
352
544
-416
-560
1296
736
-1456
-1552
-272
-208
-368
-256
-752
64
1728
464
-304
272
400
224
-416
-944
0
416
-608
-224
-128
944
464
-192
-512
-64
704
-752
-592
-1296
-1280
-992
448
-1056
-1840
672
224
-960
128
416
-336
-960
960
-416
-480
-64
-240
-976
384
192
352
176
-848
-336
-288
-1104
-944
-704
80
-656
-896
288
-688
-528
208
-288
-368
-912
-976
-816
-1184
-288
208
-224
-192
-624
-416
368
256
-1504
-1424
-144
-272
-464
288
-400
-176
144
-1600
-208
1600
-144
-720
-112
-1392
-1440
0
1184
880
960
416
-416
144
208
-80
-800
-1280
-304
-944
-272
1056
448
-1504
464
656
864
528
-16
-816
-352
-1712
-1152
-1824
-1024
-1040
-656
-1040
288
864
416
1232
160
992
816
-304
256
304
-64
480
592
1264
-240
64
704
1392
912
-16
64
32
832
1120
-144
-336
16
256
1264
656
688
720
384
-128
352
128
-96
160
-576
-208
800
-544
-1232
-816
-288
192
352
576
80
-256
-1248
-1584
-1120
-784
-272
-224
-1280
-832
-16
736
1328
832
864
-16
-480
272
-368
160
816
-336
752
208
928
448
-80
624
1744
0
624
-240
-16
704
496
688
-144
544
1408
896
512
-816
-272
304
1056
288
-80
-368
752
-320
-896
-384
-240
-32
160
16
944
704
-272
-1184
-496
96
-928
64
688
880
784
-64
752
256
544
480
1088
624
-128
432
1152
1040
-624
-912
-1424
-384
-592
-1424
-1424
-688
608
336
256
640
1104
-224
-560
-48
32
320
736
-176
48
1632
544
-1168
-416
-304
-560
-1184
-848
208
1072
288
400
1776
432
688
336
1424
448
-32
832
64
112
176
160
208
576
560
576
160
288
48
-1136
-1152
-336
-288
528
272
432
912
304
-784
464
-560
-1376
-1280
480
-544
-1568
-704
-128
-1264
-624
-176
48
-736
-448
144
160
256
-768
-1584
-304
768
320
16
-816
-640
880
-368
-1312
-32
96
816
320
-80
720
784
-96
208
-592
-1056
272
1456
512
-128
-480
-640
-48
528
192
384
816
0
-704
-304
-496
352
1120
256
848
16
-864
-112
-192
16
112
16
-528
-416
256
176
528
512
400
544
-608
-1616
-304
224
608
784
304
-304
176
1184
304
144
-336
112
-528
80
-448
512
1568
640
-272
80
-32
96
-16
1232
752
-272
-1616
-672
48
-880
496
1328
704
976
1200
1312
416
464
1792
-176
-512
-240
-528
384
-32
-288
160
80
-128
368
336
-464
96
-528
-320
-336
-304
-176
-32
-960
-848
-32
-464
-1136
-672
576
416
192
-400
144
336
304
896
992
1104
176
16
-400
-1472
-448
-512
416
688
-352
464
416
-496
432
240
-496
-880
144
80
-304
256
480
-224
-16
672
-1504
-432
192
-96
-160
32
608
880
-576
112
-48
640
704
1072
496
304
-16
-464
-96
304
-96
288
-464
-1232
-1360
-928
-704
-800
624
-512
272
800
416
-480
-784
-336
-608
-208
-496
1136
-464
912
448
-448
960
608
-608
304
656
704
464
-160
-1200
-1344
-432
-336
-1184
-1664
960
-368
-432
560
880
-48
-288
-112
1216
176
64
144
-464
192
48
1056
-112
-480
288
1056
560
560
-800
-800
640
1136
368
-688
-720
544
-160
176
16
-896
-224
384
0
-656
80
928
224
528
1424
480
-368
832
1552
1232
-976
-608
-96
1184
624
192
-160
-144
288
-112
256
928
592
816
864
1600
1280
1456
1696
1136
320
480
624
160
304
288
672
528
528
528
240
-1376
-352
576
-256
-416
-384
336
1248
592
592
480
992
864
336
704
544
256
-1008
-1520
400
-144
-272
48
1248
64
1040
0
0
176
-336
-1248
-1472
-960
720
32
-256
96
-144
-1664
-464
-576
-352
-288
688
560
-656
-1200
640
-32
-208
16
368
-848
-1536
-208
-592
-1232
-368
-336
352
-32
496
272
-320
-1280
-464
368
-240
688
1072
432
-1200
-304
352
-592
0
-80
-768
-960
80
-400
368
-336
-1120
-336
288
-848
256
432
-192
688
1200
-416
288
704
864
736
-352
448
1408
1200
352
1136
752
-16
64
336
112
480
352
-16
464
160
512
-784
-1264
-320
560
-128
-448
-640
-64
896
-512
-176
-368
768
-128
48
96
1008
464
-592
-736
-256
-1344
-704
1504
400
-752
-80
-448
576
576
896
96
-176
-576
-496
-256
304
1424
-464
1168
720
848
608
352
592
256
400
880
-48
336
-608
-976
-528
-208
-896
-1120
-384
192
768
608
624
-272
224
272
416
48
1552
192
128
1328
752
112
-128
224
-112
256
-1184
64
192
-976
-272
-720
336
496
-160
1136
400
176
208
1472
592
1824
1344
688
688
1728
-80
-128
-400
-592
48
-192
-80
240
-896
-160
1088
832
752
816
-512
224
1408
272
-208
848
432
240
816
-336
-1584
-368
-560
-544
256
-128
-752
128
-64
496
752
-672
-992
-384
144
-1328
-304
384
32
-672
736
224
-1104
-368
32
240
1744
1328
464
-768
-1440
-528
-480
-16
896
976
688
-112
-272
176
512
752
96
-896
-224
992
1152
-1360
-2000
-1776
-1136
288
416
672
688
112
624
-864
752
192
400
240
48
464
112
-1072
-848
-384
-400
16
-80
-1184
-160
256
64
1104
80
-80
112
128
-368
992
480
320
576
1216
960
784
96
304
1152
928
-144
304
-560
-256
-288
-672
-176
-800
-864
-400
-1264
304
848
208
480
-912
-752
-896
-784
-224
-656
48
0
-928
-560
-368
-672
-352
256
0
-1072
-832
-64
16
-640
-48
-624
-704
672
944
688
-64
160
1104
816
-272
-1088
-1232
-1088
144
-368
-1952
-128
112
-432
768
96
752
768
-992
-560
176
-32
-448
688
48
-288
64
-128
592
-16
-560
512
512
512
560
96
-16
48
1408
1712
1696
272
-688
-288
736
816
208
80
-672
-800
400
1168
-176
-560
208
80
-768
-736
224
464
320
256
-480
240
-448
-640
272
-432
-160
32
-944
-864
-1248
-240
-544
-64
-224
-464
-128
160
16
-160
-96
-1264
-1072
80
480
-1376
720
1456
-256
-1680
-1264
656
-112
192
448
-64
-704
-768
-848
-496
512
1232
304
272
720
-224
-752
656
-432
-960
320
-256
-864
160
80
48
-240
-32
-304
-128
192
-800
-272
736
288
640
560
1424
-16
-528
-32
-768
-336
-416
-1040
-544
112
-16
-352
-1552
-96
-80
16
-544
128
80
0
-800
-1152
-176
-432
-784
-784
-1328
-256
16
-480
160
-464
-464
-176
-160
-512
-672
-416
720
96
-608
-704
-1040
-528
-896
-256
1952
272
-784
-1296
112
-672
112
-1088
-992
1216
1280
752
-496
-688
-400
-48
-496
-736
-848
464
1136
1312
464
-176
-848
-160
-496
816
1280
496
560
-400
336
0
640
304
-368
48
160
144
96
-432
-864
-656
592
336
-432
-256
144
304
208
432
-192
912
464
-992
-656
-368
-1152
-1216
-1696
0
160
656
720
192
-464
-1264
-1728
-96
-176
384
-560
-1840
48
352
-224
-752
-32
160
960
1040
-704
-96
1248
1488
336
-640
112
192
1008
960
160
-1840
-464
720
1024
800
272
144
416
-176
-800
496
720
272
-224
-912
-160
-64
-32
-288
448
992
816
-80
176
768
1008
192
592
976
864
528
-240
128
64
-528
-368
-432
96
-304
832
592
96
880
192
688
192
176
-48
-48
592
432
16
-80
-864
688
1696
864
592
1088
512
-624
-1024
-448
-16
-480
-848
-592
-1216
-992
96
-432
-304
-640
-128
592
-448
-32
-544
-656
320
0
-128
832
304
96
96
160
80
-176
-464
1008
-480
-656
-816
-192
784
464
32
672
-640
-1504
-176
-128
-336
-32
160
240
-48
272
672
192
-960
-704
896
880
192
-464
-640
-736
480
-128
304
784
-192
-272
736
-64
-784
-80
352
-1104
-1152
-1344
-1456
192
480
-1568
-1312
-1712
-496
960
272
-32
-160
-48
-304
384
-448
240
1424
768
-768
-1072
-240
-720
-464
32
656
336
512
-720
-1216
848
1504
-800
-512
448
304
272
912
-16
272
480
528
-960
-448
-272
-336
480
688
368
16
-304
720
-48
-128
-736
-96
-224
272
-1168
48
832
-1280
-592
0
-576
592
1520
720
-288
160
-208
112
672
304
752
160
-496
-1200
208
-336
-688
512
288
-352
-784
-416
-416
0
-560
-656
-448
-1184
-704
-448
-592
224
-80
368
1776
1168
624
-352
512
144
-1008
96
768
-208
-192
-944
208
848
1136
768
-832
-96
1552
1440
1872
736
896
1472
-1168
-1104
0
-528
-1152
-208
816
1792
1680
544
-496
-864
288
1264
-208
96
-416
96
80
272
96
-80
416
384
-880
-672
-544
-320
-208
-1312
-832
-592
-608
-336
224
-720
-256
-400
-400
624
1568
656
-16
96
608
144
16
-32
688
-112
-368
-288
-1296
-736
-688
464
432
1872
544
1712
496
208
768
1120
592
528
768
-368
-320
384
-752
-544
-656
-272
-832
-320
-896
-1696
-1584
-1296
-112
-976
512
1264
544
64
-416
-464
-976
-1552
-544
432
1248
-352
-864
832
-112
544
-624
-144
-96
672
576
160
-224
-608
-288
-432
1056
592
-928
592
496
144
-1248
-240
-192
-1456
80
608
576
-176
-544
96
-624
-288
-208
-1456
-592
320
-16
-1072
-272
-688
64
176
256
-272
-208
560
880
1440
-416
-1632
-432
-16
-1008
-672
-1104
-432
672
320
1328
-32
16
-416
-672
560
640
512
-720
304
1552
288
-352
-240
208
-96
-416
48
-272
-1200
-384
-48
-1104
-1376
-32
-1664
-816
32
64
368
1088
0
-496
-160
48
320
-48
464
944
672
800
672
48
80
832
416
-416
-528
-16
352
-16
-704
384
528
960
688
304
-768
-320
528
-144
-912
-624
16
-928
64
864
1024
-1200
-384
-512
-1168
-944
-240
304
640
-240
112
1088
240
-176
-640
656
128
-288
464
-256
-848
-656
-96
-720
368
240
16
1440
80
-80
-112
-432
-480
-96
-224
-144
-32
-800
-1152
-416
-960
-272
-768
352
64
848
1168
1072
-416
768
-32
80
-32
-512
-720
-176
-848
-896
-192
608
-464
-176
-896
-192
-1104
-752
-640
416
336
1424
1280
-208
-752
992
1056
528
1072
1968
-720
-1216
224
-96
-976
-416
-432
-352
-96
176
640
-112
80
704
-528
-656
224
304
-464
-656
-752
-576
768
256
-176
-400
-208
-112
-624
-656
192
1040
1424
1168
208
304
320
1600
0
64
736
64
816
-96
624
-560
-560
48
80
528
416
-144
-1520
-128
-192
-688
-224
-352
-912
-320
432
160
304
704
240
-432
-336
-1744
-592
192
-1360
-160
304
-128
1312
592
304
576
560
656
32
-48
-176
288
-112
352
-16
-560
-736
-80
304
-144
608
-80
384
608
-944
96
320
-1568
-1728
-1168
-416
48
-352
144
-464
976
-16
240
-560
-416
-416
-576
-192
864
1056
640
48
-864
288
144
-816
-624
0
-960
-960
-144
736
-480
-96
-208
-48
-256
848
240
1568
1200
1104
-688
-128
-432
320
-496
-736
-320
-48
656
1424
-448
-48
1040
-112
-16
16
-256
-816
-688
160
576
656
-32
384
896
-480
-608
-128
-608
-384
-1024
-528
-1744
-1328
-1632
352
1488
-512
-592
-1312
-1280
-304
-624
-1104
48
-400
128
928
256
384
-400
0
256
784
1200
672
-144
-560
-48
1248
416
-64
1088
-448
-1344
-496
976
656
800
1568
1248
720
-624
-448
-656
-640
-656
224
-224
-416
-1200
-80
544
1104
1184
-512
-704
1904
592
-112
560
144
-592
704
1120
576
720
768
176
464
1184
352
-352
-512
-944
-848
-608
-1056
-688
-496
864
592
-576
-160
-320
112
-848
800
-560
-192
1920
48
-448
-112
304
1744
704
-416
96
48
432
-448
-1408
144
480
-1040
224
-480
-192
80
288
592
928
656
-144
48
208
256
-640
80
-1024
-144
608
1168
528
-896
128
352
-320
-896
128
400
-64
-688
-144
1040
800
-144
128
400
-304
880
1232
112
336
80
-1008
176
864
-208
-624
-624
208
-288
-640
112
128
-720
832
-1104
-560
-1024
-992
-528
592
112
-368
896
544
272
-960
384
800
1248
1088
-400
-784
352
-48
400
1168
432
160
496
128
288
0
48
-1232
-256
256
432
640
-432
1312
1120
816
896
1872
112
0
736
432
-64
320
-32
48
112
-416
-800
-768
144
992
112
208
-512
-544
-496
-304
640
-48
-224
-272
-768
-768
656
304
-1184
-160
1152
-128
48
-1440
-1552
-688
-1008
-1408
-1296
464
208
-272
-96
-560
-288
-832
432
1216
896
880
160
-416
-16
-496
-352
448
-384
-1056
304
688
64
368
352
848
880
-32
-1504
-512
0
80
-1168
64
-496
-512
192
80
-64
208
-48
-16
-464
-80
-192
-912
-128
-688
-592
192
-480
-656
160
32
64
208
992
720
-128
-400
256
-896
-352
656
112
-560
304
416
-624
-32
1168
-400
-416
-432
-1280
-1152
-336
400
1312
1152
720
144
-448
-304
-48
-816
448
64
720
96
-192
400
-272
-576
-1136
-1376
144
656
736
512
208
-128
176
1184
848
1040
-368
80
-112
176
96
320
208
-352
-528
-656
208
-528
-1552
-1024
-1008
-1312
-560
1168
720
-1280
-1248
-1024
144
-80
48
-816
-1072
-816
160
-32
-384
-608
240
192
-496
160
-1040
-1552
-1632
-1072
-896
-96
544
144
96
144
-720
-80
752
400
-64
144
112
432
432
224
688
256
-208
-96
576
176
-1008
224
-896
-1184
672
176
736
1056
304
752
848
928
1120
1776
432
-704
-336
128
288
512
-560
-688
-944
-448
880
816
0
-640
-768
-1008
-352
-208
-400
-1520
-1280
544
544
736
-112
-288
-560
-704
608
688
96
528
-32
-64
-304
112
16
-1184
-1568
-896
-528
432
-608
-80
128
-1072
624
784
304
352
1056
944
1216
496
1344
880
624
1040
784
176
-624
-160
320
80
1648
1872
1008
-400
-768
-416
752
336
-576
-704
128
-272
-704
368
-160
-1344
-736
-112
352
1104
48
-96
880
128
-112
-464
-912
-1424
-1120
-112
-512
-496
416
144
608
-32
-96
-432
336
-176
-704
-784
-320
496
1328
-448
-688
1424
336
64
-400
48
144
416
336
-944
-304
-1056
176
1616
1152
-432
-336
-464
-576
-416
-336
-624
480
-336
480
1200
-640
464
576
-288
-288
-960
-656
-192
-32
-880
144
-368
32
1264
-64
-336
-432
1200
384
448
416
-304
-672
384
80
480
640
-480
608
1120
912
1136
-224
-64
304
-368
800
448
1088
1120
976
1184
752
304
768
-512
-944
-608
-1264
-608
-720
-1616
-912
320
-464
-192
-384
-416
-1360
-784
320
-240
-512
-128
-800
-880
-736
-784
-144
-1296
-1456
-1408
-48
688
192
-1168
176
1440
-240
-896
-688
576
1408
1296
-32
-176
-448
-368
208
1312
1216
1568
464
960
400
928
576
-240
336
-112
-144
-416
-352
-208
528
944
752
320
-496
-368
80
-784
-880
176
-336
352
16
-720
-944
-336
96
1296
-512
-304
512
704
624
-224
-624
-1024
-1248
-240
0
-64
256
-96
864
384
416
384
-1024
-720
-688
-96
-784
-1296
-688
-624
112
-48
336
816
448
-1072
-608
-384
-1488
96
-560
-1696
-592
-96
-16
-144
-112
800
608
464
208
144
160
-320
160
-560
304
1104
400
-384
-768
-672
-144
208
1696
-624
-528
-368
-192
-224
-512
800
-960
-1920
832
1712
0
112
832
1472
1440
-688
-1760
-1136
-1664
-560
464
464
560
128
720
-16
496
-176
336
-672
-1408
-1024
-928
-896
-144
496
320
208
1152
1008
704
336
512
-976
-576
-496
-1328
-32
-16
-560
-592
-16
880
1408
400
336
-208
-416
48
-416
160
-1120
-640
-176
-304
-208
-112
-864
64
-1136
320
800
112
48
-1344
0
1616
592
1024
832
-640
-144
960
528
-928
-1152
-528
-432
-1904
-1680
656
-848
-1056
-1248
64
-544
608
688
496
464
1136
1792
1248
-96
-64
1104
-144
-256
-608
-352
608
1024
848
16
-672
-272
-48
128
-320
144
32
-816
-320
496
816
1920
400
-256
-640
784
1024
48
-464
-592
-1040
-496
-64
-32
-528
-208
-1232
176
-224
-1024
160
1264
624
624
1072
624
768
1840
592
1264
1008
352
96
1184
736
560
160
-1504
80
-560
-1280
-832
-48
-64
-160
544
1136
-816
-224
1216
-272
-688
-592
-288
-288
-288
-208
672
-368
-48
848
16
64
528
-848
-832
-1152
-448
-608
-192
336
544
832
896
528
-512
-1024
112
-400
912
0
-1056
-544
-560
-336
432
-304
-80
848
608
288
-128
-704
-688
-656
-736
-48
128
-576
640
-304
-592
304
256
-880
-576
-1296
-912
-640
128
48
288
1264
720
-32
-896
-416
-1936
-2000
0
480
832
1104
416
-1184
-48
80
-192
-336
-1280
160
352
560
-880
-416
-432
432
-400
-1952
-384
96
1200
1072
272
1472
1360
-1184
-720
-1504
-720
1056
784
-16
176
352
880
928
1200
400
608
352
448
960
640
672
800
1200
-512
352
1504
208
464
352
-464
144
416
816
256
0
-832
-976
96
544
-672
-912
720
1136
848
896
-912
-832
-960
-864
-624
-240
-192
96
-208
272
1104
1712
592
-96
832
1936
912
240
1680
272
496
1120
-208
-352
1104
528
96
928
-320
-448
336
720
-256
-208
128
-944
-272
-1344
-1824
-1936
-1024
-16
448
720
-368
-448
1056
-192
-288
-144
-816
384
480
448
336
-1120
-704
-16
-688
1040
1152
768
64
-144
304
624
-1920
-864
640
80
-432
-848
-1008
144
-176
80
32
640
1520
1456
-128
-496
-352
-256
704
-384
-464
-416
-256
288
-96
176
720
240
560
240
-416
-560
-80
-352
176
720
-192
32
80
240
-288
-32
624
240
-64
704
736
-992
-1168
-304
-944
16
80
384
-192
320
464
432
176
-336
64
-272
128
896
992
-752
-1008
176
528
496
-176
-1104
-1664
448
912
400
224
-720
-1120
-832
224
896
608
688
384
-1440
-1104
64
496
-304
-816
-928
-1056
-624
96
-768
784
672
-880
-272
-1408
-1600
-1072
-352
-416
-592
-144
-1088
-512
144
-512
-400
256
192
48
-304
-1296
320
976
-128
-480
-1456
-1152
592
352
400
1376
624
-1088
-80
-464
176
608
-704
-832
-624
-752
-16
-640
-192
544
-160
16
832
-816
-1888
224
1600
864
144
544
-128
96
-640
96
-496
-496
224
928
656
944
1648
1008
304
192
752
64
-896
-112
-272
432
304
-48
1424
-800
-656
416
160
64
-768
-576
480
208
320
80
-352
32
256
192
-464
480
1472
1632
880
848
-288
704
-480
-1696
-352
1712
-240
-496
-944
-608
-928
896
720
-480
-496
592
1984
-352
400
256
672
496
832
1264
256
-432
448
16
-80
-112
-944
-784
208
992
-576
-336
0
-832
-560
784
800
-848
-752
944
512
224
-240
-544
272
-288
-464
-656
-528
-1664
-928
704
-384
-880
-848
512
-128
592
1200
352
-320
-192
1152
1392
608
-192
1040
912
320
-432
-352
-96
0
-320
80
-400
-176
-240
144
272
1040
1552
-336
912
-128
-192
-592
-752
-992
-112
608
496
-80
80
-1552
-1136
-64
-208
-848
-400
-224
-192
-1056
-1120
-464
-1216
-880
-1648
-864
464
1168
400
-304
-272
176
544
-864
-768
-1088
352
-752
-192
-496
-176
0
-160
-16
-1520
192
352
-128
-544
-1120
-464
448
496
1312
512
-512
-320
480
80
592
1424
128
-240
-336
-496
560
384
512
864
-544
80
288
-64
-288
-1072
-656
-144
-192
672
1424
-448
32
144
864
1600
832
528
32
-272
912
288
64
784
64
1056
352
-544
336
144
-48
64
240
416
1408
704
288
-48
736
-304
-1408
-1392
-560
-720
368
320
240
208
-64
-304
256
-704
-512
208
1040
592
-992
-128
-112
-256
960
848
-224
-1504
384
288
1024
-608
-240
1328
224
-176
192
432
432
544
-192
-608
80
592
352
-64
-848
1248
576
-384
1088
288
-64
-512
-848
256
560
-224
112
816
-16
-496
-416
32
-272
-128
928
80
896
656
-976
-288
336
-544
-496
1184
1312
624
816
1168
480
112
-816
-672
432
800
-464
-784
576
352
-464
-528
-960
-304
480
112
336
1728
1232
-1344
-576
624
1840
-912
-272
704
368
-336
32
320
-1008
-832
-1104
-976
-432
-208
-80
-1200
-1040
-128
-960
-800
-160
-384
240
496
704
624
336
-16
-80
1360
896
16
192
448
512
32
-304
-1184
-800
-224
768
896
-128
0
48
624
-240
-80
1040
-192
-320
-240
256
944
912
48
-432
-1456
-448
-160
320
144
176
400
32
-768
400
-1136
-1648
336
1312
560
736
304
48
928
368
-368
-256
-1456
368
-272
-416
-672
-608
-688
-160
656
192
176
1440
-128
-448
288
-832
-928
-608
-672
-512
192
128
-592
448
-80
-576
-800
992
560
-208
-144
144
32
-208
-832
-544
96
528
1104
352
528
-1040
-384
-208
-48
-352
-320
-304
-352
-512
-1120
-752
-96
96
336
848
240
288
1360
688
496
-112
864
208
80
-80
-96
-512
400
688
-304
-400
208
-368
192
-256
-192
-880
-1424
1280
192
432
-400
-224
-608
-320
-160
-720
-736
592
560
992
1088
544
368
-1024
-256
32
-544
-528
-624
-288
480
144
-304
608
288
-352
272
416
624
432
528
384
-96
-624
384
576
944
240
80
-528
-1296
-1152
592
304
672
-1136
768
1120
1216
-32
-1152
-592
-1888
-1264
-1136
-1264
704
224
448
-320
592
-1184
-80
-208
-320
-160
-976
-1040
-80
16
240
-352
-768
-112
-352
-736
-464
336
688
1120
224
128
496
912
1200
112
-560
-512
-448
-1264
-1264
-416
304
48
1392
992
-96
-160
-688
-128
432
0
-1840
-1312
208
-128
-1136
-944
-944
-656
-528
-16
-976
0
176
-1184
-624
-480
-544
-288
752
-208
-1168
-592
176
640
560
-240
-208
608
-112
-1216
-208
1056
496
544
80
256
-704
-224
752
224
-1840
-1520
-16
512
96
-352
-480
320
1712
1856
-128
-944
176
240
1152
224
96
688
352
576
-144
-912
-16
-240
128
-368
-1408
-208
176
-1088
-1312
-1328
-480
800
256
-128
-432
-32
-16
-672
-32
192
736
432
-464
352
-128
-144
-624
-1424
-576
16
-864
224
208
-624
960
560
400
736
768
224
64
240
-400
-1152
-416
16
-240
-464
96
608
816
-544
-528
-320
-480
-928
-16
128
208
-656
-160
-1328
-144
-592
-400
-576
0
-160
192
752
1488
-64
-816
-608
-144
400
-448
-208
-64
-400
-640
240
336
-704
864
-32
-816
560
-464
-784
416
1216
1456
912
288
528
832
-80
-336
800
-80
384
1440
-192
-1584
-608
576
-144
528
-192
-560
-208
576
1264
992
-592
-1648
-1328
-176
80
96
1040
96
176
-864
-1216
-1824
-480
16
544
-80
-640
-496
-864
-832
-1264
32
592
-192
64
-880
-1568
-672
1440
1088
-688
-1280
-304
-400
368
-656
48
752
944
512
1104
112
-208
-256
368
608
96
-192
336
-1776
-848
-704
-368
128
528
800
-576
448
1056
144
368
-320
448
1232
336
-496
592
0
592
512
1072
1136
352
0
480
1168
160
-176
16
-496
912
0
-64
480
1264
288
-464
-608
-192
1136
544
-544
-80
864
-96
-688
-656
-432
-288
-272
-512
-16
-128
384
-352
-784
-1792
-608
-1056
-464
-1584
224
416
448
-144
256
848
32
-496
-976
-1232
-416
-992
-608
176
48
-80
-448
-368
336
848
1168
688
256
-752
-1216
688
512
176
-1200
-272
1104
672
448
-1056
336
-160
-240
992
656
256
656
-240
1216
800
-32
-784
608
1408
1456
32
-416
-464
416
80
-288
-576
-464
-368
368
-960
1088
416
-304
960
-432
-480
-1648
-2016
-320
-304
-64
1312
944
336
144
-160
368
528
544
416
0
1200
336
-144
736
128
112
112
-32
400
1312
656
480
720
1024
928
-16
-480
-240
-352
-656
-1856
336
208
480
-336
960
1360
720
-1120
-1360
-272
-208
-608
-688
-112
1712
240
-608
-208
208
-496
-1136
-864
432
1440
0
-192
720
-16
480
-432
688
1072
672
-256
560
480
-592
-672
576
752
-416
-240
176
832
1008
336
-288
-464
144
-160
176
-464
-1120
-1632
-48
-688
688
896
496
752
2000
320
720
0
-304
-272
576
1088
768
-128
288
608
192
-176
-144
256
752
-1280
-944
-720
-176
-592
-304
-768
-48
704
1328
1488
-448
432
416
496
-208
-80
32
656
176
-16
-816
-944
-1280
-1056
-1616
-784
-192
-16
-448
-48
1296
0
1120
672
768
144
-240
-752
-560
1280
1360
512
0
-432
-336
-96
160
64
336
-96
32
-416
320
-144
-112
1072
960
-560
-192
16
336
528
128
192
-240
-272
-1184
-816
-272
-336
80
1072
848
128
-400
640
784
-432
-464
416
464
1088
576
-224
-576
1440
1040
-304
32
560
240
-848
-1680
-624
704
784
448
832
1184
-144
-576
-32
384
-448
-432
-704
192
544
1152
672
256
560
-944
-800
-256
288
-448
-320
-576
-96
208
16
272
544
688
256
-384
-816
-1104
-160
-112
-160
-96
800
1200
176
160
336
528
320
-48
-416
-736
32
-336
-144
544
-96
64
48
112
160
176
160
128
512
320
1056
112
256
48
160
-784
80
448
1040
576
-32
-368
496
-448
-1664
-624
-112
384
-752
-1344
-1648
-832
-272
-304
752
448
-848
608
720
-1056
-1136
288
-1024
-1680
-880
-352
-96
-352
96
-80
576
1056
128
304
912
1504
1712
560
-752
-80
32
1104
-192
-416
416
784
624
96
-144
128
992
-80
32
224
-368
528
688
-1104
-1184
-1008
-208
-1280
-1184
272
-32
-624
-784
1072
-816
-432
-80
-16
352
816
1232
800
-528
-64
0
480
-224
-848
-64
-256
-1504
-1040
-224
-224
-336
-1024
-240
736
-272
-704
-768
-368
608
480
-192
624
1088
-224
-704
704
720
-704
-240
-416
-80
320
896
-480
-512
128
16
-208
16
-128
544
848
32
-208
656
-496
-768
-48
640
-464
-1472
-208
-496
-1344
-432
-1008
-400
512
-832
-528
-400
-1136
-880
-736
-608
576
1040
16
-832
-1120
160
944
1408
928
256
-688
-208
-208
-304
-432
800
-192
-496
-864
-496
-784
-912
-880
256
1616
816
592
-752
112
944
848
752
208
144
48
-304
-704
-32
64
176
512
-416
-448
32
720
736
288
624
400
64
608
-80
-560
-384
-128
352
-288
-784
-464
-1264
-96
-64
-1424
-1120
-832
496
-64
-1008
576
144
-1120
432
192
-272
368
576
-592
-144
1488
528
64
-208
-512
208
-272
928
1408
544
752
400
16
-544
-480
-384
-416
512
1344
64
592
-16
-288
-384
32
-624
-656
784
656
240
-752
-432
576
-576
640
-32
-736
-832
-992
64
80
832
144
-720
16
48
144
480
96
208
528
1056
624
1024
-288
1264
1008
672
384
192
-416
-1024
-848
384
608
656
-208
-368
480
-784
-1344
-624
-1072
-1536
-400
-1584
-576
-400
-640
-480
-464
0
-1248
-1200
768
1552
1136
960
-496
432
-272
32
-48
-224
384
160
464
752
16
-288
-416
128
240
1120
848
-416
-784
-240
240
448
-272
-176
864
32
-528
-720
-720
-1024
800
192
48
880
432
544
848
1104
784
-16
-912
-688
1376
608
-128
608
928
2016
1568
80
80
848
912
896
0
304
416
-432
-1056
112
224
-272
704
528
-96
-608
-1536
-240
1216
1104
1392
240
-336
0
112
784
1040
128
448
416
-464
-688
-368
-1168
656
288
80
80
-736
384
288
464
464
320
224
992
560
-224
256
-576
1088
-240
96
1040
-160
-1408
-944
-96
784
-192
752
-16
128
1328
1184
-656
-752
32
912
464
-320
928
-720
304
432
432
368
16
-400
416
944
688
1296
192
-400
-128
-736
-1136
-272
-16
272
800
-128
-256
-528
-272
448
144
-320
-624
-64
-576
-864
-464
-1248
480
352
1392
1776
1168
-16
1152
-672
128
-688
608
832
512
208
112
-96
-480
-1088
320
-256
-288
704
-272
-1808
-1520
-48
-640
-624
-624
624
-1808
-1584
-1312
-1872
-1088
1040
1152
32
-112
-528
592
992
48
-384
160
432
16
-304
-640
-320
720
1200
480
-576
-368
-80
-1360
-736
656
576
48
-416
-720
-208
-1392
-240
-304
-1280
-192
992
976
-720
-112
-448
-160
304
80
-240
944
1264
640
768
208
-16
336
1328
1216
-208
-640
-288
960
16
1952
320
-832
-1264
-464
-240
-1888
-224
-1328
1008
384
-576
-1504
-576
-1632
-304
336
-368
352
32
32
-480
-320
-304
400
-912
-320
-384
-800
640
-144
-640
-448
192
320
288
384
-144
128
384
-864
-48
1040
1040
48
1120
336
464
112
-640
1040
64
-384
608
1504
848
976
-96
384
832
480
592
656
304
416
-96
-272
-624
144
-592
-1024
-1104
-1504
-848
-256
-240
832
1024
784
384
208
416
-512
208
576
-176
432
-368
-592
-1328
-1120
1664
944
128
-208
-576
-736
-64
512
-208
512
352
384
-256
0
1168
496
992
320
512
112
-1312
-1296
-864
-848
-656
-720
-816
176
-512
-48
320
-960
48
16
-864
-672
80
656
480
528
-288
576
848
-320
-80
-240
-1056
-1136
480
1088
176
-1072
720
-192
-560
32
-192
-144
-320
-496
32
-560
-496
832
1136
1264
1616
1296
320
16
-704
-288
-336
128
-1264
-688
608
688
-160
768
1328
1328
32
448
816
448
-272
176
512
-576
-256
-352
416
96
-672
-416
112
96
304
640
144
-64
192
704
1360
0
-144
-640
-496
-288
-224
-672
-512
240
464
-1264
-160
-1824
-816
224
368
-704
-1568
480
-208
-896
448
272
-288
576
-608
-352
-608
560
1696
80
544
832
1024
-80
-192
-400
288
96
528
160
160
208
304
592
608
208
-336
176
624
464
-32
-528
-1504
-1344
-240
-64
-464
192
16
272
-1104
-1104
-1296
-1168
-224
48
112
-544
-304
-272
704
560
-352
-736
-608
-144
416
1216
832
-688
-160
96
-832
-1600
-976
-1200
-704
-192
-816
-256
-368
-512
-240
-1552
-1424
336
1232
-608
768
-32
-400
-928
304
16
288
-48
640
1200
-176
-368
656
-192
-1312
-80
288
-16
-608
-512
-112
-464
320
400
-464
432
1584
736
-320
128
-32
-1472
816
368
320
304
1200
1440
848
-96
-384
80
-112
-448
80
176
192
416
-320
448
1312
416
-976
-384
32
-240
336
560
528
-592
-1184
368
1168
464
736
640
448
496
-112
624
96
704
320
1088
192
-928
-1632
0
528
624
144
-432
-416
-1136
-784
512
496
352
176
64
528
496
432
-416
-64
928
512
496
912
-208
-336
-592
-304
-272
-944
-1584
-224
48
-1248
288
464
256
16
-560
-688
-80
192
432
-624
-336
-48
128
-448
320
704
960
512
-624
0
-256
688
-416
-848
272
352
848
640
-704
-208
-816
-160
-1472
-1296
-288
-608
-624
640
544
480
1328
1792
928
-1264
-160
-352
608
-1856
-528
80
1088
1504
384
800
800
-336
-240
-160
-112
-1040
416
1120
352
-240
880
352
1136
336
496
-432
128
1632
336
192
-1216
-32
-928
-1824
432
1312
560
-464
-112
1328
544
48
320
1376
992
864
-768
32
320
560
128
288
496
-1088
-416
-832
-640
528
16
288
1392
1168
256
-432
-704
-928
-64
-336
-304
352
-64
-384
-720
704
48
0
208
-912
784
-160
512
432
336
-112
240
1280
272
-608
-816
400
752
64
144
-288
-1136
-304
288
1696
1568
-384
-688
-672
-608
176
576
1200
752
-80
-528
416
256
-1168
-816
0
640
1312
-208
-288
864
1088
-432
368
-48
1440
736
-1008
-480
272
512
352
320
944
-576
-944
1040
752
160
-1168
-1744
64
1472
-592
-704
16
688
0
-160
-416
720
320
576
448
768
512
-976
-960
-352
-80
-128
-336
112
288
176
-224
-64
-528
-304
400
-1152
-96
1232
560
-336
304
1408
768
256
-1568
272
-80
-672
-640
-640
-288
-464
496
1456
1568
304
576
-304
-640
-288
-192
-336
-304
-448
464
-464
-496
208
784
1344
480
480
1888
1184
1072
48
528
-1200
16
256
272
-864
-272
-96
208
-64
512
-848
1024
304
-896
-272
-1344
64
208
1536
-272
-1008
-160
448
304
-608
-48
-944
624
512
-512
432
-768
-560
-96
208
-272
-976
-848
-32
-448
1440
1408
32
960
-576
-624
912
1024
-336
96
128
-192
-688
-800
-32
320
688
-416
-800
224
640
-96
624
160
704
880
384
880
480
-928
-80
208
1040
896
-224
96
1104
-240
-1152
-1328
-704
-32
16
-736
-96
-464
560
944
80
976
1024
768
160
752
64
-128
-176
-560
32
560
464
368
416
32
-144
400
-96
352
256
608
96
-944
-1344
-656
576
-176
-1760
-928
-352
-320
-896
80
-128
480
960
416
-480
-176
-672
736
672
-128
496
592
784
704
928
-464
-160
-816
-496
-144
-384
-560
-352
368
-1280
-1232
-288
320
384
-464
272
1680
784
1056
-720
-112
-224
928
480
432
-272
-1024
-720
-480
-544
-864
1520
1488
880
896
112
-400
-1632
-1344
-608
-528
-80
-800
-560
-112
448
352
528
336
736
480
-320
-128
256
512
16
-64
-144
-560
-176
-544
-640
880
1408
416
560
192
288
-224
48
-176
-640
896
224
272
0
-928
320
-640
-704
240
416
1680
-192
-512
432
656
1200
1120
480
-704
-560
144
-1968
-1968
-288
672
1232
800
16
-368
-448
-336
-592
-816
16
-160
-720
-1264
-1568
-1344
-960
-608
1040
1168
96
16
288
-560
-128
-640
-416
352
1392
448
80
16
800
368
-912
-384
-336
-880
-576
976
112
64
704
272
-336
-768
-736
496
64
-1616
-656
-288
64
-896
-1200
-240
-448
-96
-208
896
672
-1056
-80
-112
800
1808
1200
480
608
688
464
656
-384
96
-1888
-1120
-1088
-736
864
-432
-800
-656
16
-224
560
928
32
-640
-112
368
-288
-1792
-1744
-304
-560
-496
-608
32
544
-512
-240
96
-2000
-576
-960
-1856
-240
-496
-1248
-880
-192
-240
-528
-112
736
576
768
416
160
-1312
-832
48
-912
-1392
384
896
1040
1200
304
224
592
-240
-464
656
912
112
-400
-448
-512
-160
-160
224
0
256
-784
176
848
-112
352
672
144
64
1616
480
272
-576
-80
368
-304
608
224
-64
816
640
1024
128
176
-752
-672
-1392
-272
-320
-48
-576
496
272
32
784
288
-128
-688
-592
1232
1488
304
1312
80
496
-16
-784
-928
464
112
-672
416
448
512
64
-336
-528
-144
-32
528
144
-1808
-144
-1296
-144
0
16
-416
384
144
832
944
592
-816
-704
-464
0
464
848
-112
64
576
64
464
-368
-96
672
768
16
192
1392
-528
-1392
-480
-1200
-448
32
-496
288
880
544
-48
1360
144
-656
-704
672
144
704
768
-1024
-688
-160
-320
256
-512
-656
352
16
-720
-464
272
0
-416
0
624
272
-1168
-496
-528
576
304
1408
544
-368
-592
-96
240
-688
-240
48
944
960
864
672
560
720
592
672
1264
-816
-336
304
656
-1312
-256
272
160
-96
896
1296
0
-64
-432
-976
-224
1216
1280
-192
-688
672
1872
1120
-576
-48
16
-368
608
288
-80
-128
-128
-1088
-400
-1408
-720
448
-864
-432
208
-384
-1056
-336
448
-128
352
176
576
640
-144
-272
-1280
-464
368
384
432
16
-1360
-1552
-416
368
544
-240
656
1536
1184
-112
176
-320
-736
-416
-192
-528
112
496
256
528
-272
-416
-304
-816
-480
-1136
-656
368
-560
-720
336
288
-496
-1232
-640
240
-624
144
1824
352
-384
256
176
384
528
1056
16
464
128
1136
800
592
-160
-128
-384
176
1392
448
-1328
-768
1536
240
-272
224
704
32
-560
-1136
80
1168
768
384
-1264
-16
608
-416
320
272
288
48
-1024
336
-256
432
400
-528
-880
-496
-352
144
-736
-16
-512
-1680
-480
-464
224
-704
-528
192
-672
-64
1632
608
176
304
880
1536
240
48
224
416
368
-864
-752
-1152
-1840
-720
512
1008
816
784
128
816
704
-288
-64
1472
384
160
1760
688
128
-688
880
176
-448
272
-16
96
-800
64
-96
48
464
176
160
640
16
-256
-192
-352
-240
416
-704
-1248
-992
-624
-192
32
752
336
-368
304
-384
-336
-208
-64
-160
192
-400
-448
112
928
800
512
-96
-144
-1024
-656
-368
-1024
-448
1328
1456
464
-1680
-848
-48
624
-96
-704
-400
656
336
144
496
-240
592
-416
-1824
-1488
-192
-432
-704
384
480
-352
-480
-688
-304
-384
112
208
-144
-672
-80
-1168
464
-112
64
0
560
224
-688
-592
576
-352
-704
-608
256
256
-224
-816
-1344
1872
368
-768
944
960
-384
-320
96
528
-432
224
-576
-576
480
1024
768
-160
608
-880
-256
80
-1312
-656
224
-352
-512
-2048
-1568
-304
192
448
-288
576
960
480
912
-32
-624
496
912
-1088
-1120
816
992
1344
1088
16
48
480
448
80
-768
-752
-640
-272
416
-464
-288
1296
-208
-1024
-464
-864
368
144
-160
-528
-528
-384
16
-176
-528
-256
-208
-656
832
1088
-896
432
-640
-352
320
-288
-1632
-304
-448
-720
-240
720
512
320
160
-32
256
1280
-592
-592
640
192
912
48
-576
-800
736
128
-240
16
-160
1072
720
384
192
-688
-752
-48
1120
480
-1072
-1968
-1008
-704
-128
0
-592
-544
-272
864
272
-1120
-880
-16
-416
-272
-128
784
-96
432
816
160
112
144
1088
1328
496
768
832
464
-496
-272
-576
624
368
624
-48
16
-64
-432
-1264
-1280
-1504
-192
-560
-112
736
768
496
-624
176
1040
144
-64
192
-112
672
-1184
-96
-1904
-752
-32
96
-560
-224
-64
880
-672
400
208
-784
-992
-480
416
176
-48
-256
-528
-240
32
-240
704
624
432
-416
240
32
1360
864
-608
-400
-1360
-1024
-992
-48
800
-496
192
-608
-144
768
64
-528
-464
624
-912
-1872
-1440
-1648
-576
-592
-656
-112
16
16
-464
912
208
-192
-912
-768
-176
240
336
-368
-976
352
-96
-384
304
-160
-528
-384
128
352
-272
-544
-896
608
-224
-752
704
784
-768
-352
-320
-128
-64
-240
-704
368
720
224
-240
-560
192
-192
16
-32
800
688
-1520
-608
-48
-336
640
656
48
-1104
-16
560
-288
-704
-288
0
-1008
944
1040
432
1040
-272
-816
16
-256
-944
-448
-256
-848
-160
768
448
-992
-832
208
2032
1568
-720
-1040
-224
416
1520
-240
-160
512
1072
1024
592
544
448
-560
-464
-784
0
-16
-480
1024
272
-48
-208
-672
-784
-944
992
336
256
240
-112
-368
-1328
-432
-304
-64
-560
-848
-432
32
80
-720
-1568
-1696
-432
-320
688
192
1232
400
-96
1424
1168
16
432
112
320
0
-688
32
1584
1184
832
928
592
656
480
672
768
-976
-112
-80
-112
-720
-1200
-432
-416
-96
-160
-1216
-1584
-1136
-896
400
640
-784
-688
-224
-64
-496
-656
-672
448
1744
368
-912
-1088
-1536
-592
848
-1072
-176
-704
624
576
-208
32
1360
496
-80
-592
-592
192
-224
272
1088
352
96
-208
80
16
-208
1664
-96
-784
48
-528
-320
144
-384
-1152
272
576
992
288
-880
-320
368
576
-448
-864
-976
752
-544
-368
-288
96
176
-64
-560
-1280
-1472
-192
256
-560
-1104
0
-1520
-1472
272
1536
1696
416
-80
-272
576
-896
-128
368
160
-528
-1056
288
-752
32
848
1200
224
-480
800
-1120
-192
736
-112
256
1024
208
-448
-784
-528
-560
-1552
-752
288
1168
32
368
-528
-512
-880
-816
288
-1296
-1648
-1008
-416
-480
-976
-480
-272
-528
-624
176
416
-320
576
288
656
832
336
-864
-160
-448
-864
144
-96
-64
112
560
1152
816
-1216
-880
896
864
992
752
752
480
192
-240
96
-768
-208
160
-256
784
1824
768
48
-592
-560
736
464
256
-624
-704
-368
-608
-1408
-416
-384
528
1472
-240
-656
-656
0
512
-416
-272
-848
-1168
192
1440
1088
-144
-960
-304
176
-1040
32
-64
432
16
-592
80
-624
32
864
1264
736
-464
-320
-624
192
288
464
528
-448
-352
-64
1280
448
1104
1424
576
256
-416
-80
-1056
-512
848
384
80
16
256
496
176
176
128
-384
352
256
272
-480
-512
368
-912
-320
-112
688
1536
352
624
-208
-1232
432
1008
528
1120
1296
624
272
736
256
-384
912
1312
-544
-688
-400
-544
-160
-896
-448
1456
1168
32
-64
704
-336
592
544
-432
-272
400
-576
480
576
-624
16
-880
-736
-1184
528
1424
576
-368
-864
-560
-800
-1200
80
272
288
272
768
112
-736
-160
592
-384
416
-368
-384
-112
1584
544
-1296
-672
-336
-64
432
448
512
432
496
848
1088
-752
-96
-1232
-272
-160
368
240
224
-32
144
-688
-448
-976
480
912
-128
-1104
-1392
16
784
416
1184
816
768
960
816
-400
768
1024
640
608
-240
-688
-688
-576
-304
-240
368
-352
432
272
512
528
-608
432
1008
-416
-80
736
16
-832
-144
304
-480
-208
-480
64
144
688
352
240
-816
80
1008
-1008
-1120
80
128
1488
784
-16
320
80
368
-784
-1328
-1184
-1104
-976
336
-112
-80
-528
-1376
-656
-160
96
-64
-80
1216
416
-208
624
912
384
48
-384
-960
-496
160
-528
-752
-1600
-1920
-304
736
0
-528
48
-464
784
848
1008
544
-368
-368
16
352
-992
-544
-960
-1376
112
544
-176
704
560
-400
320
896
1264
576
-1152
-1632
-896
800
-272
-288
-80
-592
-480
848
-240
992
0
-896
464
720
1232
160
528
624
864
368
-224
-304
112
976
-672
672
1888
576
1424
736
48
192
432
384
-736
-320
1072
-544
-864
-240
400
-784
224
416
-608
-1504
-96
64
192
-336
-32
560
832
144
-400
368
80
608
-672
-1136
384
400
528
-336
368
848
848
768
2016
1024
-304
560
288
752
1312
-208
288
-352
992
480
-544
-1520
-32
-464
512
80
736
96
752
912
-144
-1584
-944
-1408
-800
240
560
992
192
-128
464
1728
432
384
816
192
352
672
-352
-816
448
-272
-224
-672
-880
288
0
-912
-1072
-368
752
-192
208
32
96
16
384
720
208
-800
-528
784
576
528
-112
224
-320
192
-688
-976
240
480
-720
560
544
-1104
-672
-784
-592
-208
-608
-80
1040
1168
1360
-352
-528
-848
-960
800
-128
896
672
-448
848
-688
464
224
-944
672
768
368
0
-288
-544
656
1136
384
-384
-1152
-240
288
-48
512
-144
512
192
160
400
1072
1328
-80
496
416
-112
720
336
752
608
-64
-320
576
1456
416
640
-1312
-352
0
-16
-128
160
160
64
224
272
272
960
752
288
1168
848
1488
1088
64
-1776
-320
176
1280
0
-656
-256
-80
-1312
624
464
-160
-304
-496
-672
-208
-592
480
-736
-656
1280
1968
816
-304
-608
-736
-832
-896
-448
-736
-400
-1936
-576
448
304
-528
-896
-608
-496
-288
-288
544
112
-512
480
432
64
32
-384
-816
-1216
192
-48
-16
224
464
-864
128
-208
160
-192
384
-432
-784
-1488
-432
-320
-1216
-416
-496
-400
-992
-576
-704
-208
-192
720
-368
-176
128
128
-496
-528
224
-720
-816
-512
48
144
-960
-192
-1776
-160
-384
144
1072
160
-704
-64
-912
-96
-16
384
112
192
208
144
-352
608
-624
1024
-304
192
-1104
-704
-752
-1808
-1184
-512
-1136
-1520
912
1088
704
-848
-784
-176
48
-320
-336
-720
832
-976
544
1136
1456
1568
-48
400
-560
-160
208
-528
-144
-784
-864
128
-1024
-1472
-880
-720
144
384
672
432
1104
672
96
160
-496
-352
288
128
480
896
976
368
304
-32
880
464
-656
656
352
-112
688
512
-736
-432
784
-704
-224
-304
-720
-736
-496
-768
-32
448
960
320
-304
-288
-624
208
-32
-688
-704
-240
-784
48
-192
-112
-192
-416
176
416
1120
-800
-848
-1088
-928
-224
1168
1744
272
256
272
496
176
-240
-1232
-448
-288
1520
368
-688
-944
-1344
-688
-1008
368
208
304
-16
-592
320
-656
208
352
-96
-1248
-80
-80
384
-496
80
448
-480
-352
720
80
-128
-16
496
-240
80
1216
864
1040
-896
-528
-224
-880
112
960
-240
-320
592
704
816
288
-848
192
128
0
96
304
288
608
624
1616
336
848
1856
592
-304
-1344
-608
-528
96
-672
-256
-816
-864
-1184
-640
-688
400
-320
-624
-1600
-256
208
-528
-448
-240
-992
-1808
-512
432
-480
-560
-1808
-1008
80
-320
-1680
-208
-704
1968
96
96
320
-832
224
1184
128
-144
224
464
-576
272
-992
-768
-176
-576
-1056
-656
192
-208
-1520
-80
-480
160
400
400
-208
-176
-208
-240
1472
128
96
368
-160
336
1136
-64
-640
-976
-1008
-1024
-400
-16
-752
-640
544
432
64
-1216
-624
-224
1488
912
1088
80
560
1904
784
240
176
-80
-656
1056
-304
-672
-800
-496
-1008
-528
64
272
368
112
-16
208
-544
-1264
-192
480
448
-1072
-528
320
-608
-144
1040
1136
1200
560
768
-96
32
112
-1424
-800
608
608
-464
528
656
544
544
80
-512
-320
432
944
-528
80
704
144
-816
-416
-896
-960
-720
16
1392
800
736
960
208
-1056
-512
544
960
1008
688
112
1088
288
-240
-1216
-768
-16
336
320
704
960
-144
672
1536
1328
224
336
1536
640
-464
640
-1296
-784
160
320
-608
-912
-160
496
464
624
32
464
1232
400
1472
1920
1408
128
-400
-608
-736
-1168
-224
1072
592
448
-608
-704
-368
592
1200
832
16
1168
432
-96
288
-1024
-512
256
416
512
976
416
-512
304
944
-992
-144
-720
-64
1104
496
-480
-1136
-1568
-1152
272
912
496
1008
64
-96
576
608
-48
480
112
-544
-608
-416
-160
256
-992
-944
-1024
-176
416
624
976
416
720
32
512
336
-1184
-624
-1024
-1152
-160
1120
304
1792
304
496
-304
-1296
816
704
-1168
368
-128
96
-80
784
2032
1728
-544
-1184
-704
928
96
368
256
1472
1152
416
64
224
432
624
544
96
1152
400
368
160
320
48
640
-1168
-432
464
320
-208
-32
-16
1536
880
384
1168
-368
-1200
-592
192
-656
720
320
320
-944
-1424
-272
-1760
-1744
-672
192
784
-224
-960
432
-1040
144
-176
-496
304
736
576
240
896
304
-928
496
96
-1184
-464
672
-336
512
768
544
-624
80
176
-224
-48
-720
-336
400
112
1568
1152
656
-64
576
-80
0
-496
-576
544
1024
800
880
224
256
-800
-656
-720
608
-352
-1024
96
-368
224
896
144
432
1072
1616
704
288
384
304
-832
-560
-496
288
752
1008
656
-224
-288
-112
144
-864
96
160
560
-496
-656
176
-224
-448
112
48
592
-800
-1136
-256
-448
816
320
528
-96
-256
-848
48
96
-224
64
688
1440
1808
656
-832
32
-112
-704
-32
128
144
1920
368
672
-160
-544
16
624
1120
1200
-624
352
448
288
1088
336
-1008
-528
-544
432
1360
-608
-720
-128
928
608
-720
-912
-32
528
-96
-1936
-1840
-384
-560
192
224
-320
-464
-208
-544
-784
-288
512
-768
-64
-32
-976
-1296
400
672
336
464
-1024
-1952
-880
1840
960
-832
-944
256
-80
160
-592
-464
176
784
1424
-800
-608
32
128
1168
1008
240
768
320
1008
288
1152
1808
-848
-688
-352
16
-272
-1504
-384
48
-464
-1232
336
-288
272
608
112
-240
384
-496
-1936
-1648
-688
-80
-608
-80
96
1040
704
-160
-816
-1424
-704
-560
-208
-224
-624
1056
1120
1104
288
592
800
-352
320
288
-464
640
480
464
-288
-816
-768
-672
-144
-528
560
-416
288
-80
-320
-1120
-64
-368
480
32
176
-720
448
336
-240
-352
-384
-208
112
688
-1360
-160
-1840
-1392
-624
-128
-176
-336
832
1232
800
768
-624
-1680
-848
464
-736
-1760
-1328
-128
-272
416
144
-1680
0
-544
-1200
-992
224
-32
-800
-864
-320
-352
-576
544
1024
1056
1136
112
768
1168
176
768
192
544
32
368
-224
-368
464
-48
-752
-944
-560
-688
-112
240
-256
576
1136
-272
-208
-416
-464
-592
-880
-1216
-640
-912
448
-240
-272
-1552
-304
-272
208
-1264
-352
-1200
-592
160
256
-80
-144
-1024
-272
-144
-336
64
-400
448
720
928
96
-1296
272
496
592
208
-944
80
1216
688
816
1824
256
-224
-592
-720
48
544
16
-128
-1696
-1120
-1168
-1120
-640
-1216
-1488
-464
-320
-1056
-16
-96
-1264
-768
-416
-352
-1328
-464
976
-304
-512
-144
-176
-704
-1360
-832
432
432
-800
-176
320
-496
496
-480
-48
-112
-272
-112
-400
-288
-16
224
-240
672
416
736
-64
-400
80
720
-448
-816
400
912
672
464
-272
-160
-768
-1792
-1312
224
-576
576
-1328
-1552
-336
608
32
640
1424
880
320
704
784
832
-784
-672
-304
-288
-880
0
-1552
-192
1920
496
-432
-1072
-608
-384
-48
848
352
-400
-720
-96
-592
480
176
-1024
-16
64
-336
-624
-416
-416
96
224
-496
-96
-416
176
352
-272
640
-208
-688
-112
-768
-112
912
-560
-1344
-368
-128
176
736
224
-880
-1088
608
672
288
-256
-768
-224
80
112
112
-1008
-288
-848
-336
224
-576
-128
-464
272
-304
496
192
736
1248
464
-496
-416
-128
992
-816
-1392
-208
800
1488
-560
-384
-112
-80
-528
688
1008
-320
-464
416
112
304
-240
-48
-608
-1536
-1040
-688
-224
96
-688
320
-416
1008
-352
-1088
-528
-848
-16
16
-800
112
912
96
-272
736
-544
-800
48
-608
-1040
-1264
304
736
832
0
576
608
272
448
304
-208
1104
976
-1040
-608
1376
416
-592
-352
-544
-1568
-240
432
1232
608
816
352
416
912
-208
-1552
-96
-144
-912
-672
-864
416
64
-512
-912
-640
-464
-272
560
1056
1264
928
512
-800
-16
128
-96
-96
-592
-960
192
-272
-336
544
960
-384
-416
-336
240
-192
-320
-176
-896
-608
-48
16
-1280
-1040
240
432
-256
672
512
-592
-272
-416
624
816
-1040
-352
784
-592
-400
960
96
-416
-512
-784
1312
832
352
-448
544
-640
384
-944
-720
528
896
-448
-784
368
256
224
16
880
1920
768
720
80
944
-560
-656
48
-1280
-1136
-1344
-176
-672
288
32
736
1200
-208
864
-752
-1760
128
16
-48
-944
-2032
-640
240
32
112
480
704
-304
16
1296
448
-256
144
80
-336
-608
-928
976
320
672
864
-448
-1536
-528
944
736
480
-1152
272
1024
1200
928
912
-272
32
240
848
48
-512
32
432
-656
-560
-608
192
688
-1520
-464
-96
-528
-432
-992
-656
32
1152
816
336
224
-48
352
-16
-144
16
-352
-560
-144
-352
-816
-736
112
-112
496
528
-240
640
-144
400
976
288
1360
1264
-1088
-144
80
-16
272
144
32
1168
352
960
464
64
-688
-832
-368
736
592
336
1792
944
-960
576
432
-80
880
-352
-576
576
96
-752
-656
-1024
160
-288
-1008
-608
-336
544
448
-272
-416
720
336
-576
-1280
128
592
720
-288
-336
144
656
1632
400
-112
864
992
304
-848
288
736
416
1216
720
560
304
112
-592
-688
-336
864
736
1536
1200
704
-1120
-1104
-320
-192
-288
144
576
48
-304
-96
-320
-384
-1280
-1104
-384
-912
-336
-864
144
80
-1376
176
-64
480
-512
-352
-496
-432
-160
-608
-400
0
-160
-208
512
480
-576
-848
-688
-32
80
64
1024
144
-224
-512
-512
448
752
-64
-400
768
1024
272
-1392
-848
-256
640
224
-64
704
384
656
96
-1056
-688
-672
688
-48
-64
96
384
352
-112
1008
704
0
-1136
112
-16
-464
-800
-608
-112
1008
336
544
112
1312
1040
-912
-736
544
1056
32
-976
-336
-192
-96
-1136
-1344
-576
432
-1072
-1344
-80
1632
2032
912
1088
0
352
1536
1456
320
16
-128
48
-80
-1456
-1520
-944
-368
1168
1200
224
368
-352
-288
-496
800
-160
0
160
-32
-496
-448
592
192
640
576
1344
784
512
464
-688
-1008
544
0
192
448
-384
848
-592
368
400
-1392
-464
544
160
-592
160
656
256
704
-192
-496
64
272
896
-16
112
-656
-240
144
-48
336
304
-96
-544
528
912
1344
432
432
240
560
0
320
-480
-1424
-112
208
-160
320
-96
-256
-624
-80
1520
256
240
656
1280
208
1056
-224
-112
1392
1024
688
368
-96
0
192
256
1168
1072
-144
-400
1792
1840
-96
-352
176
272
-464
1136
1296
752
-672
-1232
-496
-960
-336
448
1776
-112
240
608
1104
288
-1536
-800
-752
-976
-1184
-880
-144
-800
-912
-272
-1056
-256
320
-512
-688
272
752
-1056
96
-272
96
848
144
-128
1344
-320
752
32
-480
-416
-912
-752
1008
-128
-432
-768
-1168
-224
912
1072
1216
-48
1456
64
-1408
-1776
-960
-432
-16
-48
400
880
752
816
-224
-16
240
464
224
32
1216
896
-32
64
864
-480
448
-384
-368
544
1232
1664
-1200
-1360
-304
-320
592
288
304
128
-1264
-240
160
304
-48
560
-1136
272
352
-944
-608
-432
-448
1296
160
112
0
144
-304
-800
-336
0
-560
-640
-336
448
-432
-224
-336
128
-736
64
1344
752
960
64
-64
-16
-288
-160
0
0
176
288
1040
-16
-272
-592
1280
1584
64
-16
-272
672
736
112
-1040
-224
-16
-272
-560
-560
-1840
1200
1008
-16
368
2000
112
48
368
-608
-64
624
16
-1360
-944
-1088
-16
-1024
272
-192
528
144
560
-224
-656
-720
-1200
-464
544
160
304
1072
544
992
288
816
-336
-128
448
896
-272
-1280
-688
-48
320
-736
16
800
480
-272
-480
-432
-80
112
336
304
480
64
-384
-336
-16
-240
-240
736
688
208
992
-688
-608
-864
-1088
-1376
-1920
-1648
80
304
32
-1008
64
-176
-112
-368
-832
-608
-1120
-992
-992
416
624
-1104
64
-16
-560
-112
-352
-304
-704
-1104
-400
64
-48
1520
48
288
-144
-880
-448
-272
-384
-640
-608
-368
-624
-688
144
32
400
832
320
-400
848
752
704
704
-272
-896
112
-272
-32
448
432
496
16
1520
-592
-928
-704
304
-464
-384
368
-880
-80
1232
1552
1040
880
2032
384
-32
208
352
736
816
272
-496
-80
224
-208
-832
-928
-32
176
848
1264
384
-960
-160
400
-704
-1760
-1088
-288
-304
688
1680
1408
1168
544
80
32
112
-128
-416
-640
-1072
-576
-1120
-1248
512
656
-64
592
1248
160
1056
384
48
-784
-1072
-1296
-144
-448
-144
-1072
544
368
912
768
-208
-768
-304
1424
1152
-720
528
1296
816
1776
1248
-1600
-1104
1376
1312
784
448
16
208
-368
736
320
-224
128
560
320
432
272
-1072
-704
80
-176
528
336
-576
256
672
704
-784
464
336
-480
-80
544
1152
1360
624
144
-192
-48
-640
256
912
720
688
-320
-240
944
112
304
1376
-112
-288
0
-192
848
-432
-96
-208
336
688
1120
0
1120
-16
-880
-928
-832
-16
-816
-592
-448
624
32
720
-144
-736
-880
-352
-864
-784
-1088
-768
-1152
-224
-1008
-608
-304
-208
128
-704
384
-160
-896
-176
-752
64
-992
-1840
-720
-400
-672
368
320
208
272
160
304
144
272
272
-864
-928
80
-880
240
1232
672
496
-480
-512
-608
-992
-224
-816
624
1792
928
-640
-1120
-1264
-528
-16
192
880
576
16
-432
944
992
192
416
1632
912
480
80
-1056
-288
736
576
-304
-480
128
-112
-672
-352
0
-480
-624
1392
1040
-544
-544
128
80
1152
304
-592
-144
16
240
1104
512
-512
-1088
-736
704
576
-576
608
112
0
976
1600
1040
-528
-880
-544
-704
-144
576
992
192
864
960
704
1424
1024
128
128
-320
256
-400
-576
-80
624
512
576
-176
368
1344
-432
-832
-288
-272
-848
-1552
304
-336
-928
-992
-1456
-1744
-336
688
448
-720
-464
16
704
448
544
-496
-752
-400
176
-720
-192
832
-192
-880
-128
272
-64
432
1168
592
-176
672
272
176
-96
-1056
-1408
-512
256
496
-192
1280
1696
480
96
448
1088
320
-992
320
304
-384
-224
-448
-320
-896
144
112
-1008
320
48
-224
96
-816
336
128
-1168
-624
944
592
-528
16
-592
208
832
128
224
-608
-672
-560
-1136
-480
-672
-224
592
896
144
-176
1184
1152
1296
1520
272
736
32
512
736
-512
-672
576
560
-240
-688
-608
-912
-1296
-1056
-224
-400
-1696
112
688
640
-96
16
-448
-336
1264
-128
-1344
-752
-1280
-560
624
1552
928
480
512
-176
-560
80
768
32
-304
-64
288
-672
432
272
1504
1040
320
320
480
1328
608
0
448
384
384
432
624
112
800
1360
784
-336
-336
608
-480
-528
-464
304
336
192
1632
304
-816
320
432
-656
-592
336
-224
-320
-416
-1664
-1808
-688
-208
-208
-432
-688
304
-1040
-624
48
272
-320
1168
-64
-1680
-1136
-1056
-496
592
1152
688
-608
-832
-480
224
1120
1232
-64
672
496
-144
-880
-1920
-1264
272
656
-816
-704
1152
-224
-368
800
544
400
-160
-672
-240
352
-416
-688
-1008
-656
864
-432
-1440
-928
-192
320
-512
304
512
-800
-1072
-160
320
1712
1168
688
-1040
-1488
-112
1008
496
-224
-128
-960
-336
960
928
-192
-880
112
-416
-720
880
256
880
416
-480
-1152
240
16
320
608
496
-464
-816
128
320
-80
-1024
-128
1744
752
944
256
-656
-544
128
848
1680
1296
-624
-336
-432
-704
-864
-688
-1616
-1216
640
-16
-720
-512
-240
400
1248
1296
880
-496
-352
656
32
-416
-2016
-624
704
816
608
1056
912
-432
208
1424
768
608
272
624
784
-416
-688
-416
-320
-112
512
688
768
576
160
208
-784
-496
256
720
-32
-64
-416
448
-560
-800
256
-1184
0
-80
816
672
1104
1008
368
112
272
-432
-608
-352
688
1216
576
-1264
-32
80
-1008
-960
-1136
608
592
-64
-160
-208
-128
144
-160
480
-464
-640
-1360
272
-96
-768
288
1008
1296
432
1008
-144
-96
544
-208
720
944
-384
-592
112
432
144
-704
-256
672
1136
-48
752
1152
432
-1104
-400
-800
-800
400
320
-80
-464
-768
-64
-304
208
-144
-272
-688
-288
-800
432
1408
448
624
1856
928
336
1008
-16
-592
-960
-128
-800
-752
-1232
-80
-464
-784
-288
80
720
-720
-160
240
816
656
1136
192
-128
-944
-96
240
-432
-16
752
480
640
208
208
-16
704
-112
176
160
-800
304
-336
528
-1008
-144
112
-192
112
-224
-320
-800
-672
-1232
-832
-528
-96
-240
-576
1040
736
-48
368
-608
176
-192
-816
-1312
-336
-592
-1360
-576
-208
288
320
-192
16
-576
304
448
768
960
864
688
192
560
-800
128
480
240
-1392
0
-256
-704
-768
-96
848
464
-656
880
592
-368
-384
-256
624
-16
-880
-256
256
400
800
304
-912
-1104
672
496
720
-816
-656
-1040
-1152
-496
288
272
560
368
384
-160
16
-416
-208
528
-192
464
176
-1088
-384
-1088
144
656
-336
416
624
-64
-368
-704
-432
-96
48
-464
464
576
352
544
-624
-480
-1168
-1056
-144
-304
-336
64
-848
-592
0
336
-608
-560
-16
80
1856
-256
-656
672
-1232
-672
288
-128
-1488
-1408
-48
-752
-464
-256
-1232
-720
-928
800
400
-512
-80
48
-1232
-544
-32
304
-656
-1840
-720
-272
1024
16
432
960
32
128
1392
-16
-928
160
-576
-496
48
-128
416
528
1344
736
1552
1088
1632
-288
-496
-896
-112
1024
480
-832
-1040
-736
-176
544
-64
-160
560
176
-64
1408
912
-16
-544
192
1120
-480
-32
-1376
-352
304
1040
656
816
480
-304
-592
-352
-32
416
912
96
1392
1664
1824
160
656
960
-64
-800
656
480
224
-352
48
880
240
32
-304
-576
192
-304
-1136
-864
-192
-944
-544
-176
832
576
-48
288
-80
-80
-1152
-192
224
624
672
-96
-496
-624
416
656
192
464
400
-400
-32
384
240
-160
-752
-1200
-832
192
-576
144
64
-1184
176
1920
1152
336
256
240
-320
-352
768
208
-624
1536
1024
-736
-160
-1536
-1120
-1056
-1120
-1120
32
608
-1168
-1824
-640
-400
-400
-448
-16
-768
-608
272
-272
-288
-720
-1296
-1584
-240
288
64
304
656
496
-416
1072
-752
-1728
-1008
-1248
960
720
480
960
1360
-128
-624
656
-320
224
784
704
128
1120
1264
-320
1120
1040
1344
1200
144
-1072
-368
-1232
-1552
256
32
-432
32
288
624
544
176
-96
-656
-208
-864
-784
-1216
-544
976
-480
-1168
1168
960
-304
-640
-272
-176
-1248
-1120
-1104
-1520
-1504
496
-336
656
32
240
-32
656
720
-144
-784
272
896
464
-32
128
-128
-192
-160
1120
864
864
112
736
528
-208
240
720
656
384
-672
-336
-1216
336
320
-128
320
1056
992
640
304
-960
-480
464
1200
768
-112
-512
320
1312
1008
128
-896
-208
-256
-352
-192
-1648
-176
-592
-992
0
752
-736
-896
800
-496
-368
1168
192
256
-800
-720
-400
-592
-976
-128
480
736
-64
-544
-688
-64
288
-288
-864
-1072
-528
-16
-416
-448
-224
-752
-656
-912
48
992
-96
-912
32
-464
-256
-608
-1312
-16
-1664
-1408
288
-176
-432
224
352
192
176
-432
512
-160
-544
-1168
-752
688
-304
-208
672
-1232
-544
496
912
-624
0
1008
-32
-528
768
1072
768
240
240
-224
-784
-112
-224
-592
-768
-416
832
1008
432
896
-256
-1408
688
1584
464
-48
-224
1120
64
-1152
-1152
-448
80
-1120
-880
-384
-720
-144
608
-240
-1104
240
624
1536
-112
496
912
96
496
624
-304
64
592
288
160
-160
-64
-736
-240
-192
1504
1456
192
736
784
880
32
-368
384
48
192
688
80
1040
-592
-112
560
752
-1024
272
480
-528
16
-304
144
304
960
416
720
176
128
-1200
-256
-480
-192
1264
656
832
-48
-16
96
-880
-1728
-2032
688
672
256
80
224
704
720
624
320
240
336
624
0
-704
-992
-1664
-656
1424
544
-816
-112
-64
416
656
544
-96
1072
480
-416
-976
-448
-656
-720
32
624
416
96
-608
-704
-224
432
-640
-384
240
352
32
-1280
-560
1072
944
1232
960
624
1328
464
-720
-176
288
-928
-736
-144
16
-256
-656
-704
-464
528
48
-48
-224
-16
848
656
-256
224
-752
320
768
256
672
912
-16
0
384
144
-48
-96
1136
640
112
544
480
1168
1152
272
1216
1568
896
-128
-112
-48
560
-336
-544
-304
-96
208
-464
-96
432
80
1040
1136
688
-160
544
-272
-160
640
864
-432
288
240
864
352
-400
-976
-48
-752
-1056
432
672
48
944
64
432
144
-1344
-688
128
336
-800
-304
96
-416
-1168
-912
-128
144
-816
-496
-528
320
848
1664
64
-80
-144
144
496
800
672
-656
-160
-144
320
-400
-288
-1104
-192
432
480
-688
-224
-592
448
-528
128
272
176
144
864
672
-592
-256
176
720
304
-288
-208
80
-544
-64
-320
800
1296
-128
-960
-1840
-1360
-1488
-912
48
1072
544
-80
-560
-704
-240
192
-448
-80
176
384
944
656
1376
1808
416
224
496
704
-528
352
944
64
32
-80
864
592
256
-208
-880
-720
-480
-672
-16
1184
1552
400
-368
-784
-576
-240
144
-1168
-464
-576
-944
192
-752
496
-160
-1264
-1632
384
-80
-800
-1360
-704
-48
1088
-240
-1408
64
-16
-624
-432
-592
144
-288
-352
-1264
-800
-64
544
960
-816
-304
-16
-688
-496
288
512
800
1440
240
-512
48
-144
256
384
128
608
336
256
288
-448
-832
-336
448
-48
-272
0
-768
-352
208
-384
224
512
-624
-1280
-896
-1104
112
32
16
96
-272
-112
-1216
-112
1296
-432
-1312
-1024
-128
-800
-32
1488
784
96
1040
1296
1008
656
704
688
992
240
-784
-1024
-1136
-560
-944
192
384
-416
-512
-352
-656
-384
-656
-128
-720
-304
96
848
496
-560
1120
800
-592
-544
-1312
528
912
-272
-656
64
1776
656
-368
-512
208
-240
-704
-1040
480
80
304
576
1392
432
-592
224
240
240
176
-880
-160
1216
48
528
192
-352
128
560
960
-64
-1040
-448
-1232
-1088
-400
-208
752
-256
-1216
-480
-592
-160
-736
576
736
848
224
-48
-752
-400
304
496
96
176
128
-144
896
-96
512
0
-144
-1664
-128
592
-128
336
880
896
848
624
-272
-240
464
-288
-1568
-1856
624
800
-400
416
-544
-1520
-432
-80
-464
-1104
-880
-560
288
560
80
-512
-1008
-848
-624
432
-928
832
256
-272
-416
128
-720
-384
112
336
-672
1024
1072
368
-1168
-864
672
272
704
-528
-768
-240
-192
640
512
640
-624
-1104
144
288
880
960
96
-64
-560
-48
704
368
16
-96
-336
-1248
320
720
-480
-976
-128
-112
112
-368
-368
832
288
1248
64
400
176
-1008
480
256
1072
1328
1488
48
784
1056
1344
384
736
-128
-704
-336
304
256
1344
656
32
400
544
-768
-2016
96
928
32
-96
448
-224
-128
624
1200
1504
672
-336
384
192
560
-1248
384
272
784
496
-480
-16
1200
864
448
-704
800
1584
-192
-416
-144
-480
-1120
-1632
-1024
-208
352
416
752
1120
576
384
-64
-256
-432
192
-208
-176
448
1072
880
-496
-480
-160
-1376
-352
-656
-336
-400
-1088
112
-80
-656
128
-352
320
-592
-336
-80
-576
-1504
384
-192
-704
-608
-832
-304
48
-304
-352
224
400
-160
576
-288
-608
-608
-1088
-176
304
-784
-416
320
-144
352
448
96
112
784
272
176
-960
-1472
-944
656
288
-608
-304
-256
-912
-640
544
1440
1104
224
-816
-640
80
304
272
1840
464
-768
-240
-336
96
144
-192
-96
272
144
-1168
0
896
-16
-496
-384
-448
48
240
-240
-224
-96
-944
-672
-416
144
736
-304
-1136
-1184
-2016
-1936
240
1376
880
256
-1024
-112
384
-240
352
-336
640
-48
-592
-32
-784
16
64
336
1072
144
-880
-1056
256
-400
1824
1200
624
32
-96
160
304
704
48
-128
1360
1728
976
32
384
208
-384
-416
-64
-1072
-1184
-752
-1040
-400
-336
1120
192
-160
-592
-1424
-1696
-704
-112
608
-592
-528
-640
-224
800
160
-896
-384
272
-656
-416
496
304
1248
48
480
-48
48
-96
352
720
-144
-512
-192
368
416
320
256
512
-224
-640
-416
240
144
-16
640
576
-16
-336
304
240
-48
288
272
80
176
448
144
864
912
-384
-752
-320
-560
-400
-816
-736
800
672
640
432
96
-288
-800
-576
432
128
1472
-432
704
0
496
-80
-336
992
848
1104
32
-48
368
-544
-144
-224
48
688
1392
336
656
240
-16
-592
-992
-1440
-400
704
720
16
-32
608
416
128
928
912
-208
96
464
-336
-1184
-512
-192
64
-736
592
880
512
-16
-1216
-912
-256
-752
-1136
-240
160
-80
-576
-1424
-192
-608
-560
1440
1152
512
-496
-400
-1136
-1024
-176
1216
240
-1008
-896
-208
1120
736
-480
704
576
1168
-736
-1040
-736
-464
-368
-864
96
800
-1200
-944
-608
640
-400
160
64
560
-240
16
-320
-1920
-608
-448
-528
176
-64
-112
112
1104
496
-176
-1296
-1280
-704
336
-992
-1056
784
144
-912
-544
-96
464
544
-192
256
-16
-336
-1200
-336
-128
-496
336
-240
688
-128
176
-272
144
-480
192
736
656
-256
128
-544
-976
-960
-352
-128
240
-640
-304
48
-560
-976
704
592
592
-640
-800
288
-288
464
-256
-608
-272
-272
464
1600
640
288
48
704
448
464
656
448
-112
64
464
0
944
592
160
-1456
-1664
272
960
464
-144
32
1104
-176
-336
-352
224
480
384
-32
-48
-448
-1360
224
-304
144
-112
-32
-432
-880
432
496
528
1072
1184
448
272
-160
-256
288
-112
176
1040
1024
272
-1248
-400
-464
-1344
-960
-64
560
96
-848
-384
-48
-48
320
-400
-1760
-1568
-1120
624
-656
240
1616
80
480
960
704
1056
1344
320
272
-368
-144
352
48
1712
768
-704
-720
-832
-880
224
144
-64
-1296
-432
-816
-688
256
-576
-144
-400
-208
-112
-624
656
1520
1728
288
-176
-304
-176
-144
864
864
560
784
-208
-1296
-1776
-1184
448
864
256
560
272
-80
-848
-336
-1136
-1248
-896
-704
-1376
48
672
1072
160
-80
-704
736
-112
-720
-608
-1936
-128
-16
-128
176
-1536
-608
-416
-1008
480
576
-352
272
64
-208
560
1200
496
688
-80
-384
-1232
16
640
256
-464
-432
1120
928
624
528
-736
-496
-864
-608
-32
-192
256
1360
736
-528
512
1376
128
-688
-400
1152
528
208
240
496
560
176
-1072
-128
208
272
160
-192
48
-1152
144
-464
-560
16
528
-352
288
64
1392
432
-240
544
1024
-96
-1344
112
368
-64
832
336
-736
-384
784
-672
-224
-224
-800
-128
736
1216
-64
592
-976
-1168
-512
336
304
192
-176
64
-176
368
304
336
976
304
80
1328
1728
624
64
704
-48
-96
272
-80
528
736
752
672
112
-1552
-848
-768
256
560
800
576
1264
864
80
-944
-336
-32
32
288
1328
496
208
688
-384
336
816
1120
784
-304
256
816
32
-32
-464
-32
864
-128
-224
768
576
16
832
288
368
272
1024
320
-208
-304
160
912
-32
-48
352
656
-80
-880
-432
1632
-288
-16
592
224
-368
128
1040
1360
992
1040
1152
-176
288
-176
-448
-336
192
688
544
-1488
944
944
400
-272
416
16
-384
-16
-592
656
-384
608
640
160
688
752
496
-224
400
720
-544
-304
640
832
-1024
-1344
368
144
624
1472
352
1216
1520
1632
1712
-352
32
1312
1200
576
592
1120
608
-208
-80
-912
1088
1632
-608
-1120
-880
-80
240
-64
-432
560
336
304
272
-256
-864
-80
-16
-1440
352
224
-208
208
1456
1072
512
160
-16
736
32
-432
672
816
-992
-1584
-48
-288
-896
-240
64
336
-224
-96
-240
-736
-736
-624
-608
-400
-688
-304
1168
64
80
1472
-1360
-336
-336
128
256
944
944
-576
-1088
336
1184
432
-400
464
1440
1328
-256
464
-16
-864
-240
-592
-512
-304
-688
240
-400
-1152
272
1504
-336
-1552
-192
528
576
-544
-80
320
-400
-272
-496
-464
-512
-80
112
464
-240
224
-480
672
512
144
-1232
208
480
496
0
-432
-416
240
-560
-48
832
1024
816
112
1840
-832
-736
224
480
-416
-128
48
-96
-624
944
496
-112
176
992
560
896
480
-752
-416
64
16
96
-176
-1392
-496
-240
-480
48
-1280
-1680
-1040
-288
1008
352
-640
-1200
-720
-144
-80
112
592
1104
-1520
-992
-880
-688
272
80
352
144
-160
-128
688
-224
-432
336
64
-1264
-1696
-1664
-224
992
128
-208
-208
384
576
192
1088
304
272
1104
1152
1696
896
176
576
1264
1408
-224
-192
688
512
352
1552
496
-432
-480
992
-656
-624
-656
-128
-592
-480
-528
64
1104
-208
-496
64
-176
672
-512
944
992
1232
1376
80
448
912
384
-32
1008
816
192
1152
496
-80
384
608
784
-544
176
800
1456
640
-736
-704
-352
640
496
256
-1424
-1360
-1136
-160
32
-64
624
416
-160
48
512
160
32
-336
-816
-528
-224
-1152
-1360
-1376
-1392
-976
-32
-80
-576
-928
-816
928
1632
160
-352
-832
-288
-496
640
256
-1120
-512
-672
-1984
-416
-384
-624
-1168
-688
-400
-608
-192
96
-48
864
-144
-624
-1056
-592
48
-432
-256
-304
-1136
-1264
-816
-928
-576
-208
128
976
752
272
-480
-704
160
432
480
240
-768
-848
-656
32
-176
-176
64
304
336
544
-96
-224
-1504
-528
-16
1008
720
-672
-688
-928
-1856
-736
240
576
48
-576
464
592
-128
-224
832
144
208
-224
64
864
784
752
560
-576
-1120
-512
-896
288
-384
-1280
-352
1152
368
-64
-864
-864
-288
-464
976
192
-64
112
-368
64
-480
-48
-208
-912
-1344
576
816
-432
-208
240
320
-224
-32
352
576
176
-272
-368
-1120
-592
-976
-1488
-192
-48
-480
-128
1552
-240
-272
928
512
-544
-656
-800
-1008
-512
-32
208
384
-176
144
0
-16
1792
256
176
-96
-704
-544
-912
-112
-144
208
-1664
-1136
-128
-1376
-1328
-96
208
-416
16
80
-912
-896
-640
-1376
-176
-96
-848
-480
-496
-704
224
-1296
-1264
-80
496
-960
-48
288
-544
-1728
-464
624
1664
-272
-848
336
544
-176
-128
-480
-896
-336
-384
-512
208
-32
-144
-288
0
-80
-496
768
-208
-272
-1104
-656
288
-624
368
1120
-448
80
-928
-448
-224
-384
-224
-496
752
1136
960
-368
656
704
-128
832
768
-304
-496
256
-128
-592
-80
-480
240
-80
128
-240
-656
-1248
-32
576
224
-784
80
-1008
-608
-288
-1824
-320
-1232
-800
-912
-240
-720
-144
-112
240
448
-896
-1040
-560
-640
-144
-1472
-1856
-544
48
-208
640
576
256
1728
688
288
-432
-896
-832
-208
720
720
208
-640
-432
480
1328
688
-128
0
16
-656
-1008
-832
-720
-880
624
352
992
528
1024
-336
-576
-672
-240
-1168
-1136
176
640
640
1152
1008
-560
304
272
-416
-1760
-800
-1072
-336
176
992
224
656
-880
-1008
-320
624
656
368
-1040
-1088
-1392
-1088
-400
480
224
592
352
-1232
-656
-1600
-544
-688
-208
288
-368
848
16
1104
592
784
1568
864
576
2000
1024
-48
1008
-16
-304
896
560
736
560
544
848
-288
32
-128
0
512
288
288
112
560
-576
-48
704
816
-1456
368
656
656
-176
-576
384
112
-336
240
624
-432
-224
32
48
-192
1184
1264
1872
976
-368
-1360
80
-112
-112
704
352
736
1280
-240
128
-384
-80
-432
288
576
288
-176
-880
-192
-480
-128
704
192
432
240
-272
-1232
512
-384
-352
-96
160
-304
528
336
160
480
-288
-304
512
160
112
-80
848
560
752
336
-672
-1264
-1712
-304
-272
768
-592
-1424
480
656
528
592
512
528
320
-80
560
192
-832
-80
-1792
544
1216
-640
128
-208
-688
-336
304
64
-80
352
400
-400
144
-64
-144
1120
944
480
-464
-960
-1200
720
720
48
-352
-1616
-1504
80
448
1664
864
-432
-944
-512
224
96
144
-256
-48
-640
-864
-768
544
1216
-256
-1440
-944
-592
-624
-336
-1392
-128
-160
112
-208
64
416
-736
-496
-1328
-368
304
1376
-480
-368
-96
912
-144
960
544
624
1024
496
-240
368
1120
0
-928
-512
48
624
-688
-720
-224
-1152
304
528
880
960
832
-368
-1024
-432
800
928
-1328
640
336
-144
-544
-480
-112
176
-64
512
880
928
-352
-448
-96
1040
64
-96
640
560
-464
-912
-1312
-1232
-80
1120
928
752
352
-336
-1344
128
704
1440
336
-464
880
1360
672
96
736
-416
-480
304
1296
848
432
80
976
1568
-256
-672
672
240
400
688
912
-128
-32
1184
224
720
672
1072
624
-384
272
272
128
-976
80
368
80
-528
-208
-784
0
-336
144
944
800
1760
992
848
-80
-384
-416
-816
-832
80
1136
1728
864
272
64
-64
752
960
592
432
-176
-272
48
576
112
800
800
-656
320
928
-80
224
912
1568
-416
304
752
480
624
-464
-1072
-720
-720
560
1824
880
80
32
-144
-656
-576
-576
-80
-688
-864
288
736
1648
816
240
-496
-784
80
0
-352
64
816
-160
-1648
-1600
-944
-512
-768
-272
528
336
496
-1152
-480
-176
-240
48
-288
-336
-160
-32
48
-16
208
640
1024
416
608
-80
-368
-688
-208
256
48
-704
-704
-1280
-320
304
1888
1088
448
-144
16
-496
-1360
160
928
288
-64
688
672
736
-176
-912
-336
1344
1088
-64
400
1200
720
544
-208
-192
64
96
192
-288
-80
48
192
-560
-256
64
736
672
-320
448
-96
624
144
368
400
624
912
368
80
-304
656
1120
928
960
-480
-320
496
240
496
768
384
176
1808
800
416
128
-736
-608
-1536
192
688
32
-528
-464
-192
48
704
-480
-400
64
192
-1664
-1536
320
336
560
-224
-464
-848
144
1104
368
-704
-208
-752
-16
784
-304
-800
-480
-432
-1584
1024
352
-352
-480
592
-608
-1104
352
848
784
-848
-1136
-144
-672
-512
240
352
592
160
80
-32
320
336
416
-192
-592
96
304
208
352
400
560
832
256
368
288
80
1488
208
224
-208
976
512
-416
-976
-1152
-1264
80
640
-576
288
352
-576
-624
-960
-336
-384
736
1120
-176
-704
176
496
0
384
-288
-432
544
432
-848
-64
1152
336
128
256
128
-688
-384
-192
-576
-1024
-240
432
720
208
64
384
-560
-416
1328
-288
-1024
-688
-80
736
-80
1760
960
1024
320
944
1008
-576
-1568
576
-1472
-960
-976
32
720
336
-208
-80
-784
144
320
768
512
736
560
1216
-128
-128
688
816
-64
1248
-112
-176
-496
192
-464
-384
656
432
-240
-256
-288
-544
-1216
-944
-1152
432
912
-176
-1376
-448
48
-912
-544
704
528
192
-240
-1296
-912
208
-832
-688
-304
320
-688
-512
112
-112
688
304
-1504
-1024
-160
832
432
-368
672
1600
768
-80
-528
288
320
-608
176
704
1072
1760
1536
704
1792
1104
768
-48
544
464
-944
-608
-544
224
1072
176
672
-32
-592
-944
-832
-192
-16
-832
-496
304
1200
48
496
1072
1424
0
-208
-80
160
-16
256
1440
-352
-304
704
816
-640
-848
-416
-80
-48
320
432
1440
-384
128
-1280
-944
944
1760
-352
-1040
-1424
-496
624
288
112
-96
-352
0
848
-640
-896
48
64
240
1056
32
-560
-224
80
-1360
960
816
-208
-80
-640
-272
336
416
176
-288
-592
16
576
-320
240
1392
848
240
-592
-1440
-1648
432
448
-576
-608
-592
-368
128
-928
-1216
592
-240
0
-384
80
256
272
-272
512
-480
-624
160
368
64
288
800
224
-832
-624
-944
-1120
-352
96
-16
576
640
768
16
-288
688
-192
-720
-848
-720
512
-960
-384
832
-480
-432
176
576
-400
64
1936
1136
-272
-848
-832
-1072
720
848
-784
-848
496
-48
-512
-272
-128
-592
-896
-784
1088
1056
-528
-672
-1440
-1024
-944
-48
624
560
-128
688
928
-1024
-1328
-272
-544
-1088
112
-448
-272
-944
-720
-448
-896
16
1504
1312
32
528
-736
-848
912
464
496
1136
96
448
432
-224
-1648
-608
352
-480
-672
-544
-816
-992
-1680
-944
-320
880
1440
832
336
288
784
464
-96
-48
592
608
656
1088
560
-592
-672
-960
-16
1184
752
-304
-928
-640
-368
-368
368
1520
464
736
608
-480
448
1120
912
-112
-816
-1104
-816
-1184
-912
-1120
240
-64
928
960
1104
-704
-144
-400
-176
912
-208
-352
-208
0
-752
144
512
-192
-304
176
-240
-768
368
0
-448
-976
592
384
-144
640
-224
-16
-400
672
544
-352
224
-384
384
832
784
-640
-608
416
-304
-576
752
-96
32
480
-416
432
-1184
-752
-400
0
16
736
944
752
576
1056
1264
96
464
-208
-512
576
32
368
48
-176
48
624
640
1120
-128
-672
592
992
-592
384
-352
-208
-272
208
-560
192
768
816
-400
-1872
-1648
560
304
-704
-992
-496
-576
-976
928
880
-176
-576
-1008
-784
-208
240
656
944
-320
-832
784
576
-800
-16
-496
-1168
-1264
-384
-80
448
-864
-128
1008
448
-320
-608
-928
-368
544
-624
-128
-800
-96
272
464
-384
-624
-560
-1120
-160
-208
-1408
-1600
-816
-192
384
-16
-896
-1056
-1152
-448
-192
-944
-1040
0
720
-320
-272
-608
-352
-480
-576
64
640
256
432
288
32
880
1568
400
-224
-496
-64
192
1008
432
-240
-1072
-1200
96
320
-1120
-400
-240
-1056
-1728
-912
-1008
272
-640
-32
-1344
-832
608
-384
176
-96
-240
-544
-272
224
384
272
-880
-400
-960
-544
-32
464
-512
-176
1088
1040
1504
512
144
-1088
-256
-80
464
-256
-416
-960
-304
-160
-992
-272
-720
496
368
-48
736
1184
-256
-1344
-1824
-320
-576
-112
-816
-112
80
224
576
-16
-816
-496
-464
576
992
-592
800
896
160
800
1136
80
-112
416
-288
-208
144
-1040
-848
-672
976
304
-560
-880
-976
-112
96
-720
-896
624
1600
912
432
1120
208
-1088
-416
464
-160
832
1040
1104
368
688
1712
1520
864
256
880
1376
896
416
640
944
432
-272
-944
624
512
-576
-96
-720
-1024
-384
-1008
-1600
-704
336
1040
1360
128
-912
-96
928
992
384
-656
-480
-208
80
16
256
-464
-432
176
-208
-80
496
352
-160
544
-1376
-1536
-912
336
416
304
1296
704
384
-736
-624
320
-272
48
-432
-1152
-816
32
-560
256
944
160
256
80
-464
-288
-1760
-528
-688
864
336
-1008
-464
-464
-768
-1008
384
752
-496
592
1152
1232
-288
-768
-496
-1552
-1248
-304
528
720
576
1712
1232
-1120
832
1296
48
384
1056
992
592
256
224
-112
-352
464
-384
-1408
-832
-640
-352
-192
144
112
544
-224
-128
496
-304
-480
1504
880
672
1088
736
848
160
-128
-560
688
272
416
352
-416
560
1632
288
336
-192
560
368
-528
-1168
-1584
-160
432
176
-480
-464
-368
832
960
704
1232
160
-96
176
-1776
320
1040
-48
112
400
-256
-48
-128
-160
256
1152
416
-320
0
-208
-512
352
-272
-1328
-624
512
112
400
-416
-1520
-400
1552
944
-128
-352
48
-112
144
-192
-16
-48
-192
192
-1088
16
784
1680
-320
-864
-688
-672
-96
32
784
-608
-448
672
-480
-1104
-1264
-816
784
1344
784
-160
-592
-384
-336
-64
-432
80
256
-576
32
-304
-816
-784
112
336
-336
288
976
480
432
-1008
672
816
64
512
880
112
-592
-672
-480
-544
0
144
-96
448
912
-160
400
-464
-672
1040
1168
1776
1552
800
464
848
256
-816
-832
-448
-480
-624
-656
-128
-496
432
-128
-320
-704
-656
-928
-1808
-1376
-144
432
96
48
656
-96
-1264
-560
256
-272
-592
-912
-944
-624
336
1552
1536
144
-928
-320
-240
-800
-1248
624
832
672
560
-192
-304
416
-304
240
-320
176
-144
-1328
-688
-1456
-400
-16
1552
432
96
176
736
16
-592
-448
-256
-704
-48
224
-16
704
784
1136
-48
336
48
-64
-1024
400
304
592
704
-272
-64
192
-496
304
0
-352
0
-1440
-400
-528
144
-688
-1616
-1440
512
448
-928
-704
-80
-384
-336
80
1424
1904
592
-256
-608
192
-496
-736
-1536
-944
144
-1280
-1088
496
768
112
-304
32
-256
1072
848
1136
832
-112
-208
352
240
-1024
-912
240
416
-432
896
-608
-800
1104
1760
496
-992
-928
-48
416
-832
-1040
208
-992
-1136
-544
624
928
368
1808
1088
-96
96
256
-624
-640
-960
592
688
624
-288
-256
-80
112
816
496
128
-976
-192
-608
560
-208
80
-128
576
1120
448
-1072
64
944
-160
-576
-432
-1408
-1056
-560
640
848
-544
-752
112
-112
-496
48
-624
416
672
-512
-1024
-368
-272
32
-400
240
-800
272
-32
352
-16
-1456
-32
-448
-416
-1104
-288
-16
288
-704
368
-288
1152
288
1088
1024
800
288
-368
-752
-416
128
160
-528
-1136
-1312
-1152
-464
-96
96
-416
48
1216
848
-336
352
-400
160
-768
-640
336
640
-464
-880
672
368
-272
-832
320
-224
-176
-368
-688
-624
-672
-64
832
-608
-352
-48
-1488
-1536
336
832
560
640
400
-192
-368
-448
1232
-464
0
-240
16
-336
192
864
-640
-416
1440
1088
144
1344
496
1040
-624
-176
32
-832
-1312
-320
-272
-528
-656
688
1072
1376
1904
1280
-64
-96
-528
944
1328
-368
384
-432
-1472
-320
-16
-640
-80
1600
-432
592
1008
-1040
-192
-1040
-480
-560
-176
32
416
336
336
176
1472
816
80
-688
-528
368
432
208
960
1008
1536
832
640
368
96
-464
608
336
-560
640
1264
224
-944
96
544
1520
912
64
-704
-512
368
624
224
-1648
-704
624
240
-848
480
944
976
224
-752
-736
272
880
752
688
880
160
-368
624
128
320
896
112
-640
-80
-416
-1904
-1600
-48
640
128
1184
320
704
-720
-864
-992
-880
-752
-480
-192
-608
-720
560
480
816
1344
176
-176
-176
560
192
-688
496
416
320
880
-1376
112
-240
-32
400
592
784
240
592
688
400
224
-384
-672
-304
-704
-416
208
704
272
-160
-1264
-960
288
224
512
688
752
608
-128
-368
576
-208
336
-240
-960
-736
0
-432
192
-208
-208
736
960
736
160
240
208
432
608
896
-224
-1920
-560
-1584
-1232
-992
320
704
128
-272
144
368
128
592
848
80
64
-464
-944
-272
-48
-464
-736
-224
-368
-544
-224
256
-688
864
1296
624
-288
-384
320
576
-464
-704
-80
-208
-64
912
-368
-384
-1264
176
-208
-592
944
-128
-384
656
192
32
256
-1024
-976
336
592
-272
192
-208
128
32
912
-1216
-1088
560
1040
896
-320
-512
240
-448
-992
-368
560
400
656
784
-112
-176
1344
640
-896
-448
384
928
1040
1280
224
544
-80
-368
-384
-432
-1200
560
-912
-1280
-272
-384
1152
624
1168
880
-400
-1152
-592
176
544
320
784
1088
1408
448
864
640
896
304
-576
-928
64
-192
-176
208
352
16
-96
656
-144
272
1280
-688
-128
-416
-384
-1104
-656
816
464
320
-176
-272
1008
336
304
-528
-336
-384
-112
-256
-432
-512
-336
576
-848
-1504
368
1392
400
-240
-304
-80
-1360
-1792
-448
592
432
-80
-64
592
928
-304
576
-448
-416
-528
0
784
400
192
-1280
-224
320
1232
896
-304
160
896
208
-496
496
16
-1520
-48
288
720
-816
-880
1104
240
560
112
704
432
-1088
-592
-432
-736
848
976
64
-400
-1088
-352
-112
-928
-304
-96
-512
752
320
160
320
-48
-336
-800
-256
272
-528
-752
-560
-1040
-1008
336
176
-48
-320
416
144
-720
-368
288
1088
848
736
-288
-304
640
160
-1056
-160
-112
-464
240
-864
-1216
-288
-720
-400
400
48
-112
128
192
-1472
16
0
-960
-768
144
176
144
-336
-1408
-912
-144
-208
-448
32
640
-304
96
560
416
-1264
-512
608
1584
1008
288
880
-304
-848
-64
-384
80
-448
-32
704
1248
400
352
608
-96
-1232
-352
-576
-976
-400
608
-16
640
224
-48
-336
-128
160
1712
352
0
-544
-192
-128
368
864
-368
1120
368
-240
-240
96
160
-912
-832
-384
0
-128
-112
384
-1344
-64
-480
-1344
-688
48
-832
272
320
-336
-144
-160
-672
-80
-336
-80
-656
-336
864
-16
544
-192
-656
-32
560
1072
32
-496
-224
-256
736
-208
-768
-528
-128
-528
-624
720
944
560
576
432
-688
592
1344
64
-608
-960
-128
-1120
-1520
32
704
320
64
-256
32
-544
-976
-1232
-272
-608
-1888
96
864
-64
-32
192
-448
-480
-1184
-880
224
624
544
208
1024
1120
560
-224
-432
960
944
368
-1168
720
272
-384
656
1248
-448
-1472
-272
16
496
864
1328
1008
944
528
400
-208
-848
-912
-336
160
384
-352
-32
-912
-288
320
1072
192
-656
1072
432
0
272
688
-80
816
272
208
192
-400
784
-608
-1168
160
368
864
-272
352
272
-176
80
-624
-784
672
528
-32
-112
-736
720
576
1120
144
432
528
-912
96
-80
-848
-704
-256
-16
-80
-16
-528
-800
-112
1632
1408
480
-112
-512
160
464
-16
-192
-400
-512
1792
528
-608
-480
1104
1808
304
-480
1312
1440
0
-400
-1056
352
672
960
752
736
416
576
-352
-928
-480
240
400
-240
112
-448
704
-80
-176
496
-144
-1136
384
-544
-816
640
432
-80
-192
368
976
384
64
-672
-160
640
-352
-608
-48
352
1056
160
336
592
448
-1360
-448
-352
192
-624
-864
-528
928
-576
-1104
48
80
208
-144
240
144
-176
-768
-720
320
256
128
-768
-720
-528
-448
-736
-32
768
-592
-48
-64
-432
576
-992
-208
720
-64
-320
432
-144
-656
816
784
1168
-544
-256
720
-32
-160
720
560
96
-384
-176
672
592
736
736
1200
0
160
-272
832
576
-800
-160
368
-752
-976
-1136
-560
400
672
-32
-752
-816
16
704
1040
-992
-528
1120
304
-320
-176
-960
336
1248
1056
-48
-848
-112
800
-48
-48
-544
720
768
320
560
800
96
-624
-400
16
1152
432
1040
-48
16
784
32
-1600
-1216
224
-1248
-656
48
-672
-832
528
224
-16
-272
432
-336
-1280
-912
-576
-928
-912
-272
624
304
-944
-1216
-560
-176
976
1072
1248
768
304
1456
416
-240
-64
-464
-352
-176
560
1120
192
-64
-1264
224
448
752
-752
144
64
944
1024
-1168
-32
336
-848
-1040
-864
-656
-496
128
-64
-704
-336
48
208
-96
624
1392
192
-16
576
944
1328
1888
352
368
928
496
-240
-80
-512
-1104
-688
-1456
-1952
-1952
-1152
-32
-320
-944
48
800
1984
992
176
208
768
352
-624
-544
-448
-400
224
384
240
1008
496
-784
-448
-16
448
944
-144
96
48
48
-256
-1328
-16
496
576
0
-624
32
80
-32
-448
-848
-1216
-864
-560
-1552
-192
784
576
-1104
-864
-480
-368
160
624
-432
-368
224
-368
-464
176
160
544
-176
64
1216
224
-304
384
-448
-592
-528
-1120
640
640
96
304
-240
384
416
-1072
-1072
656
-480
496
512
48
-880
-80
-272
496
1456
-80
-320
-528
288
96
320
-320
480
-112
-528
768
832
-96
1072
80
-800
144
688
1424
1264
496
-320
-176
272
1440
240
-192
-512
-1152
-704
0
192
-1120
-384
-272
272
208
720
960
-96
320
-1248
-608
288
-32
560
832
-384
-608
144
192
160
416
368
48
384
-704
-560
-688
-144
-1200
176
-528
-1056
-336
208
112
-352
16
64
-192
-816
64
-16
288
416
-320
-288
400
912
1056
1152
-928
-48
688
-176
-832
-1088
-256
-320
-160
32
-1376
-1664
-688
-928
-1056
0
528
-624
144
1440
864
-1008
-624
1536
1392
-528
-208
-256
-752
752
384
1776
1408
-624
-304
144
-144
-672
48
-864
-416
496
464
-560
-80
976
496
480
656
-256
-848
-1712
-336
-800
544
224
528
-720
-560
-208
-752
-448
800
1552
1696
1040
400
48
-1232
-240
-192
-336
128
-608
608
352
-1600
-544
640
496
-656
608
144
400
416
1328
992
448
352
208
-240
-672
-400
-784
-1376
-880
-208
-80
368
-272
-192
48
112
224
416
-832
-1120
-160
-304
128
1392
768
16
-912
-128
-224
1088
736
-304
448
64
64
-944
-1520
-1568
-1104
-432
-768
-32
-1056
-512
-608
-48
-896
-1040
-304
-464
-576
896
336
-592
96
-1056
-1296
-864
-1296
-1088
272
-112
560
1024
512
256
32
-80
-224
-32
896
-448
-1936
-720
144
544
-272
-256
672
1936
1216
-432
-448
-160
-768
-656
-80
-208
432
-976
-1360
-512
-192
816
1248
1200
1376
416
-368
-176
-16
208
384
160
432
1248
1440
800
208
-304
64
-288
-864
64
-208
-336
144
-688
128
-96
240
576
-896
-480
-1312
208
896
608
-256
-848
80
-1504
-976
-1392
-272
-1104
240
304
-1088
-112
-1024
-192
1040
-32
-848
560
448
-336
-160
-288
-336
-272
-64
928
560
912
1008
1568
1120
576
1136
352
-976
-1104
64
736
944
208
432
1952
1056
-400
304
528
-544
512
848
-1104
-944
432
1424
608
-304
-48
-288
624
240
-608
-528
-288
560
192
1440
1040
-672
-1664
-992
16
1088
192
-64
-1008
-1632
800
1792
1040
896
512
-656
-208
1536
-592
-480
944
992
0
-656
736
432
-1104
-256
-320
128
-368
-400
1040
1296
128
-320
-544
-160
640
144
-288
32
704
496
1120
528
16
1552
1808
848
-352
-784
-1344
240
-880
-496
320
800
1168
-720
-928
224
544
448
-64
480
256
-1216
-304
736
416
176
-176
-16
-896
-416
16
176
800
304
-160
-544
-464
-688
272
256
-144
160
432
1328
1360
-224
-1168
-1760
-736
320
224
-112
-1424
-1344
-928
272
128
-96
288
704
0
-336
176
560
-512
1136
-176
-1248
-224
-1104
-976
-288
496
720
-16
-736
-256
416
1104
448
-1872
-272
-496
800
-368
-336
688
-176
336
-128
336
320
16
-352
-304
-240
128
480
-976
64
176
-464
-624
-880
-768
-624
-800
-432
-208
416
208
-1232
-944
32
-208
192
-496
432
800
928
816
-304
-928
-32
-96
-112
-368
416
352
624
1264
1072
-608
96
480
672
512
800
-80
352
-656
-944
-848
-1184
192
144
-848
-576
-976
-976
32
64
256
448
-320
560
1024
720
1200
1600
320
-320
160
-1168
-608
-64
-240
-960
-976
256
-688
-416
-144
-80
304
-544
-464
-304
-304
-32
-400
-800
-32
-976
32
288
224
-288
-368
-480
480
1280
880
256
864
1424
-384
-128
-496
-544
-384
-1040
-1328
896
1248
288
-432
320
544
320
96
144
144
-16
16
256
-96
1280
-368
-512
240
-192
-352
16
480
-320
-272
-112
480
-240
688
992
1280
624
48
-640
160
-272
-144
384
-64
672
368
16
-1136
-272
208
240
688
-80
-880
416
-192
-736
-352
144
192
-512
-240
-960
-960
576
624
0
-768
-80
432
-560
-1088
688
272
-272
576
-352
-1312
304
-256
-944
-1264
432
1440
832
-176
-720
-176
-288
-288
272
800
-816
-1888
-1504
304
1312
112
-448
640
-256
208
-304
-352
-960
368
272
912
-400
-80
864
64
-256
-448
-496
-608
-224
-1120
160
784
640
-64
-224
352
-288
-1392
832
624
224
352
480
560
-160
176
-320
-192
1136
704
864
1088
-192
-1344
-688
272
384
256
1104
-368
-1152
-304
-496
608
1264
992
-144
-496
1184
560
480
544
1104
592
-832
-592
-480
256
1312
-32
-48
176
336
80
-96
-48
-640
352
1008
-368
-1376
-1552
-1168
-176
432
-384
-272
-112
-384
-176
960
1184
928
272
-160
16
896
976
-1360
-1856
-448
496
144
192
-1008
-880
944
1040
496
-240
