336
176
-208
-368
-240
320
208
-64
-272
-304
32
576
80
-144
-320
-112
-384
-224
-288
240
-64
480
128
272
-32
-240
-80
80
-48
-176
-64
-96
80
-16
-272
-400
-192
-192
368
0
176
224
256
192
400
384
272
224
144
-32
-176
-896
-608
48
-176
-96
368
64
-80
352
240
-288
-320
-16
-208
-208
-64
336
48
-240
-336
352
176
112
272
592
80
32
16
-224
64
48
-16
-112
304
640
352
-48
-304
-224
32
192
272
-336
-656
-432
-16
-480
80
112
-96
16
-48
-304
-80
-352
-384
-464
-576
-352
128
80
-64
-160
48
144
-384
-80
400
0
-160
-240
16
-192
128
144
-400
-48
-160
-48
-144
-16
-64
32
-80
48
288
-64
208
48
-192
336
400
320
-208
-384
-496
-288
-160
-48
-176
192
512
128
64
-64
-128
48
-368
32
80
-176
-160
-464
-80
64
-240
-512
-256
32
80
640
16
96
64
144
336
-48
256
464
-128
-32
-208
64
96
-240
-288
48
32
-16
-112
-352
-416
528
384
-224
-432
144
-304
-256
224
-224
-368
16
-16
32
32
320
288
352
224
-352
-608
-288
-160
0
-208
304
640
272
416
32
-80
48
-16
-112
128
-432
-224
16
-80
-64
-96
-224
-48
16
16
192
464
-16
80
-128
-256
-96
-128
-320
176
0
96
208
-528
-64
-208
-112
-64
272
528
208
48
-128
-176
-48
576
416
192
112
64
320
320
304
560
32
-64
240
368
-16
80
80
-48
224
192
192
-112
-48
-128
80
64
224
-272
-160
112
144
48
144
176
112
-80
-48
80
128
416
384
-64
160
48
384
544
368
48
-400
256
224
176
96
64
192
208
80
256
208
144
-48
0
-176
-304
160
288
-112
-320
64
-32
-224
-112
-80
-32
464
240
48
112
80
384
640
-96
-272
304
0
-80
-96
-32
-112
-112
192
416
32
-80
64
240
288
224
-16
-160
-192
-160
-352
256
-160
192
176
288
176
-192
-128
-224
-160
48
-80
-384
-368
240
432
-32
0
48
304
96
448
304
560
272
32
640
96
80
-176
-272
-192
-16
160
400
-384
-304
320
400
-64
-48
-288
-352
240
128
320
368
-192
-112
-16
368
240
192
-112
-64
112
16
-144
144
-112
48
-32
-16
96
-16
-240
-336
224
112
-224
-144
-336
-304
-48
96
128
-16
-432
-80
-128
-16
-128
0
-32
-112
160
176
-128
-256
416
32
-48
0
-272
-320
-176
80
-112
-224
-560
-512
-224
-192
-176
32
16
16
-96
-128
-224
-256
-432
-384
112
48
64
160
48
-400
416
496
560
112
-32
160
928
464
32
48
208
208
-48
-32
480
320
-160
-272
272
304
160
32
-320
-576
-80
-64
-144
-64
400
128
288
128
304
160
-352
-400
-16
208
96
-160
208
-320
176
176
192
-256
-96
-176
-208
-288
-144
0
-144
304
304
192
96
16
672
432
-160
-336
-64
96
0
160
-224
320
-160
96
240
80
-112
496
352
208
32
48
-368
-496
-816
-352
96
32
-336
-160
96
160
32
-48
16
400
576
496
144
-16
160
-144
-96
128
224
-336
-512
-112
32
-192
272
384
-288
-176
-240
-384
-192
160
96
-320
16
400
112
-432
-624
96
112
224
176
-32
-48
-16
-192
-208
96
160
48
-16
208
192
576
464
-16
-48
-96
336
-320
-448
0
16
-240
-288
-80
176
576
256
16
-80
-176
-32
-48
48
-32
128
112
-16
-80
-16
-256
352
64
-464
160
336
-256
-16
-16
-112
288
-48
-208
-320
-16
224
208
-96
288
0
-752
-592
-224
-384
-496
-32
512
176
-128
-352
-192
48
16
-32
48
48
48
-176
64
320
-288
-384
-64
352
-144
32
560
64
160
256
160
512
288
176
-144
-352
-160
112
48
-144
-400
16
160
-224
-64
240
112
208
128
-432
-304
-192
-144
-32
-464
-16
176
0
-400
-416
-16
64
32
80
304
32
-528
-288
-432
-304
-80
512
0
144
32
224
-448
-64
112
720
464
-64
0
80
64
176
160
-256
240
240
352
208
-144
-432
-256
-208
-32
288
224
352
96
-464
-480
-96
-128
-224
-32
-48
192
64
176
-32
112
208
-560
-160
112
176
272
-160
-144
-464
-480
-48
-368
-384
-256
160
0
-608
-176
-176
320
32
-128
208
288
-16
-368
-688
-32
128
64
80
400
336
128
48
304
-48
-512
-384
-80
176
272
32
16
-288
-320
80
-16
-368
-96
64
112
0
-416
-208
16
736
496
80
-352
-32
-80
-160
-496
-336
-416
-144
464
416
-80
-320
-496
-112
-368
64
128
32
0
80
496
144
32
64
-48
352
64
560
512
80
112
624
624
-192
0
80
80
128
208
-144
160
-32
0
240
144
-304
0
-64
-80
-224
-288
64
-80
240
-80
0
128
80
112
144
-16
-80
96
80
-176
160
-304
-160
-432
-192
-448
-480
-528
-272
16
-240
-320
256
320
-528
-224
176
-176
-464
-304
-112
-144
-736
-352
400
-32
-256
208
128
128
-96
-144
-176
-176
-64
-224
192
272
208
112
-176
-160
96
304
240
192
304
-544
-592
-224
208
336
224
112
144
16
-240
320
736
672
-64
-96
256
304
320
-432
-224
-144
-64
304
176
-128
496
128
0
0
192
16
-208
-16
192
-144
-368
80
64
-320
-704
-432
320
160
-64
-400
-336
512
320
-128
-320
-208
-80
80
608
176
64
-352
-32
272
64
-352
-48
0
32
-288
-16
208
48
-96
496
64
-160
-368
-320
-32
0
16
48
192
64
544
-272
-448
-80
-192
-592
-576
-64
-192
-128
112
-48
400
80
-320
0
224
-16
144
352
-144
-192
-576
-256
-16
144
464
-80
32
-320
48
96
240
224
-64
272
-128
-592
-64
-304
96
-272
16
48
432
320
-144
160
-80
176
48
-128
-128
112
240
80
144
0
16
-208
-256
240
-256
-352
-64
-32
-112
-320
-240
-240
-240
-48
-128
224
80
64
-256
-288
-400
-240
480
96
96
-32
592
288
256
112
-96
0
-80
-272
0
480
80
128
272
112
-16
-112
-128
48
48
240
160
144
208
-208
0
48
-192
-208
-64
336
320
-32
-176
288
528
96
304
-192
400
224
368
368
-384
272
-16
-448
-336
0
-80
-336
-272
-96
128
112
-16
-160
96
-48
-384
32
-144
-144
400
-192
-272
-224
-128
-112
48
304
400
-192
-320
-32
-288
272
112
272
160
-224
-208
-256
-96
192
48
-16
288
272
112
-64
-192
-480
-720
-80
480
432
16
-48
16
640
-32
-496
-288
-400
-80
-48
-320
-176
-224
-400
-624
-80
80
-32
-144
128
240
-144
32
-304
64
224
48
112
400
128
-64
16
176
-96
128
272
336
336
128
-320
-320
0
176
192
-32
-336
112
208
0
48
256
176
-224
-224
128
-160
-16
-32
-64
288
-128
-96
-64
-128
80
304
224
-368
-112
64
-96
-128
80
0
208
-224
-32
-144
-32
-288
-128
128
-128
192
288
-64
176
160
144
-384
-288
-64
-176
-176
-112
144
256
480
192
32
-128
-176
-320
-96
-176
-160
-160
-16
-96
160
528
128
64
-528
-224
96
-272
-304
64
-336
-304
96
512
64
-272
128
48
-272
-512
32
192
288
32
-48
-240
-80
-240
-352
-512
-304
160
336
176
-96
-128
128
-192
-288
-144
-80
-384
-208
-144
128
-64
288
192
0
64
160
0
0
-144
128
848
672
-160
176
464
240
-144
-48
-192
592
480
352
496
304
-96
-16
112
-32
336
-96
192
-128
-144
32
192
48
112
-144
-160
240
368
320
144
-240
-480
112
-16
352
224
-112
-64
-384
192
544
-192
-48
-240
-32
224
416
-32
-752
-736
-352
192
240
336
144
-160
-416
-448
240
96
80
208
432
208
304
272
-336
-144
64
-80
-304
320
64
64
-320
-656
-48
-16
224
0
-16
-368
-96
-192
352
272
-80
256
352
384
-144
176
256
400
16
-16
-48
-336
-384
-96
-304
96
16
160
336
-48
-144
-80
0
-480
-304
-256
192
-80
64
240
384
-208
240
656
272
-384
-48
96
-256
-512
-256
32
160
224
128
-96
-496
-240
-16
-96
112
-16
-864
-592
-272
320
-128
128
112
48
-144
-176
-16
0
-240
32
-96
-64
-304
-144
-112
-240
-592
-144
352
96
-544
-432
-416
-192
64
496
192
64
96
-144
-128
272
-16
-144
-64
-320
-288
-208
-224
-224
144
768
288
-272
-224
-128
-64
192
-80
-16
48
272
160
-176
-64
64
-176
-304
496
256
-192
-336
-800
-256
32
0
-80
-160
128
32
-208
-192
64
176
128
-256
64
432
16
-448
-352
256
128
-256
-32
-64
-528
-48
224
96
64
-592
-352
-144
-144
192
336
176
-576
-480
-160
-80
-80
432
32
-432
-240
-464
-192
144
192
112
-128
0
592
48
-64
-400
-528
-48
48
-80
0
0
160
96
-32
-64
32
-32
-224
-112
-128
48
416
448
112
-176
-144
352
448
224
48
-240
-192
-352
-128
448
496
80
0
48
-128
80
-144
-64
112
-432
-32
-32
0
-160
-176
16
304
192
32
16
-112
80
96
-64
-384
-368
-48
64
-352
64
272
384
432
256
48
544
-160
-144
192
64
272
480
-128
-400
-336
-368
-368
-48
-208
-64
320
336
80
64
288
208
-32
-352
-48
-48
112
16
416
416
256
272
320
-64
-128
-384
-48
256
64
240
-320
-112
-112
-112
-208
-256
-112
-240
-224
-160
-432
-240
-48
224
192
32
48
-32
-384
-112
112
304
400
64
128
432
0
-96
304
-112
-48
320
128
-224
-272
48
32
48
-64
-32
-32
-304
-256
-160
-64
-160
96
112
128
208
208
0
-496
-704
-208
-48
80
-144
-272
80
-288
-192
-64
144
-144
-112
32
16
336
272
-224
32
-144
-64
-304
-464
-144
0
-304
-112
256
48
384
256
128
176
-64
-32
144
128
208
112
352
848
-128
-208
-160
128
-256
-336
160
144
368
160
-160
-224
-320
-128
112
-112
48
176
-208
-416
-336
-48
-512
-48
144
-160
-112
-288
-544
-160
-144
-544
-352
-608
-464
144
272
128
-48
-96
160
160
192
-32
112
0
-384
-128
-224
48
-208
-128
-128
-752
-416
112
-80
0
-144
96
576
544
64
192
64
-80
416
368
-192
-64
192
112
-272
-208
-64
144
-464
32
176
208
336
16
224
320
32
-480
16
464
144
-416
0
320
-128
-448
-80
320
48
224
-352
-240
80
16
64
240
80
-48
224
240
656
80
-320
-64
272
176
224
128
-112
-160
-544
-144
-208
-640
144
368
176
-144
-64
80
-160
-336
32
528
576
384
-48
-672
240
-160
-128
-256
-464
288
400
-384
80
80
336
80
0
-128
-192
112
112
-288
-320
112
32
64
80
-96
208
144
-320
-368
-32
-16
16
336
160
64
-160
-480
-176
256
160
304
208
-64
-32
-272
112
-16
-128
160
176
16
-272
-272
-480
-80
-96
-112
-288
176
-144
-288
-32
-320
336
-32
32
176
128
48
16
288
352
160
176
224
80
80
-64
-112
-176
-208
16
16
-880
-480
-64
-544
160
80
160
448
-16
-144
64
400
176
240
32
-240
-96
-272
0
-256
-368
144
576
80
-80
240
-320
-480
-176
96
112
0
144
0
48
512
704
0
16
-128
-512
32
160
192
64
-48
-128
240
-112
-240
-96
-400
-160
48
-112
320
144
432
272
96
-32
256
0
-272
-48
-192
-176
320
-80
-16
416
496
512
240
-352
-336
352
160
-256
176
240
-48
-208
-480
-208
-592
-272
128
208
448
304
-160
0
48
-48
-560
-624
-112
384
624
336
32
192
320
336
-128
448
208
368
32
-80
48
32
-32
144
-16
336
368
32
160
-256
-144
-96
96
-32
-224
-144
-496
-240
-128
-240
240
304
-256
32
336
0
304
128
-208
-240
0
-304
-528
0
144
-256
-608
-528
-16
-16
-64
272
592
672
320
384
-96
-64
-256
32
-272
-112
-128
176
-112
-384
-256
112
48
-128
624
240
48
-48
352
-48
-144
-64
144
-64
-160
-272
-96
-96
320
16
432
112
256
176
-480
144
320
352
784
400
-96
-128
368
320
320
-48
304
176
32
-224
-112
192
-112
16
144
-288
-144
32
-80
-288
416
608
288
64
-32
192
416
768
288
32
80
96
176
352
64
-224
160
80
-288
-240
-32
-48
-224
592
400
-512
-416
-96
0
608
384
-112
0
160
160
288
64
368
752
0
-272
-64
-144
-432
-304
-48
-16
-16
64
-272
-48
368
480
256
32
144
240
80
32
208
-80
176
128
96
-224
-320
-224
192
432
160
-240
-320
240
16
-544
-672
-592
112
-64
-32
320
-16
-352
176
240
32
160
-608
-688
-80
80
-240
-624
-320
-224
112
192
-272
-752
-96
320
-272
-144
192
208
-16
160
48
112
256
-160
-240
-736
-224
336
256
-160
-96
-256
-32
32
192
128
16
-688
-768
-608
-528
-288
-304
-208
-336
128
128
-272
-32
-80
80
464
144
-128
-336
-304
240
608
-80
-48
272
96
-384
224
-304
-304
80
-112
-64
-192
-224
112
-512
-144
-208
160
112
-112
128
0
-160
-192
-400
-208
384
16
-16
-736
-16
-256
-528
64
144
32
176
64
256
-352
-32
16
-48
-64
48
-320
-208
-224
208
576
272
-336
224
272
-192
96
272
208
-224
-464
-128
-608
-512
64
-240
-320
-128
256
352
144
-464
-48
144
464
-80
-208
80
-112
-224
176
576
288
-352
-320
896
608
224
-16
-352
-208
448
-128
0
80
48
-432
-160
96
128
320
-176
288
128
-256
-80
-336
-176
32
-208
-128
-512
-832
-112
144
256
176
-16
208
144
64
-64
-240
-32
560
256
320
-224
-352
-368
256
384
736
240
96
-400
-368
-288
-32
560
80
-320
-304
-240
224
-272
-144
224
-432
-656
-496
-192
-96
80
304
32
-224
0
-176
-32
80
-384
32
368
-240
-256
-320
-208
-448
-528
-272
16
272
-32
48
48
48
64
-208
-48
-272
96
-80
-48
-240
-352
-240
-144
-352
-256
144
688
704
240
400
352
-80
128
32
176
112
-832
-368
112
-112
0
432
320
-32
288
240
208
-112
160
-384
-144
-112
-160
-112
-208
80
336
32
0
-128
416
608
240
-144
448
752
624
16
-176
-16
96
288
-96
80
0
160
544
320
176
-32
384
208
-80
128
176
144
336
0
-16
-96
-528
-240
-16
352
416
416
-32
-112
-256
-240
-32
-416
-16
48
-368
-80
144
-96
-448
-224
-336
-128
16
240
-112
-496
-240
32
160
176
-16
240
624
112
-384
-288
-320
80
112
-192
-352
-240
-224
96
-128
-368
16
256
176
336
48
-48
-320
-384
-32
-96
-240
-272
112
288
176
416
160
80
-48
-144
96
-80
-256
-288
-176
-48
-224
-160
0
208
608
528
400
400
320
96
288
288
-64
-192
-48
-176
-48
-304
320
272
48
144
192
160
144
368
304
480
192
112
-176
-320
-512
-64
224
-64
16
-432
-128
64
96
-352
176
144
368
-208
-128
-96
640
48
0
96
400
272
96
304
400
32
-352
-96
-368
-176
-144
32
-32
-80
-320
160
144
256
-128
272
128
496
352
-16
-480
192
48
-400
-512
-432
-384
-112
-480
-48
96
-80
-80
0
272
-112
-96
-352
-224
464
336
16
-112
-48
-80
-304
0
-176
-352
176
-96
-208
128
0
80
16
16
480
64
-32
-448
-48
192
-160
-160
64
608
144
336
32
-80
-16
-96
144
64
0
-96
-112
-384
-592
-304
304
0
16
-400
-224
32
-224
-256
256
0
-112
-224
-576
-48
496
416
128
128
-304
-16
240
160
256
160
96
-16
96
-464
-448
-256
-272
-16
336
272
256
224
-272
-144
-176
-32
240
-192
112
-256
112
-256
-160
-128
32
0
192
64
-64
96
-80
0
704
672
304
208
32
160
-80
-128
144
192
-240
-48
-160
-112
320
448
-224
-144
-320
112
-240
-192
112
656
32
112
304
656
624
48
-208
0
64
176
-352
-384
176
-96
144
272
192
-464
-32
-352
-416
-80
-288
-288
-32
-464
240
208
288
384
576
256
128
288
-192
96
144
-112
-32
448
112
192
176
160
144
256
-256
-624
-608
-384
-96
256
384
-112
-128
-224
-160
-160
-48
-224
-128
304
352
48
96
576
640
-112
-48
-448
-48
16
112
-128
-112
-320
48
176
-96
-96
-320
64
-48
96
80
256
-192
176
368
336
-176
192
272
32
-128
-48
304
192
176
-16
224
16
160
-64
272
48
-16
128
288
368
304
128
208
-176
16
144
-48
192
160
-96
-80
-48
-192
-64
448
-16
-176
-224
-288
-16
-384
-224
-336
16
-288
-496
208
-48
-304
176
112
-48
48
400
288
-160
112
-96
224
0
48
176
304
672
240
-48
-32
-272
-112
320
288
176
-224
0
240
-32
-240
224
144
288
80
352
48
32
592
464
32
-368
-352
-16
112
176
-384
-176
-48
0
-96
-112
160
96
-256
16
-432
-384
-496
-592
-224
192
16
-560
-416
80
-48
-512
-816
-528
-464
48
160
-432
-528
-320
-208
-336
-96
-48
272
560
400
-16
48
416
-336
160
80
-320
-432
-192
176
-80
48
-224
-176
192
192
480
128
960
672
288
144
-176
-176
80
-128
-304
480
128
-160
96
-288
96
-208
-128
-272
-384
32
96
400
160
-304
-272
48
176
432
-64
112
112
-16
64
64
-176
336
-48
-256
48
80
-64
-80
368
48
-432
-96
304
352
448
160
192
48
160
288
128
80
-144
-528
-288
-560
-160
288
32
0
-176
-176
-48
-384
-288
128
176
80
-400
-64
-224
0
176
128
128
528
512
624
288
-160
-448
-176
48
-80
16
-208
-176
-128
144
336
-144
256
64
-224
240
-208
-240
48
0
-368
0
-128
-608
-368
-48
-352
-48
-16
-80
48
-144
-144
-256
-640
-640
-64
-112
32
160
-80
240
624
512
336
176
320
192
-128
-288
-416
-176
32
-224
-304
112
224
-272
64
-416
-160
-16
336
16
-16
176
192
-16
-320
-384
288
-80
0
-368
-256
-432
-96
-144
128
128
240
-112
96
208
48
496
768
176
-400
-80
112
-256
-80
-64
112
-192
-256
-144
-240
-352
144
416
176
560
480
160
368
112
0
-32
-80
448
-128
32
112
64
736
208
-160
-288
-256
64
-128
-16
432
208
-80
96
288
128
-400
224
400
0
16
-496
-384
-224
-48
-80
64
-16
704
352
-208
32
208
-176
-544
-704
-368
-576
-256
112
240
-112
-176
-224
-176
-368
-176
256
-176
-32
336
128
-64
240
320
240
256
128
-416
-272
304
336
272
240
64
-96
16
96
-256
144
464
576
-80
-496
-96
80
176
0
256
64
-112
-304
-272
-432
-416
80
112
-176
-352
336
-48
192
256
352
-96
-112
192
-256
-320
128
-144
-512
-544
-64
80
112
368
-528
-64
144
0
-32
96
-256
-272
16
-96
-320
-32
368
208
304
-16
336
224
-64
-144
-240
-32
-656
-272
-112
-32
48
-224
112
-128
-96
-192
-336
-240
-144
128
416
-224
-368
-16
-16
-432
-400
80
176
-256
-96
176
144
96
32
-192
-144
-224
432
416
-240
-144
-144
-128
416
688
-336
-128
-192
224
240
-48
80
320
96
-352
-336
80
-176
208
-160
-240
144
-80
64
176
704
160
80
-16
-240
176
-240
-336
144
224
240
560
272
-256
32
-480
48
144
-128
-288
-208
-448
-288
-176
-160
-112
112
208
192
32
496
112
16
-272
160
576
0
-320
-48
208
368
-64
480
576
352
272
64
400
368
384
112
288
64
-16
304
304
-64
-32
-112
-48
336
0
-176
-64
192
512
400
-16
-224
-576
-320
-352
64
-112
-80
0
96
-128
-192
64
-688
-576
-544
208
80
-144
0
-176
64
16
-48
224
-48
-192
-176
-128
-144
-128
208
320
256
464
-336
-512
32
-240
-208
192
-208
64
32
128
432
144
80
336
608
64
-32
160
144
-16
0
-288
-144
464
96
-144
112
-48
144
-128
-48
128
-80
-592
-560
-368
-160
-384
-368
0
-320
80
128
48
416
64
-384
-144
96
64
208
-16
32
-80
304
768
-240
-64
240
48
208
224
-192
144
592
352
416
736
160
-160
-480
-160
80
208
288
160
80
-80
0
48
0
-160
-160
80
0
-160
144
16
320
96
368
144
-48
-384
-448
-208
336
384
0
416
-192
-480
112
0
-128
-320
-192
320
560
240
224
80
96
112
-48
-352
0
0
96
416
112
-432
-576
-32
256
64
-80
-96
-80
-240
-384
-176
-432
-16
-32
288
256
-96
-592
-720
-160
128
272
192
256
-272
-80
288
96
432
128
-240
64
-272
-16
-96
-256
0
-16
-400
-336
-208
-112
-320
176
272
-48
-96
-304
-320
-368
32
320
-96
16
-352
-400
-128
144
304
272
-368
-288
112
112
-80
-112
-96
176
288
208
-32
-80
352
704
144
-80
320
-192
160
432
48
-112
304
-208
80
384
-64
-96
-240
-368
48
-48
224
32
-448
-224
64
320
144
240
48
-96
-32
-320
-16
112
-304
48
96
-128
-672
-416
192
-336
-272
-96
352
176
-16
-160
0
80
160
32
-224
-336
-192
-240
-656
-48
-256
208
192
-224
-160
0
-384
16
192
64
-96
144
224
-32
-208
-64
-272
-608
-176
-32
-192
-112
-336
-640
-160
-208
-48
128
0
-16
-560
-416
-96
-240
-256
368
416
480
80
80
48
16
16
240
416
16
-352
-144
-336
-288
240
256
176
-48
-224
-576
-96
352
128
272
-16
-112
240
304
-240
-400
-48
192
64
256
432
48
144
416
-32
-560
-528
-80
400
-16
-256
-560
-400
-224
128
16
208
112
176
80
80
176
112
-240
-128
-32
336
256
64
160
16
-224
-192
-160
400
304
-304
-176
-320
288
-32
288
304
-80
-160
176
-272
-288
320
368
16
-240
-784
-352
-16
-48
192
272
80
64
-208
-384
-576
-160
352
352
-240
-384
144
-80
-160
-32
32
112
16
48
-336
0
-480
-592
80
528
-224
-576
-128
-16
128
-224
-336
-80
-304
32
-144
-128
-272
176
16
-224
-224
-352
224
16
-48
-80
-160
-288
144
-64
16
-144
384
176
-384
-304
-96
-304
-336
64
112
16
-304
-400
-672
112
320
-368
-176
608
-96
-176
-160
-592
-192
224
-48
-64
64
-208
32
-16
416
320
-48
-128
-336
368
288
-192
16
-400
-288
192
96
-144
352
240
-128
-656
-320
-448
224
272
-304
-272
-64
128
-48
176
-16
160
96
32
144
160
80
-368
-656
-48
272
256
-352
-112
-304
-304
-864
-128
368
192
-288
48
16
-48
208
-48
-192
-576
-288
16
-208
-224
-224
96
-80
-176
-192
-144
-224
-160
-416
-576
-576
-240
192
96
192
304
32
-128
-48
160
400
-112
256
368
48
80
464
64
-96
144
-352
-352
64
560
-416
-352
-288
-144
80
-112
16
-320
-640
144
-336
-320
176
464
-80
208
512
48
64
-112
-336
-192
-144
-352
-320
-192
-304
-48
-400
-592
224
-48
-32
-224
224
16
224
224
-272
-192
-32
96
32
-96
-96
0
-32
128
320
-288
480
96
32
240
-144
-224
64
-128
-192
128
400
-224
80
0
80
224
80
112
112
192
-176
-224
-176
-144
128
208
-256
-272
-16
-112
64
240
256
272
-704
-368
-96
80
32
160
128
400
416
496
112
-64
336
-176
288
-464
-208
-16
-272
-48
-16
144
96
-144
96
-144
176
80
-144
160
416
-128
-96
-240
128
32
144
304
-80
-400
-224
240
-352
-576
-464
-256
16
176
208
16
-240
-128
240
-128
-368
288
192
48
-96
224
-48
-80
400
240
288
176
48
-128
0
-336
-144
-80
-240
96
176
-320
-400
16
96
-240
-640
-80
-128
224
192
192
48
448
-224
-576
80
-176
-288
-496
-320
-144
-272
-176
16
0
-64
-176
160
240
240
400
-32
-80
-80
416
0
-48
128
240
64
80
-160
-752
-576
-208
-192
32
64
-304
-144
96
288
-240
-64
-128
144
-64
112
336
496
256
240
-320
-400
-64
-400
-624
-608
-608
80
208
144
240
-208
-352
-80
128
352
144
-176
-208
-256
48
544
288
-80
80
-80
-224
48
432
400
112
-16
416
176
304
416
112
-256
-224
0
176
160
-48
-176
-112
-256
-480
-416
-720
-624
-496
-544
-48
-432
-80
224
64
-96
112
112
240
112
416
512
176
160
-256
-368
-112
144
512
48
-368
-16
-192
-144
-32
-320
-352
-48
432
128
272
112
400
224
48
-96
224
0
288
432
192
-48
48
256
160
400
-16
-400
-224
-336
-112
160
128
80
240
320
256
-112
-240
-80
-112
-176
80
176
192
-32
-32
48
16
288
224
448
-224
-368
160
112
-224
368
208
176
80
432
272
128
16
144
64
-64
-144
-192
0
512
288
64
-96
-176
-480
-240
352
464
320
-176
-176
208
256
-80
160
16
-96
224
-304
-240
368
256
64
0
-176
-304
-160
48
112
480
368
-144
-64
-64
224
160
640
208
-208
-80
-320
16
64
256
-208
112
128
-288
-112
-144
352
480
448
64
-112
336
80
176
432
192
128
288
320
288
64
448
-32
-112
-96
-80
-512
-208
64
-144
32
160
-144
-112
-384
256
-80
-480
-176
-80
-192
144
112
304
576
208
-240
-272
-336
-176
160
144
352
-32
-112
0
64
272
48
288
240
176
288
-48
-432
64
192
-336
-240
-64
32
-208
64
-80
-176
128
64
-160
176
-128
-576
-416
32
-112
-320
-80
-256
-64
-176
-224
-256
-16
576
128
96
-128
-64
-32
48
224
80
-96
-592
-416
-240
-176
-240
96
-128
-160
-400
-352
-432
160
464
224
32
128
304
128
192
192
-48
-448
-320
-272
16
368
32
-16
48
-416
112
128
-128
176
-288
-144
-512
-624
-416
-736
-720
-208
384
160
-224
-16
128
-32
-544
-624
-480
16
-16
64
192
240
192
0
-192
448
256
-64
-192
32
16
-304
-336
-128
352
-384
48
320
-96
-112
-240
-368
160
288
-32
-304
16
176
-320
-560
-256
112
-320
96
-592
240
448
-400
-400
-224
64
-64
64
-80
-368
-96
48
-176
-128
-128
496
-16
368
-80
176
-64
-144
48
160
128
-160
16
272
192
-464
-352
-96
80
-304
-544
112
80
-240
-48
48
-112
144
480
304
-464
-272
-224
-288
-256
-480
-224
-160
144
-240
144
320
128
-80
-64
-48
-160
-176
-32
48
32
-32
0
224
-48
64
-400
-224
288
-400
-512
-384
-112
112
-160
240
624
272
176
112
16
-160
-240
-528
-304
-496
-688
-464
-16
320
160
-48
-288
0
48
48
192
144
-192
-160
-112
-112
112
224
192
304
32
144
-112
224
64
-16
64
160
240
336
48
-64
-272
-64
-240
-128
-256
-464
-128
-272
-48
-192
-272
-64
-304
-32
-160
-256
368
-256
-144
32
-240
16
-48
96
208
256
432
160
48
-288
-144
-224
672
400
48
608
432
-336
-272
-48
352
384
240
240
-176
-208
-464
-432
-16
416
0
-384
144
-256
-128
112
80
-32
192
432
256
-224
-96
272
400
16
-192
256
112
-336
160
432
112
-208
-192
-16
0
80
240
-112
-272
-128
128
-208
-64
272
304
128
32
128
-176
-224
-224
96
-16
64
-128
48
-80
-480
112
368
288
-144
368
448
240
368
-16
176
224
208
192
-320
-192
64
288
80
-528
-272
304
-64
224
-240
-496
-464
-304
-48
240
0
32
304
160
-112
-128
496
368
-112
-272
-448
-560
48
272
0
-16
208
192
-32
192
-192
-256
-496
-80
0
112
-32
-16
128
240
144
-240
144
32
832
560
0
-176
-304
-48
-16
-352
-144
64
-256
320
-96
-400
-144
-224
272
208
-496
-608
-192
48
-64
-240
224
-128
-192
-224
96
-144
-144
-544
-288
-784
-704
-64
16
-176
-400
-192
-96
16
640
0
-336
-176
-304
0
-240
-576
-240
-208
208
-160
-256
96
176
144
-112
-304
-496
-192
48
160
48
-64
240
48
160
-64
192
288
64
240
144
16
-112
192
368
-224
-320
-16
-224
96
368
176
-32
-16
-352
-16
-96
-16
560
672
224
-64
-352
-416
-32
-336
-608
-176
-624
-208
240
-80
-208
-32
352
-112
-288
-320
-288
-80
112
336
160
-64
-192
384
240
144
80
224
416
-64
-336
-352
304
-336
-640
-208
272
112
16
352
112
-368
-32
-128
320
336
-80
-224
96
112
-80
-176
-176
160
160
144
-48
-464
-352
32
272
288
208
384
-16
176
32
304
272
-128
-288
544
272
32
384
48
-224
240
128
144
-96
288
352
352
400
240
80
-160
80
-160
-432
32
176
96
496
128
64
400
48
-96
272
112
176
336
288
64
-240
48
160
208
240
-272
-384
16
160
304
448
144
64
-304
-208
-80
80
80
-288
-400
176
-176
128
144
-160
64
144
-256
16
-112
96
-32
256
432
32
512
-48
-144
-16
-672
-704
-448
192
16
-224
-96
208
-80
-176
-416
-416
-640
-528
-160
480
80
-432
-48
96
-64
-384
-80
-368
-416
0
144
96
320
304
384
400
96
-32
96
-160
-288
0
16
112
0
112
240
-32
48
432
480
112
-304
128
208
-384
-480
-16
176
-80
-512
-288
432
368
336
256
128
-208
-496
-16
-80
-400
112
256
320
-416
128
512
144
-320
-112
-496
272
112
352
48
32
128
-144
160
96
0
0
-352
-240
-720
-672
224
400
-48
-432
16
-80
-208
-464
-48
-224
-416
336
480
208
48
272
144
64
48
80
144
-336
-512
-16
-192
-208
240
-80
-272
-160
112
224
-160
160
144
656
16
-416
32
400
256
-176
96
-48
160
-128
-112
112
240
-144
-96
320
304
128
-96
0
224
336
-16
-240
-576
112
160
-144
-640
-336
32
0
304
368
0
-96
384
80
400
32
-224
-112
208
16
256
-16
-64
-240
-256
-336
288
144
-128
-352
-240
-160
256
176
80
16
-128
48
128
-16
32
-64
368
80
144
304
352
176
272
272
240
0
304
224
-208
-336
-80
-128
-48
-400
-32
208
256
208
32
240
400
-176
-160
112
32
-112
-272
-80
-304
-400
-48
128
160
368
80
-128
-96
-112
-208
48
240
128
-352
-304
-400
0
-384
-448
112
0
464
192
-96
-160
-240
-240
192
-64
144
-48
-448
288
496
-160
0
-128
-352
-432
-128
352
112
288
336
288
-128
-608
-608
-112
0
16
-272
-320
176
0
32
-144
-208
32
-224
448
928
240
-384
-128
176
-272
-160
-160
-80
-272
-624
-256
560
288
160
128
272
256
16
-464
-544
-448
-144
128
-16
16
192
112
-112
-96
-464
-400
-160
-192
144
352
-32
-144
272
192
-288
-96
-16
-272
-448
48
-272
416
448
256
256
80
176
48
-400
-272
176
416
368
688
192
32
-48
224
176
64
160
-352
-144
-208
-16
-144
448
160
336
80
192
-368
-32
32
144
-176
-144
0
192
448
-112
-224
272
560
480
352
-16
-240
192
448
80
-336
-144
224
288
272
256
240
496
608
192
-528
-304
-48
112
416
272
-144
128
624
368
288
-128
-48
160
-160
-80
528
368
144
256
336
32
48
32
-144
-304
192
-48
-320
-288
256
272
-112
-352
-96
48
-64
-16
192
112
432
160
176
240
-112
160
352
144
448
336
400
384
-32
-160
-192
-64
-352
192
624
96
-80
-560
-160
64
208
-64
-48
-32
-352
-560
160
32
-320
-448
32
0
-272
-48
32
-480
-368
-320
-224
256
-48
-832
-752
-176
-16
-272
-176
-432
-32
32
64
-160
272
112
-160
-448
80
176
-320
-304
240
256
-80
176
-176
-32
-16
16
16
16
-80
-144
-416
-208
-320
0
-16
32
-272
-544
0
288
448
-16
-128
128
-352
-240
224
192
-112
-80
-256
-288
-208
-240
-256
-96
432
400
336
-64
-80
-176
-304
-192
48
-400
208
-128
-192
-112
-144
-192
384
416
400
384
16
-48
32
-336
-368
144
-192
-304
-384
496
-32
-128
128
48
560
608
208
64
48
-48
-336
208
176
-416
-80
48
224
400
80
-80
-208
272
400
368
320
-464
-208
-96
272
272
192
0
-48
96
-144
224
-128
-256
-256
-288
-128
288
208
32
384
-32
-288
80
128
416
-160
-208
432
224
304
128
224
288
16
-496
-528
-320
-32
-368
-688
-208
-112
-32
112
80
640
288
-272
-192
192
144
-80
-448
-176
-240
128
192
16
-96
480
112
-128
-112
224
192
432
112
144
176
256
-416
-48
544
-48
-304
64
112
0
320
-96
-160
-208
128
-48
112
64
-288
64
0
-48
368
352
144
-48
-64
-160
-144
-96
-496
-192
144
240
560
288
352
528
496
-16
224
320
-368
-336
-336
-768
-304
-352
64
-256
-16
128
0
480
368
-80
320
-272
-224
-224
-304
-272
-208
128
-192
112
304
224
-192
64
-144
-208
-528
-448
-512
32
-96
-368
-336
-144
-528
-48
-176
-80
-144
-256
256
480
64
-224
80
80
80
-16
-400
-112
48
144
-400
-432
0
-240
-160
-112
256
240
-256
-128
16
304
-160
96
-48
-208
-272
80
256
144
-80
-384
-224
-224
-544
-512
-240
-176
-16
-32
-288
-240
144
416
320
-80
-592
-368
-176
208
432
96
96
-48
-320
-160
-48
0
-352
-80
128
336
64
64
-16
-48
208
144
-64
240
-224
80
48
176
-192
-272
112
256
-32
64
80
224
192
16
432
240
-96
-256
-16
-400
32
-48
-496
-176
192
544
240
64
-80
-144
480
-256
192
272
176
-208
32
-128
-432
-448
-320
-16
16
0
-192
-112
32
-208
224
176
-224
-560
-256
-208
-368
-240
-144
-160
16
-112
160
-384
-192
96
528
320
-32
16
256
-240
-16
256
400
256
-48
336
352
416
-48
-80
0
-256
288
0
224
192
528
544
-336
-368
-224
-240
-80
-176
-32
16
240
64
16
-496
-432
176
192
16
16
160
320
96
0
0
-112
-336
-400
-48
48
-48
-352
-240
-208
-240
0
32
-32
-480
-608
-48
-48
320
-272
-320
-608
-48
-64
-432
-96
-224
224
-176
-112
-96
-160
-304
-384
-336
-112
-288
-96
224
16
-64
256
480
320
0
128
0
-48
-96
-432
-448
-496
16
208
-416
16
-64
-192
-144
192
320
-304
-224
-480
-240
240
128
-480
-272
96
32
80
352
544
480
512
352
-384
-96
304
-16
-368
112
-16
-128
384
352
304
-208
144
-192
-352
-336
112
304
112
176
48
128
512
-208
-336
-256
-240
-496
-192
-208
-144
-64
64
-208
528
384
224
16
-32
-112
0
352
624
336
-32
96
-192
-224
-64
224
224
176
128
160
112
-224
80
-160
16
352
-64
-144
-352
-448
224
-144
-112
128
-80
-128
96
-80
-368
-464
-176
512
80
32
80
-80
0
-384
-368
-160
736
240
176
192
256
160
16
176
-32
336
-128
-144
240
608
256
368
112
-304
208
-400
176
240
576
560
-16
32
112
160
96
272
192
-144
-96
-176
96
272
-304
-96
-224
-592
-272
32
-176
-384
-208
384
352
480
-16
-336
-288
-208
16
48
-304
-32
144
304
48
560
-96
208
32
-464
-272
-256
-480
-256
-368
-432
-272
80
-64
-128
-320
-48
208
-272
-112
384
96
0
96
192
-128
80
432
288
-192
-48
-192
80
144
336
-304
384
32
16
560
176
160
-80
-160
-176
-192
-48
192
272
64
-32
160
-304
-544
96
-16
224
304
560
-176
32
-16
704
176
-128
272
16
160
224
176
-48
-48
240
160
-64
192
-112
112
48
-112
-112
-384
-272
-448
256
-128
0
304
32
288
208
352
0
-240
-32
-80
-256
-96
-240
128
-32
-16
80
256
48
624
224
304
-400
-400
32
-512
-144
128
112
-112
-128
-160
128
480
656
-48
-336
304
16
32
144
-80
-64
-80
-256
176
144
144
-288
208
0
-160
-16
-400
432
368
0
192
400
-432
-240
128
688
16
32
-32
-32
-16
-224
-224
144
16
-16
-32
240
-16
224
128
32
0
-208
-784
-48
-224
-96
480
-64
304
144
16
-208
-176
-208
80
-96
160
160
272
-96
-416
-80
64
112
416
320
-32
-192
-304
-64
256
176
160
240
-160
-240
-64
-160
112
352
-64
80
-288
-208
304
480
464
320
16
224
-144
-304
-336
-448
112
256
-224
-160
-336
-272
240
192
-624
-256
208
256
-256
-208
16
-336
16
-160
-256
-160
16
-176
-16
-128
-144
-272
-368
-208
240
224
-16
-400
64
-336
-576
-144
-176
-352
160
320
-256
-432
160
512
-64
-192
-48
-384
-432
-432
-400
-144
-32
-176
336
208
208
-224
112
-240
128
144
128
-32
464
-16
304
144
368
-432
-480
-320
-192
96
-48
-432
-384
-240
96
640
96
-192
-464
-480
-96
80
-208
-224
-96
-48
-320
-112
-192
128
-256
-736
-624
-32
-48
-160
-80
48
240
-352
-240
-160
48
0
-80
-192
-32
352
-176
-256
112
-160
-320
-208
432
-256
-240
64
64
288
224
192
-96
-352
-352
-64
32
144
-32
-336
-384
272
224
0
-80
-80
-256
-512
-528
352
304
-32
48
-448
-800
-448
-432
304
336
32
-64
224
160
-32
32
384
48
-32
-416
-544
-272
112
-48
96
-80
-208
128
48
-192
-160
-240
464
96
400
96
-240
-16
-32
592
-64
-208
16
48
-128
176
48
-288
-800
144
0
-240
-304
96
-128
-288
-240
-112
-400
-464
-208
-32
-240
-160
32
224
576
528
-160
-48
256
-176
144
288
208
224
112
-144
-368
176
-96
-528
64
-288
96
144
-448
-288
128
16
-80
-368
48
624
512
96
-448
-320
-272
-192
-144
128
48
-32
16
-160
-192
-64
-144
-192
96
-176
-16
0
48
-32
80
0
0
80
160
-240
-64
-304
-64
544
96
-272
-240
16
16
112
480
896
560
-80
-368
-48
-112
-48
192
112
-32
16
-16
-240
-160
0
432
768
-64
-96
-96
-32
-304
0
144
48
352
272
-16
32
144
352
480
16
64
192
-256
-160
288
400
-96
-80
-304
-448
-32
416
-128
-64
144
-96
-176
-16
176
272
32
432
-80
-96
416
432
272
-224
-320
-288
-64
-128
336
512
-112
-144
128
160
80
304
48
-128
496
640
192
-608
-448
96
-352
-480
-480
-112
160
224
64
-16
48
320
-112
-304
-192
32
80
-112
-256
-448
0
448
224
16
144
-48
176
176
192
352
-64
-16
32
112
16
112
256
32
-144
-48
144
384
-208
-240
-224
-192
-64
-192
-336
-336
-416
-400
-144
112
288
-16
-144
-304
112
-32
-144
-272
-432
-288
-176
-160
448
112
-208
-304
-256
-608
0
32
160
112
-32
-48
208
-16
-352
16
-304
48
304
-16
-192
16
-160
-336
384
144
-96
-144
128
352
336
272
-224
224
448
-176
-192
-336
320
352
-192
-160
144
384
-16
192
224
-272
192
288
704
80
-352
-448
160
464
48
368
-160
192
128
-144
112
592
304
16
-48
-256
-368
-112
-256
-32
-272
112
32
272
224
-208
48
-160
-160
32
-368
-288
48
208
-144
16
96
-688
-528
-144
128
272
240
-208
304
112
112
128
32
-464
-176
16
352
512
-64
-368
-352
-128
176
-64
-240
160
-112
16
-176
400
16
160
416
368
240
-80
-192
-640
-624
-816
-576
128
-416
-128
208
0
64
160
-160
272
144
272
208
-80
-160
-208
-48
-256
-192
64
112
-208
-64
-48
160
64
-64
-576
-16
656
240
144
496
176
-160
80
80
-64
-416
384
-96
-416
-224
-144
240
-80
-128
-240
-416
160
160
-272
-480
32
-192
-32
368
144
304
560
560
416
320
-16
-112
176
768
272
400
368
-192
-240
-64
-208
224
96
-32
352
224
96
-128
288
224
144
16
32
-176
-32
-32
80
-208
224
208
-32
-16
-192
-304
208
144
-80
-288
-144
-32
336
32
-320
-576
-656
-16
-16
80
-80
48
384
-128
48
-304
96
400
48
0
-144
-416
-64
32
16
128
-192
-96
-288
-144
-64
-288
0
304
16
80
336
416
80
-320
-240
-160
112
-352
-416
-240
-320
288
128
80
0
-32
-160
-592
-128
256
-112
0
-96
304
464
160
432
448
240
-544
-272
-240
-48
-144
-304
-640
-304
-640
-192
-96
-256
-112
-192
384
144
112
-16
-208
448
704
96
192
-96
-256
-320
-48
256
32
16
-352
-224
-352
-416
-352
-416
240
-304
-608
-384
-192
-288
400
96
-80
-368
-64
-48
-320
-320
-320
32
144
144
-208
-256
-144
-224
-32
-48
-224
96
240
272
-144
-64
176
96
272
16
-432
-368
-416
-288
-96
-16
-16
416
432
96
-336
-224
-64
16
272
240
432
128
16
-48
592
-80
-112
112
192
-240
-64
448
416
0
-144
-288
-208
-320
320
656
176
-96
224
96
-176
-496
48
-48
16
144
-96
-448
-496
-160
256
496
-32
-96
32
-304
-256
-336
-64
272
224
-192
-64
320
64
-512
-416
-48
0
224
128
432
304
0
-176
-304
80
32
-320
128
160
-640
-464
192
0
480
304
-176
-192
-96
32
-96
-48
624
448
32
-128
-144
-64
-176
-32
336
-48
-176
-80
96
-272
-432
-208
480
480
240
-32
-224
80
-80
240
-128
-32
256
256
48
-144
64
256
160
-64
-96
-192
144
-176
-128
256
48
-48
112
0
336
112
-176
-624
160
240
256
320
336
80
-288
-64
240
304
288
-128
-336
192
608
-192
-352
288
-80
-432
-192
0
-144
-80
-288
496
336
688
576
192
688
592
464
768
-96
-80
64
-256
-448
-368
592
464
48
144
288
688
448
304
256
-160
-272
-608
-80
224
192
144
352
368
-128
-32
112
32
176
512
848
96
64
480
-208
-416
-16
48
-272
336
416
112
-16
320
-16
256
-32
608
336
160
352
48
-368
112
224
128
-48
-224
-208
-224
-192
-368
-160
128
-192
-128
-64
-48
-272
176
-80
-208
-304
-512
-576
32
-32
288
-32
-144
288
352
-16
-96
176
272
512
160
176
176
-32
48
496
304
-576
-560
80
-368
-64
320
320
-240
144
-176
112
96
160
448
288
-96
96
128
224
208
240
-160
-96
256
48
-208
-144
-320
0
192
-16
-80
-256
-112
-272
-32
-64
0
-160
-112
-128
-592
-272
272
272
208
64
-48
144
304
-336
336
256
-144
240
64
176
-16
64
192
208
112
-240
-272
-48
-32
48
208
288
-112
288
368
384
-224
288
112
-48
288
-16
272
-16
0
208
-32
-144
-224
-368
-304
-576
0
192
-48
336
144
-192
112
96
192
-160
-224
464
-96
-208
-336
-144
-128
-160
-416
-528
128
256
64
64
0
384
32
-400
-288
-304
-304
176
512
512
-96
32
-48
-240
-192
-96
-160
560
144
-144
160
112
176
-480
-352
-272
-160
-576
-96
-96
-192
-64
-176
-272
-208
-464
-144
128
320
160
96
496
192
112
-96
-16
144
-32
128
336
-192
-352
-336
-368
16
-400
-192
16
352
224
0
-144
48
-192
-336
-32
-128
-448
-336
192
160
-80
-160
96
-176
-32
-96
-80
-464
-256
-288
32
336
112
-112
-144
32
320
592
-80
-416
-32
256
144
144
336
16
-256
-224
-224
112
-224
-208
-160
-144
112
-32
-80
144
16
320
400
-176
304
16
-400
-320
-128
-192
64
0
48
-528
-144
544
592
304
224
112
-32
-160
-288
-48
64
400
96
-176
16
-80
-48
160
16
-464
-192
32
240
320
272
-304
-48
32
-144
-48
-464
-144
176
-448
-32
128
64
-272
-64
-16
16
32
-64
64
-400
176
-16
32
80
-432
48
0
-48
-384
32
160
192
-256
-96
176
-128
-704
-592
-208
256
32
-336
-240
-144
48
256
-160
-160
-480
-160
48
192
-96
32
0
-64
-112
-112
-160
352
160
-144
400
544
112
288
448
416
384
480
192
-144
-320
-48
-144
-240
-192
-96
512
352
-80
-128
-384
-16
160
-304
-16
176
368
240
-320
-448
-368
-496
-320
-272
128
-160
336
448
-32
-96
0
16
240
656
224
-384
128
112
-304
-176
80
336
-272
-320
-448
-160
144
48
-288
144
-64
224
176
-48
-800
-672
-96
368
608
144
-176
-208
-416
336
352
288
-224
16
-176
288
432
48
-48
-128
-192
64
-240
-304
16
64
-32
-32
-96
112
64
-304
176
-208
-336
-304
-288
-208
-160
-32
448
576
752
-128
-336
-208
96
224
384
-112
16
0
16
-224
-528
-64
352
-64
240
32
304
48
32
80
-224
-96
352
208
-144
-112
112
144
-320
-368
-656
-592
-160
112
192
48
304
208
160
192
432
640
512
96
64
80
128
240
128
-160
-240
160
96
-64
-256
-496
-496
-528
-96
-288
-144
-896
-400
240
-80
16
256
-48
-416
-160
448
160
800
368
80
224
240
384
-64
-256
-176
-512
-368
-80
-320
-272
176
48
-48
-208
128
112
160
-80
288
0
-48
240
208
16
64
64
-224
-400
48
256
144
432
192
16
-48
-144
-64
96
-64
-96
80
176
-48
-304
-48
160
144
-112
-96
-32
-32
416
64
-256
-32
48
-64
-160
-240
-160
-576
-80
288
0
-96
-128
112
-64
32
176
-144
80
-416
-272
-32
0
-16
672
32
336
16
-224
-48
128
112
96
336
144
208
-320
-560
-528
-144
-64
48
-112
-48
128
80
80
80
-32
-688
176
288
64
-64
-272
208
32
-64
256
128
0
304
464
-176
-176
48
-96
-176
-64
-432
-16
192
176
-16
-192
-288
640
80
-224
64
-48
192
512
624
240
-48
-80
80
224
80
256
320
144
64
48
64
144
208
-192
112
224
-96
32
-64
-208
-48
176
576
272
-64
-384
-400
-272
144
336
48
-224
384
176
0
480
112
16
384
-48
48
496
32
-128
-128
112
-272
-432
-416
-208
-224
-144
-64
-208
-320
-176
144
16
-288
-896
-416
256
192
64
160
16
528
128
-176
-272
32
304
224
-16
528
400
80
-384
0
-416
-80
-272
-192
-80
80
-352
-48
-448
-32
160
-448
80
528
464
272
448
-16
-256
-48
-48
96
-256
-32
112
48
240
336
416
-304
32
592
-48
-352
-144
-16
128
336
-96
-80
-32
80
-64
-496
-560
-128
368
160
-288
16
240
-128
160
-320
-160
80
96
-128
352
-144
-592
48
32
48
-336
-80
-128
352
320
320
-192
160
448
-112
-96
368
-64
-176
96
48
304
-128
-224
-32
192
64
-176
-192
-288
-304
-16
256
256
288
48
-128
-48
16
-256
-224
272
-16
16
-32
-128
-528
-208
-400
-400
-160
48
-240
-176
368
112
-176
-368
0
224
-208
-352
-128
-240
-304
-288
-80
384
384
32
-256
-400
-128
-112
-144
-240
-160
-208
-400
-400
-272
32
-256
-144
64
256
-32
-224
-96
96
256
336
80
-224
48
-96
320
96
368
320
32
224
-16
-224
-192
-112
80
-416
-528
-352
-32
240
-448
-320
-528
-464
-368
192
640
304
-48
80
128
0
-112
0
336
16
16
-192
48
384
-48
-160
128
-304
48
224
-256
-304
-352
-80
336
-160
-432
-400
0
256
-144
-336
208
192
304
-160
176
288
512
160
-512
-512
208
176
-64
-96
160
96
-112
-384
80
48
96
176
-240
128
512
288
384
-32
-144
80
80
-416
-336
-464
-288
0
128
64
-432
176
-32
-96
32
-176
-272
32
224
-144
-176
-240
128
80
288
400
-160
112
112
-272
-16
0
96
112
-96
-48
-560
0
256
272
-208
-32
-400
-624
128
400
576
288
80
-224
-288
64
256
240
224
-208
-288
48
-80
144
-192
288
416
528
608
464
96
-480
-208
-48
400
464
-192
48
176
-64
256
112
144
96
192
400
256
320
0
80
192
-16
-16
512
288
-352
-112
-16
-144
176
128
-48
400
-48
192
384
816
240
-224
-192
-288
48
48
-272
144
288
-208
-304
128
592
496
-352
-48
160
384
16
96
272
-16
112
464
48
64
224
400
160
-112
-304
-240
64
-64
-176
-80
336
-64
160
160
64
-64
-80
192
-192
-544
32
-240
-272
160
-176
-112
-320
-432
464
704
272
272
96
-320
-208
144
304
48
-32
80
-48
128
-208
-144
96
432
304
208
224
-384
-80
-144
-144
224
-176
-112
-464
224
-16
112
-144
-80
64
112
96
128
32
96
80
-16
-320
-224
304
368
-128
-320
-224
-272
368
576
256
288
512
384
32
-16
-384
-432
-320
-272
-208
144
720
192
288
160
496
240
304
352
272
208
208
-160
128
288
208
-208
-48
-480
-32
272
-176
-608
-464
-176
128
-48
-256
-48
-64
-192
160
-272
-32
-224
-352
272
0
-464
144
-16
-96
176
48
32
544
384
-304
-448
0
-64
240
192
16
-32
736
272
-272
-336
-48
-528
-368
-224
-272
80
-128
32
336
48
80
432
16
-64
-368
-144
-272
-352
0
48
-432
-592
-64
-128
-112
48
0
-240
-272
-96
-256
208
336
336
336
96
160
384
-112
480
128
128
272
176
80
464
-64
-384
-288
-112
-208
48
-288
-288
-128
-336
-224
-192
-192
304
-96
-48
-80
-160
-400
-592
-224
-64
-80
-464
-352
-192
-112
-48
-112
-176
-416
32
240
-464
-432
-656
-544
-480
80
352
112
-160
96
80
-112
-320
-304
-224
48
176
384
16
-32
-96
80
0
-48
-848
-304
0
144
-352
-112
-336
-32
0
-528
-96
48
-464
-560
32
-176
240
-160
-80
-128
-160
176
-32
128
608
400
-128
-224
80
64
384
144
-112
-112
-160
-16
144
-208
320
-64
48
400
384
368
368
128
-48
-112
176
208
48
80
-208
-160
-624
-240
16
128
-48
-80
-32
144
128
16
-176
48
-48
-48
-160
-80
-112
48
368
320
0
-256
-160
64
400
-32
-112
336
192
-176
-224
-64
-208
368
96
-256
-448
32
-96
-384
-224
-384
-416
-32
-352
96
32
-336
-512
-576
96
32
80
544
448
96
-416
-144
160
144
-368
-256
-192
-208
96
-320
-400
-64
32
544
448
112
96
432
-144
64
-96
-112
-96
0
16
96
96
-160
176
176
144
-112
-288
-80
128
-368
80
320
-288
80
-64
208
80
-384
-832
-288
-112
-400
-704
-640
-192
-112
240
-160
-176
128
-80
-496
96
336
-128
-224
368
160
80
192
448
-176
-160
-32
-80
-336
-128
0
-160
-624
-192
-128
-288
-464
304
240
-160
-144
-144
-144
0
304
160
16
208
384
96
128
256
400
192
288
448
352
320
592
704
576
160
-192
-96
0
-16
-208
208
400
-16
-528
176
-128
-80
-336
-48
128
-208
-208
-48
-272
-96
192
144
48
176
176
368
336
320
224
16
-528
-496
-304
-96
176
-480
-848
-112
-96
32
384
176
48
112
-80
-320
-208
-256
-32
-592
-80
-48
240
-304
16
-400
-528
-48
-176
-48
256
192
368
672
-64
-240
-128
0
-48
-368
-208
272
-80
-224
48
192
96
240
48
160
-96
-96
-64
192
-80
-64
240
80
176
-16
320
-320
-608
-64
16
448
144
224
304
144
80
-32
-144
32
208
144
-528
-496
160
-80
-208
-160
-352
32
-416
-416
-272
-96
256
336
96
-112
-176
-64
-48
32
-48
-384
-160
-80
64
416
496
224
304
-48
-240
48
64
-112
-16
-224
-192
-176
-16
96
-64
-144
-256
240
656
688
496
288
0
-64
80
-160
224
-128
144
-288
-496
-592
-784
-448
-240
-16
112
-96
288
-432
-48
176
144
-144
-352
-240
64
176
80
224
0
-256
-256
-320
304
240
-336
-528
-224
-16
-96
-304
-96
80
128
144
-16
-224
-32
192
-128
-464
-160
224
-160
-672
-336
-64
-256
-256
-112
128
-48
336
-128
-432
-192
208
432
240
304
-48
48
304
-80
-400
-80
-128
-176
-80
-192
-160
-384
-432
48
208
-112
16
-64
-320
-320
-112
336
176
-464
144
336
48
0
16
-208
-208
-48
-112
-608
-288
-432
224
32
176
512
176
48
32
-16
-208
336
-32
-160
-288
272
160
80
-32
-96
-32
96
256
-192
144
-80
-144
96
-48
-48
224
240
160
64
288
-64
-400
112
272
160
-224
176
-80
208
80
192
416
-272
-112
-112
80
224
608
-224
-480
-16
-192
-784
208
288
-160
-48
-16
-176
-32
352
432
576
480
304
32
-32
576
912
640
80
400
496
-64
-256
0
-96
208
16
-272
-224
-144
48
176
32
64
-80
-16
-144
32
-64
128
432
224
-80
-208
-336
-320
48
-256
-256
-240
-32
32
48
-80
-32
-432
-192
-16
160
16
-64
208
496
272
-176
-112
96
608
320
-144
32
-144
-240
80
-192
-176
-112
144
48
320
144
-32
224
-224
-176
-112
-128
-48
176
-272
-32
224
-16
304
192
-112
176
176
-192
-640
-480
-48
-48
128
112
-128
-416
-272
112
-48
-48
-368
-16
-128
-624
-640
112
128
-352
-80
288
-48
-96
304
240
192
-128
-448
-256
0
160
-96
-16
-256
-192
-16
-304
-352
-32
-64
-224
528
384
-32
-160
-496
-256
-352
-208
-432
-48
-176
-96
-224
-96
-192
-368
-48
-208
480
448
240
-80
48
48
864
624
-432
-384
-160
-16
-32
128
-224
-128
-160
48
32
-256
208
240
320
432
128
64
-176
336
256
-128
128
128
-112
-176
0
-256
16
-128
32
96
240
256
288
-48
-272
-160
-528
-496
-400
0
-64
-208
-464
-272
192
-208
-160
288
160
80
-96
-16
192
-32
48
192
-240
-224
-160
-624
-352
-144
192
384
-320
-112
-176
-464
-688
-592
-112
-64
-240
-592
-896
-32
80
-48
80
128
496
64
-80
-176
-48
192
112
432
512
336
400
464
-336
144
128
-208
-48
192
160
-112
-432
96
144
-96
80
-16
432
-320
-256
-160
-192
-192
-320
-304
-208
112
-352
-272
0
-112
-352
64
400
-48
128
16
48
128
128
656
256
-224
-240
-208
-384
-352
-192
32
-80
48
176
96
352
224
320
320
432
96
-48
-32
96
-80
-256
-528
-528
128
320
528
384
256
-320
368
-16
128
352
192
0
160
192
-320
-416
-320
-80
-320
-528
-176
128
-448
-272
-64
-96
-368
240
64
16
-48
144
192
-16
192
-64
-80
80
128
-240
-112
80
256
64
112
224
-384
-320
-192
624
512
544
496
16
48
-352
-256
32
-192
-96
-80
304
96
-64
-240
-224
-384
-96
448
176
80
496
-32
176
128
-208
-160
160
-64
-128
80
480
-640
-672
-144
64
-48
-112
-672
-160
112
-32
-288
48
160
-464
-224
176
336
240
32
16
432
-144
-112
-96
272
576
272
-48
-240
-208
-64
-352
-544
112
272
48
224
-128
16
-80
16
112
400
176
-352
-464
-256
128
432
304
-336
208
80
-144
-256
112
48
-96
-96
-320
-16
16
48
96
-16
336
80
32
16
-160
144
-16
-80
-144
-112
-128
128
64
448
80
-752
-832
64
288
64
96
464
-304
128
208
-96
160
176
464
224
-240
-64
144
256
560
320
256
256
400
560
272
688
640
224
192
448
224
448
64
-48
-32
-352
-304
-448
-32
0
208
-336
-112
-160
-320
-144
272
304
144
96
80
0
-448
64
208
-240
-64
-560
-544
80
112
0
80
-32
128
-224
-656
-512
-560
-672
-624
-128
-64
0
-32
-80
0
64
-288
-384
16
-192
-256
-272
-368
160
288
0
-176
176
272
176
-256
144
-112
192
432
-112
256
160
240
-48
320
-160
-288
656
416
192
-304
-272
16
-400
-544
-352
-304
160
112
-336
-624
-112
208
512
144
-272
-192
96
-32
-400
272
144
-112
240
-80
-240
-112
-336
64
208
-192
160
-16
272
-176
-480
-176
128
-176
-256
-144
-288
-48
128
-96
-192
112
-128
112
48
400
144
-112
-256
64
336
256
-96
16
448
128
-448
-208
-112
-256
-544
16
224
352
240
0
48
352
64
-208
-32
144
-160
-304
-480
-416
-368
96
0
-192
-80
160
544
480
176
128
-224
496
-16
464
-368
-160
352
192
-224
32
400
-64
-560
80
304
-80
-96
-80
-96
240
272
-240
-304
-80
16
-176
-192
-64
160
368
240
-176
-192
-144
-416
-368
-80
112
-256
-352
-96
-16
224
272
0
352
400
512
512
368
288
-304
-192
160
336
-48
80
208
-64
-144
112
-256
-336
-128
-64
-192
176
336
320
-112
-144
512
688
-48
-176
112
608
192
-272
-304
-304
-224
32
272
32
112
-256
112
-80
128
80
688
288
-160
-304
-304
-48
-128
-208
-144
32
-160
16
-16
-160
-80
-32
-256
32
-192
-192
-400
-272
80
-64
-496
240
256
224
-240
-496
48
-304
-48
160
-48
48
-32
80
128
176
-416
-16
-224
-288
112
48
16
112
272
-80
224
272
224
192
-528
-224
-112
272
-112
-16
-176
-192
-144
80
-240
16
32
0
16
64
-464
-176
-224
-96
-352
-144
-336
-208
-176
-640
208
752
176
-256
-720
-1024
-352
-192
-224
-384
-256
-32
608
432
-16
-288
-128
352
160
176
320
-320
-272
-416
128
560
352
-208
112
208
416
352
224
192
496
256
-160
-96
-64
400
80
176
192
64
64
48
144
256
304
0
-32
-304
32
160
80
96
-384
-256
-272
-32
-352
64
576
256
-64
-352
112
144
-64
-16
-48
128
-272
464
-128
-768
-192
128
-144
320
-400
-400
544
544
544
160
176
-32
-208
176
-32
400
-544
-416
128
-16
144
-48
368
208
96
-432
-96
432
-16
144
64
320
-320
-32
-48
-464
-384
-240
-336
64
384
0
-96
128
192
-80
-16
-288
-352
-80
-256
464
112
448
496
528
144
496
160
-320
0
-176
-320
-208
352
16
96
16
128
-176
-320
352
592
80
16
656
160
-192
352
432
192
-496
-336
144
-144
-496
16
240
240
128
-176
144
-96
-304
272
96
-112
-352
-336
-576
-64
-160
-480
-160
-64
-112
320
288
80
304
416
-96
-240
-208
-112
64
0
80
464
400
208
80
208
64
288
80
0
384
-80
-160
-160
-64
96
-144
112
192
272
112
176
208
-304
16
128
320
-224
-32
416
176
-48
-48
720
-128
-32
-288
-288
-368
-352
-352
-240
48
208
128
112
-32
-64
-96
-624
-464
-48
256
-16
128
304
192
128
-224
-160
176
0
0
-144
-720
-512
-368
128
-192
-448
-272
-144
-256
-432
-192
560
512
128
192
224
144
-128
-240
272
400
432
192
192
304
224
64
-48
-400
-496
32
-112
48
512
192
-256
-224
-464
-416
-208
-192
-16
-176
704
288
240
192
80
176
-32
-80
272
112
608
272
-48
144
-240
-144
544
512
16
112
-272
-112
-432
-208
432
-192
-224
-256
64
112
144
-64
224
-112
-96
-128
-384
-16
144
272
208
192
-416
-96
-128
-208
304
-64
-224
96
80
288
-96
192
624
416
256
240
-80
-160
-240
-16
352
-256
160
272
-16
48
-16
-80
752
384
240
-16
-64
-464
-624
-576
-352
-304
384
496
16
64
-128
-128
-224
-128
432
416
144
-160
96
224
224
112
-192
-208
-256
0
-80
256
16
-336
48
-96
112
176
-176
112
64
-544
144
112
80
-144
-272
-112
-144
-96
-48
304
144
256
496
128
-304
-384
-144
-448
-464
48
368
16
-16
368
304
224
-96
-128
-464
-224
48
128
-208
16
240
80
16
96
-208
-176
-128
-48
-112
192
-368
-208
-736
-432
-192
80
416
112
112
-160
-272
-160
-560
-416
-432
384
480
176
-32
160
-272
32
384
96
-96
64
-352
-736
-448
-192
64
-176
-112
256
304
384
560
-272
-384
64
-208
240
224
320
-48
-128
0
480
-256
-224
-192
64
432
240
-224
-304
-400
224
80
-528
240
256
400
224
32
432
16
224
112
192
-448
-128
-96
-432
16
336
-288
-256
-208
-320
0
-256
-112
-96
-256
-384
176
-96
368
256
-112
96
176
432
32
-304
-176
16
-112
-128
-448
-112
128
144
-304
-592
-528
-128
224
240
-128
80
400
288
-240
208
112
-64
304
-112
-128
96
80
352
48
128
-416
-384
-304
-336
-256
48
192
144
-144
544
256
224
128
336
608
256
48
-176
-240
16
560
256
192
-192
-192
-144
-96
-144
-272
32
-112
32
64
-288
-288
-16
-32
-176
256
-160
-464
-16
112
-32
208
576
-112
-272
-32
-48
16
64
48
-48
-160
-176
128
48
48
368
624
-96
0
112
304
-96
-272
-688
-720
-464
-192
0
80
160
-80
0
80
96
-32
-16
224
-160
-176
272
16
-80
368
64
-256
-528
-368
-16
576
608
0
-640
-224
-272
-416
-592
-624
-176
64
80
160
-272
144
336
-96
-128
336
144
0
-256
144
192
64
80
-224
224
-208
-144
96
448
464
16
-160
-304
144
-48
-256
48
-192
-272
176
-368
-736
-400
384
528
192
288
-192
-464
-128
128
-48
-400
-272
-208
288
320
-320
-16
-64
-144
-208
-336
480
-192
-192
-176
208
-48
480
336
16
-288
224
112
0
-96
160
-192
-48
-144
-240
-176
-96
320
208
-352
-48
192
-96
-128
256
48
-64
240
288
448
64
-96
-224
384
128
160
192
288
-272
-176
-352
32
352
128
160
448
672
320
192
-336
-736
-784
-32
240
96
96
-192
-96
-112
-128
-656
-48
256
-96
-240
144
-80
-176
-112
-48
-64
-16
0
-240
-448
-304
144
96
208
-80
-272
32
-112
160
-32
16
-176
-240
16
0
144
32
96
-544
-544
-144
-160
-416
-832
-208
-320
-416
128
128
-144
160
48
-208
-608
-576
-160
384
400
96
-320
-432
-400
-160
528
736
768
80
-624
-256
64
32
-192
-144
-48
272
688
96
-224
-208
224
32
-144
-352
-320
-224
96
-16
-256
-368
48
0
-272
-272
-144
384
384
-304
-368
-16
144
240
-144
-448
-112
304
80
-320
-48
0
-80
368
368
80
-256
-272
-336
-432
160
288
592
368
208
128
-32
-48
-224
-240
-112
-32
-192
96
80
-64
-320
-608
-48
0
-192
336
288
0
80
688
496
-160
384
96
32
80
16
-64
128
176
64
-224
-368
-48
528
0
432
464
-112
0
-32
-96
-336
-32
352
128
304
192
96
-128
-336
0
-48
496
16
-384
-528
-272
-544
-160
208
32
288
112
-112
-128
-208
32
0
-256
-176
208
288
304
224
-96
560
496
-224
112
208
-256
-704
-16
-64
-624
-544
16
16
-256
-480
-272
-48
128
-16
-32
128
-608
144
-16
-160
80
16
-48
-160
64
80
96
-112
-272
-608
-352
160
16
240
80
-528
-272
-496
-288
-192
16
-112
-272
-224
112
256
288
208
80
-288
-112
16
176
-320
-160
-32
144
368
-416
-48
-144
-272
-400
-320
-480
-592
-240
208
0
-96
-192
-32
16
240
240
-320
-272
0
896
784
144
336
0
-48
176
128
240
-96
-128
384
464
-32
-432
-352
-496
-16
96
-224
-144
144
208
256
-16
128
64
240
-48
-96
272
352
272
224
-176
-112
-144
64
176
-176
-160
-96
0
-144
128
-160
-208
112
208
272
240
128
-176
-448
-224
-224
-96
-96
-528
-224
80
144
192
-64
-192
256
224
288
16
-144
-64
32
224
384
576
416
208
-80
160
576
0
-224
-480
-352
16
-208
128
-64
-192
16
368
160
-16
64
64
48
48
272
416
352
144
288
-128
-224
224
48
80
0
192
272
96
-48
352
96
0
-16
16
64
-16
144
96
-192
272
-336
96
-48
352
160
-240
-176
144
240
256
-144
-320
-32
32
0
-208
-112
400
-32
96
224
128
288
-32
128
-160
-400
-32
320
-80
272
464
64
-48
-192
-208
-96
-16
288
240
176
-416
112
112
192
64
96
-192
-272
-480
-688
48
208
720
336
80
144
-352
-448
-496
-224
-64
-288
144
432
464
208
432
16
96
112
32
-128
96
-256
448
336
-368
-64
240
224
496
304
160
-208
-304
-304
32
48
-256
-16
304
288
240
144
-400
-112
160
48
320
752
-64
-288
-144
0
160
80
-16
304
288
-16
-64
-304
-208
128
400
208
-272
-80
-64
176
-304
-16
272
48
352
-96
-224
-64
-448
-48
288
-304
-144
112
464
208
-16
80
48
-256
16
-16
-192
-368
-176
-176
-416
160
80
-192
-48
-112
208
320
0
-64
112
432
496
432
48
0
32
-224
-384
-112
-304
-144
-400
208
128
-208
-128
112
32
-128
-352
192
-64
448
496
32
-192
-208
32
-320
-208
-32
0
-304
-160
96
272
464
0
192
-16
224
160
96
320
80
-160
48
128
16
352
128
-128
-352
0
400
304
80
32
-64
336
368
-400
-480
-256
-16
-96
96
208
-128
-496
-144
16
160
160
288
112
-224
64
96
-32
-80
512
400
-16
-208
16
144
-128
16
96
32
272
-176
0
-112
128
-160
-144
-144
-160
48
224
304
-240
-16
240
-80
-48
432
272
-240
-128
96
-192
-336
-128
-128
-224
-16
-32
-144
-288
256
480
256
-48
-384
-80
-32
96
528
240
144
16
-496
-304
-240
-320
-304
-112
256
0
336
192
224
304
352
352
-192
-144
-80
-112
-64
-32
-368
-288
-48
32
192
64
32
160
176
-464
-192
464
-160
128
-48
-384
240
560
-352
-224
-16
208
176
32
-48
-560
-48
-96
-240
320
160
-48
-256
-720
-752
-496
-288
-496
-256
544
464
48
-208
48
368
320
-416
144
-128
-512
-64
32
96
-96
-80
-80
-432
-240
64
16
-64
512
656
224
-256
-320
-592
-144
-48
-16
-560
-240
80
128
240
-32
0
288
32
-32
-352
-208
-128
192
80
80
-192
-208
-224
-272
-16
-128
-448
-96
-320
-384
-416
-96
16
-512
-624
-288
208
144
-144
112
112
80
160
320
16
-240
-112
-240
-32
-48
-80
-80
224
48
-496
-480
-16
64
-272
-80
-272
-304
128
256
-160
-176
160
-192
-176
128
-288
272
416
-32
384
416
-400
-336
-272
-160
432
400
-192
-320
-32
160
432
464
160
-32
-48
-16
112
-160
-176
-96
384
-64
-176
-32
-256
-48
64
-192
80
0
432
352
144
48
-32
256
-208
-320
192
368
192
16
64
272
-208
432
64
176
64
-480
-192
112
-64
336
304
336
112
-336
-208
-64
-48
-368
-48
48
224
-80
-448
160
320
-64
-448
-432
48
528
32
-192
-352
-464
-64
-240
-368
-304
288
352
384
-384
-112
-16
-304
-560
-192
48
-64
-32
32
160
32
32
288
240
-192
-224
-80
-48
-336
256
64
-96
-48
-112
352
96
112
-160
224
80
128
-16
288
48
-336
-48
144
-128
128
128
-144
-464
-144
368
240
-304
-32
448
320
-208
-336
96
-192
-800
-16
96
-400
-272
-384
-208
-640
-576
-16
-64
32
-144
-192
320
128
-384
-288
-624
-80
144
-144
-224
16
-208
-320
224
64
256
-208
-128
-240
-320
-336
-112
-224
-80
288
32
-208
-320
-624
-112
144
528
176
-336
-224
192
336
544
256
-48
0
112
64
160
336
368
384
-64
-480
-288
-240
-128
16
-176
-528
-304
384
176
128
176
320
-64
256
304
160
400
336
352
-48
-128
-128
-304
-480
-96
96
96
176
-144
128
0
480
-176
-112
-32
48
-224
-208
-112
-256
352
144
-112
416
224
-256
-464
96
432
-304
-48
-128
96
-128
-256
-304
-336
-112
352
0
176
128
-272
-16
-320
64
192
32
-128
-64
112
-32
96
176
32
288
368
224
-480
-224
224
368
160
480
-160
-64
128
432
368
496
128
-304
-240
16
-208
-256
0
48
320
240
-320
-192
-32
-64
-128
496
464
-144
-192
-560
-288
288
176
-112
0
-96
-128
384
384
-160
-160
-112
-288
-608
-224
352
0
-416
-256
-80
384
80
176
96
-672
-528
256
112
384
368
464
544
-96
-144
416
128
64
-304
-208
-304
-384
-64
-288
-176
128
-160
-720
-704
-304
288
288
560
272
-48
-80
-112
240
128
80
-240
-464
48
-256
-288
-224
16
-112
-96
-304
-288
-512
-208
-240
-128
-304
-80
64
-112
-112
-48
-64
400
-208
144
112
-352
80
-384
-32
224
-160
-336
480
-16
-176
0
64
16
176
-96
-432
-208
-80
-352
32
272
288
-112
-144
80
-144
-96
-240
-160
176
-80
-336
32
48
-96
208
256
272
352
-112
64
96
352
160
-16
528
544
-224
-16
-80
-32
-608
-288
-448
-16
-128
144
-128
192
0
224
96
-320
-368
96
160
-224
-192
144
0
240
416
32
-256
-80
-416
-288
-192
-160
-32
32
128
96
64
16
-160
-160
160
208
192
624
64
0
288
-96
-32
-256
-160
-192
-240
96
304
368
256
608
-208
-96
128
-128
80
-48
64
320
96
-256
-32
48
416
-48
-160
496
-160
-208
-64
-208
-48
240
-32
336
608
528
192
112
224
-176
-48
-288
-528
208
704
512
304
-80
64
-80
-368
128
128
544
-48
-48
16
-80
288
832
320
-208
144
288
-240
-80
-320
-16
-48
-160
-208
-176
144
256
-48
-192
-288
16
80
-112
-128
-320
-464
144
224
16
32
-176
128
16
240
288
720
320
144
-128
-320
-272
48
-240
16
-128
-96
-32
48
400
320
160
192
-48
-16
0
-192
368
304
-64
336
224
-160
-176
272
816
496
0
304
224
0
240
96
176
320
-592
16
240
-16
-208
400
-256
64
208
-192
-112
416
224
192
112
-16
160
16
-80
-144
-384
-368
-48
176
112
-64
320
464
16
288
304
96
-192
-64
-80
80
16
-128
-192
64
-176
48
128
-272
-688
-256
-576
-144
672
608
224
256
-144
96
96
256
-160
-208
-96
16
-288
16
48
96
192
0
-96
-624
32
-192
-80
400
16
-32
192
-16
160
-32
48
176
720
16
-304
-336
128
-96
-320
-336
224
-128
-16
96
64
464
384
368
256
64
336
16
64
144
-208
-48
-80
-32
-48
-192
-32
-160
-112
-96
256
-96
224
256
416
240
-192
-96
80
-16
96
336
240
-80
80
-432
-96
144
48
-272
-128
192
-320
-416
176
-208
64
144
208
304
-128
-368
16
128
288
176
64
144
-80
80
-240
-480
-400
-32
288
0
112
208
-32
144
208
336
240
-80
-16
-160
-352
-224
-224
160
464
-304
-464
144
432
96
128
-160
240
336
-32
576
208
0
112
-96
-16
-64
-224
32
80
-432
-304
-64
-384
304
144
16
-144
48
0
-432
-208
-48
-80
-256
-400
-256
-256
320
288
528
576
96
-208
-64
-96
-544
-384
-128
48
128
240
-288
16
96
-320
-192
-64
304
-32
128
-272
-352
80
-368
-224
32
-64
80
-64
64
-192
-80
-224
-672
-336
-192
-304
432
192
-80
-304
-176
-224
-352
-128
0
-32
112
-320
-128
-272
256
144
0
-496
-256
-32
-272
-384
-256
-256
-32
-560
-48
304
80
-144
-480
-208
432
208
224
-256
64
208
352
384
256
48
-128
64
16
304
32
-256
352
112
-192
288
160
-32
144
112
0
64
400
336
208
-208
-400
-560
144
320
-400
64
160
352
224
336
-160
64
-48
-112
160
160
368
576
-192
-480
-32
176
-256
-544
-144
-320
-528
-320
-144
-416
-176
-64
544
480
432
160
112
144
-112
208
-48
-160
-656
-368
-48
-96
-384
48
432
240
96
-64
96
336
608
144
-32
-240
-224
-128
240
288
-176
-304
-416
0
432
80
-144
-64
128
240
-288
48
288
176
112
48
-96
-48
16
208
272
32
-144
192
464
128
-96
-240
176
0
240
-272
80
400
0
-48
-480
-176
240
416
256
320
112
16
-304
-480
-112
160
240
-224
160
-144
-384
-16
-160
-176
-320
-928
32
-176
-256
-32
240
176
208
16
-16
-112
-240
-144
-256
-336
-112
-160
-112
80
-192
-128
80
-400
-352
48
-64
-144
-320
144
16
-384
-32
-192
352
-16
-304
-192
80
-352
176
-16
-448
-112
96
-128
-112
-400
-256
-192
-160
80
-112
-48
-240
-176
-176
288
1136
544
288
304
192
80
416
224
-64
-48
-320
-96
0
-80
-320
-384
-96
368
512
80
-32
-128
-400
-272
-48
-80
-304
128
-240
112
192
-16
-144
-336
-800
-352
-400
-160
432
96
-384
-432
-304
-80
-208
32
32
-112
400
-144
-320
-16
32
64
416
544
336
160
-32
48
64
192
16
112
-96
48
-48
112
-160
-128
-240
192
512
144
-240
32
176
96
-288
-544
32
240
-448
208
288
-144
-304
-320
-16
-96
-128
-352
-352
-128
64
240
-208
-48
-192
-256
-288
96
400
32
352
-112
-144
336
-192
-208
240
16
112
-96
32
208
192
-256
320
880
400
160
-32
256
288
224
-112
-176
16
304
-96
-128
336
32
16
-400
-256
-64
288
144
-272
176
336
-192
144
352
-64
-160
-160
0
-64
304
-160
80
-16
-96
-16
-48
208
112
-48
208
240
-128
-736
176
96
-256
-272
-496
-112
64
96
112
144
-208
-16
0
-336
-112
112
112
-160
16
128
-160
320
208
160
64
352
64
32
208
176
144
0
-288
304
368
-32
-48
-144
192
0
-80
304
336
1088
544
128
-272
-240
-112
496
320
-352
144
-16
-176
-48
-416
128
624
-128
224
448
64
656
208
16
-144
-192
-528
-384
-112
272
512
112
432
592
-144
-16
-176
-336
-112
48
256
-288
-464
-96
144
-592
-240
-32
-80
-160
320
144
-208
-176
96
592
368
-160
-208
16
176
208
-112
-176
64
304
-32
160
-224
-80
-16
224
-16
0
464
-16
160
64
64
272
32
240
224
16
64
336
464
-128
-384
0
416
432
256
-192
-288
-464
-272
-144
96
16
-176
-224
-160
-80
96
416
288
-48
224
112
64
-480
-272
-400
-80
128
0
-176
-208
-320
-144
160
208
-48
256
288
-32
-272
-208
-272
-464
-48
-368
-464
352
336
192
-304
-224
-112
448
336
304
432
528
32
-32
-464
-96
128
48
176
-432
-640
192
0
304
144
-320
-320
496
32
-80
272
320
384
-80
-224
-48
112
400
208
-64
80
0
-544
-240
384
-112
-304
-224
64
128
256
144
16
144
32
-160
96
32
64
-32
48
-496
-256
-192
-128
-304
224
352
-112
-160
272
-48
80
-48
480
-48
-48
-48
-128
-112
368
480
64
-400
16
32
-272
-368
-80
-192
16
-320
-384
64
240
112
-560
-336
-224
48
-64
-192
-352
-304
-48
240
416
-96
-352
-80
-32
512
416
400
-96
0
-352
-112
-176
0
32
112
176
224
-32
368
48
-544
0
192
128
512
144
208
192
96
-176
-144
-416
-464
-256
-128
-32
-96
-336
-656
-272
304
-160
-320
-544
-288
-288
-464
-80
-32
-544
-368
-320
128
336
320
-64
-48
160
64
400
80
432
400
416
32
-336
-400
-768
-240
368
-64
-96
80
-32
192
-48
-144
48
-288
-448
-144
-16
-192
224
208
240
0
64
-64
128
-112
-272
-64
-272
-256
-176
416
192
96
16
-16
-176
-256
-96
-160
-192
-176
-304
128
64
-208
256
496
448
-96
160
64
16
272
128
-160
-352
-192
96
-96
-288
-272
-224
-240
-288
-48
112
-32
256
96
-112
-32
-320
96
208
-144
64
-32
-208
-48
144
0
-208
336
320
-480
-432
-416
32
-544
-400
-32
0
-240
-352
-144
-256
-64
-368
-368
128
64
352
320
80
352
320
144
368
192
128
192
-48
16
496
-32
176
496
576
464
-176
-48
16
192
-240
-256
-160
32
-464
64
288
-16
-272
-320
-224
-144
16
192
-160
-576
-544
-16
-16
64
-48
-32
352
784
288
-208
-240
-224
288
176
448
256
-144
-160
224
0
-464
-224
0
-304
-144
96
-512
-336
96
-192
192
-128
-112
-304
240
576
64
544
544
384
208
-16
208
80
576
80
-176
272
-208
160
576
0
288
544
-32
-432
-320
256
256
-336
112
224
288
224
0
-192
32
96
400
512
-160
-224
16
208
48
-304
-176
-128
-384
-528
-208
-80
80
208
240
240
608
144
-448
-176
304
224
-128
-240
-96
-16
-128
-224
-176
-288
-448
-208
256
-304
-80
-384
-176
-416
-640
-256
432
480
304
-176
416
432
176
-128
48
240
-64
-192
-464
-224
-496
352
-144
-304
-48
-64
-176
-368
-208
112
112
-304
-32
-176
-160
-240
-224
448
496
352
496
176
224
32
-240
-240
448
864
656
240
-208
224
464
176
192
176
-208
32
176
-32
272
80
-192
-272
-464
-160
224
32
-368
384
208
-656
-272
96
112
-128
-64
112
80
416
-320
-48
176
208
144
-48
32
80
464
528
192
-80
32
32
80
-208
224
-400
-128
-48
0
256
384
-32
16
208
-16
64
320
304
128
48
-128
-320
160
240
208
256
592
480
-208
-144
208
432
-80
-160
-16
256
256
-224
-512
-96
160
-80
-240
-224
-272
208
240
112
320
144
-192
128
272
-48
96
-32
-144
-416
-384
-96
-80
-96
-320
-368
-352
-592
-96
128
144
112
-48
-224
-96
160
-464
-208
-64
-208
-320
0
-32
-80
192
-352
-336
-208
-176
-48
304
432
32
256
304
192
-128
-352
-112
-208
96
-32
-464
-96
80
-544
-288
-144
304
-128
-64
-80
-240
-128
-272
-288
560
16
-192
224
64
-96
-64
80
128
-48
128
-16
-48
-704
-144
-336
-400
-176
368
448
-112
96
96
-464
-144
128
-32
160
-176
192
16
-128
224
112
-272
-416
-192
48
-176
-256
-400
192
-176
144
-160
-240
-224
16
16
64
-96
-288
-464
-256
-400
-432
-672
-112
-80
384
560
272
-64
-224
-240
-176
-144
176
32
-96
-64
-160
-288
256
128
352
224
160
-208
-432
-64
432
-96
48
48
-80
-64
128
-336
-32
-80
-80
-64
528
544
-80
-144
160
224
64
240
-16
-272
240
-48
464
64
-256
496
272
-160
-304
-208
336
240
-368
-336
-640
-464
-256
560
496
-48
-592
368
192
224
304
304
320
-384
-208
-112
-272
112
288
512
224
-128
-256
336
32
-384
-512
-80
320
288
432
352
192
-192
-224
224
-128
64
112
-384
-544
-176
-128
-272
80
352
368
-144
272
576
48
-128
-192
112
320
-368
-32
-192
-64
-384
-480
0
144
-464
-32
832
128
-32
272
240
-96
-544
-96
352
256
304
160
96
-96
272
-64
144
-256
-224
-176
-272
-160
-64
-64
192
-608
-128
-464
-640
-256
304
224
-336
-272
32
176
-64
-176
-400
-240
-304
-272
-208
0
-288
96
-80
464
144
-320
-304
16
192
-96
192
-224
32
96
-176
-384
-400
-256
-192
-240
-448
-208
-32
-528
16
-32
-96
-80
64
0
208
432
176
160
-96
-224
-256
-160
-448
-464
176
128
-192
0
-384
-144
336
128
0
-208
-128
48
-192
-240
-592
-144
-272
-64
-48
0
272
-304
-544
192
320
224
64
-64
272
368
0
240
256
208
-176
-192
-144
16
96
-80
-128
784
496
48
688
736
64
-208
-432
-240
-96
-80
-192
-176
288
256
-208
48
-112
112
192
-272
-240
-240
288
160
-96
96
128
64
320
-176
-560
-80
-16
48
144
96
208
64
-448
208
448
144
-416
-464
-240
-32
192
640
288
-32
336
192
336
128
-32
320
112
-432
-128
352
144
32
-256
-64
320
-144
304
112
-224
304
208
32
-32
-32
240
416
64
96
112
192
64
-112
-256
-128
-352
-112
128
256
416
-80
-272
320
272
320
-128
-320
-256
192
-64
-16
-288
-256
176
416
112
-64
-480
48
288
96
-32
-480
-400
96
-240
-80
336
64
192
-384
-144
64
-96
-176
-192
-336
336
96
80
480
304
-64
-128
-112
288
-144
-272
-96
-176
80
-96
-176
-208
-240
112
336
-144
-448
-64
576
704
432
112
-176
192
256
112
-48
16
-112
-256
-224
80
-32
-176
160
-64
-288
-256
-336
-672
-640
-320
-112
144
-128
-272
-16
64
192
-96
-144
32
-32
-192
48
-16
512
48
80
64
368
208
176
176
272
64
224
256
-64
48
-112
64
176
240
-176
-112
-48
-352
-528
64
48
-528
-608
-64
224
336
-64
-208
-96
32
-32
160
320
-160
16
240
144
144
384
256
416
112
64
64
64
336
416
-64
-304
64
592
192
-352
-416
32
-64
-496
-288
-64
192
-64
-400
-16
-240
-448
-448
-96
176
32
32
112
-384
-736
-352
-112
128
224
640
224
208
-368
288
864
80
-80
-96
352
-128
-272
-112
384
48
-176
-192
16
208
112
96
288
208
400
400
-272
16
208
208
32
240
96
-112
-336
-640
-272
-224
304
336
16
-288
-176
64
0
256
-48
-64
-144
-48
-32
-96
-224
224
48
144
192
-16
224
368
96
96
-96
128
368
-64
-208
16
128
80
480
64
-128
384
336
240
128
208
-384
-576
-288
-112
160
-224
-64
-272
-368
112
224
176
-16
256
16
-448
-448
-240
-32
-112
-560
-64
128
-208
-320
-784
-384
-80
-176
-256
-128
144
16
-528
-144
-16
0
-16
-416
-112
-128
-416
-192
-352
-256
112
-160
-496
-672
-272
240
176
-272
336
0
112
112
192
400
112
-272
-176
-272
176
256
112
-64
-432
-224
0
-64
-784
-256
80
80
-320
-240
-112
144
-16
32
-96
-128
96
0
-224
-64
272
240
-144
-144
-32
-80
-640
-864
-112
400
128
-96
352
416
624
256
224
32
496
144
160
16
144
-96
480
-48
128
32
-304
-320
208
448
144
-512
-80
224
384
272
-48
320
64
176
-160
-544
-528
-144
-448
-272
208
336
-224
48
48
-256
-448
-304
-464
96
-160
-336
-128
-144
-160
-128
112
208
256
480
-64
-432
-80
-144
-128
-32
-16
48
224
-160
320
-96
-192
-128
-128
272
16
32
-32
-256
-208
-576
96
144
96
96
-160
320
-48
-336
-384
368
512
0
128
368
-96
-80
-80
48
-128
-352
-512
-400
-208
-304
80
144
128
96
112
-16
-96
-16
-336
0
400
176
48
96
464
-32
-112
-64
-576
-48
-400
32
-432
-240
-64
48
48
320
-144
240
384
144
-336
-144
-128
-800
-400
112
112
0
-80
-384
-416
-256
224
336
432
352
16
32
-256
-160
-80
144
-416
-224
-224
-464
-368
-448
-512
-192
-224
-256
-32
-192
320
240
-352
-32
160
192
176
96
400
208
-432
16
208
336
320
48
0
-160
-240
-320
-304
-352
256
-16
112
112
-80
-288
-112
48
304
480
512
-272
-64
-208
-208
-144
-176
-208
-128
96
80
-16
-32
-32
-32
288
192
128
560
368
-224
-256
128
-96
208
448
-64
352
288
208
384
0
0
-48
112
160
-336
-48
-64
-400
-112
400
416
144
144
112
-80
-112
400
544
-32
-256
-400
-560
-400
-848
-720
16
-256
-96
208
-160
-672
-256
224
-64
160
-384
-256
400
128
-384
-192
-80
-224
-224
-272
-64
32
-128
-576
160
-128
-432
-512
-64
368
-48
32
-48
240
176
352
480
352
304
-320
-240
64
16
96
208
144
288
352
272
176
-272
-272
-304
-368
176
320
112
-128
368
320
544
208
448
336
48
-16
-112
-448
-160
-240
-80
-96
-32
-288
-272
-160
-96
-192
-96
464
672
640
128
-112
64
-96
368
288
432
272
256
240
-176
-272
-384
-256
-96
32
368
624
-48
-32
-80
-160
-32
496
80
-80
-336
-592
-752
-416
-208
-32
-64
-240
-208
32
-48
-384
-32
80
-208
112
736
640
256
272
400
256
0
160
80
-48
160
-16
-192
-32
192
48
-16
-48
160
128
352
32
112
128
176
-80
-592
-432
48
-144
-144
-96
-48
256
-160
-128
288
112
176
96
-16
592
800
656
240
0
832
288
-400
-352
-80
0
-224
-112
-352
-400
-256
-80
-304
-144
272
-480
-368
80
-64
-304
-608
-272
-288
16
176
224
-144
-464
-128
-192
-240
80
-176
-384
-80
240
64
-48
16
-32
-208
304
176
304
96
-32
112
688
336
-304
32
432
-64
304
160
-64
272
-16
-64
288
544
368
-96
-96
-192
16
-80
144
-80
-160
480
416
48
-64
-192
-336
-80
-64
-16
32
-128
32
0
-96
720
144
192
96
-48
-64
48
256
336
320
256
144
-128
-112
-48
-288
80
16
-304
0
112
272
-16
0
240
-144
-128
272
96
96
160
48
-336
96
-368
-336
672
-48
96
112
-16
-160
-208
16
96
-96
-384
-208
-352
176
-304
80
192
-80
-48
112
0
464
704
320
176
80
-16
-144
224
528
-32
-80
80
-112
-48
48
-224
-256
16
80
320
16
-336
448
224
-384
-224
176
-96
-272
352
112
208
144
512
96
-240
464
0
-320
0
-192
-304
-144
512
-80
-224
0
144
400
144
352
160
224
320
-288
224
432
-176
-80
-64
-80
-64
-112
48
-304
352
400
-32
-80
-176
-368
128
64
-192
-48
-48
400
384
336
384
32
96
48
288
496
0
48
-144
288
560
112
128
-32
-64
-96
-368
-224
-112
-48
64
-80
96
-144
-160
240
512
432
80
-192
16
304
-64
80
-16
256
400
304
32
176
368
672
240
-64
160
176
272
-352
256
544
80
-16
-48
176
192
240
336
256
-400
-368
-176
64
336
368
48
144
-272
176
-32
336
192
256
224
-160
-32
192
-64
-368
-240
128
-176
144
320
176
-32
32
-32
32
464
352
192
368
432
112
-480
-736
-240
224
16
176
-256
208
592
112
-160
-16
-304
-176
192
-208
-352
-96
-512
80
208
-144
-16
96
0
208
-128
-208
-160
-432
-336
272
96
-96
-288
48
64
-16
-48
-80
-352
-336
-16
208
128
-224
336
80
48
208
-144
-80
16
240
368
240
64
320
304
112
112
-192
256
-64
-112
16
416
-112
-224
-32
240
160
240
80
-112
352
-288
-224
112
-80
80
144
544
608
576
496
352
-400
-448
-144
-80
-48
48
144
-112
-128
-16
-48
-208
-288
-288
-208
16
176
80
-112
80
96
-416
48
320
32
-128
-560
-128
432
-16
-544
-176
-144
-32
112
0
-224
32
112
-176
-240
-80
-224
224
160
-448
-704
-656
-608
-176
160
400
128
-240
528
64
-512
272
160
-96
-80
-224
-272
-432
-32
-32
-304
-480
-16
96
0
-48
176
112
64
-400
-64
-64
-240
320
64
-48
-48
-288
128
-272
-48
-384
224
80
-32
-416
-16
192
64
-80
-320
-64
400
416
176
64
16
64
464
560
-48
-112
-256
-64
-176
-208
-256
-32
112
-400
-192
48
-208
-240
-96
-400
-256
-400
-288
128
-176
-240
-288
208
-144
-320
-336
-384
-112
256
112
96
0
240
272
192
208
-288
-592
-464
48
224
288
-288
-224
-16
160
240
288
-32
-384
-288
-624
-688
16
464
192
-368
-224
-48
-64
80
-48
464
464
176
-432
-272
240
80
-432
-288
-16
-112
-16
592
224
-48
432
448
336
16
-336
192
-128
304
352
256
-496
-48
80
144
-256
-240
-208
-112
-368
-208
32
-96
0
-368
0
16
208
-160
32
-48
-112
-256
80
224
0
-176
-304
0
384
-432
-576
-432
-32
16
272
272
48
-32
-80
-64
256
-32
96
176
512
16
208
304
-240
80
112
-208
-32
-192
-320
32
-128
96
48
64
-256
144
-160
64
-80
-304
-32
448
-48
304
448
48
-128
112
-368
-208
-592
288
336
192
-48
256
160
-16
176
176
-128
-208
-32
-32
480
448
720
176
-496
-48
176
336
-48
-32
-128
64
-96
-32
272
240
-256
-64
-144
224
-32
480
-16
-608
-288
0
352
48
-112
-464
-96
192
336
16
-32
-32
480
352
288
368
-128
-400
-480
160
208
272
160
-208
-160
96
96
112
288
48
112
-416
48
448
352
112
-192
-384
240
192
96
-224
224
192
128
368
-48
-224
96
-32
-512
-640
-80
160
192
-432
-416
32
-400
-16
288
48
-208
16
240
-208
-336
-208
96
64
-240
-176
144
-256
208
80
144
176
-64
0
304
624
80
-192
-64
32
-576
-624
-192
48
-80
160
-80
-256
-384
-304
464
688
288
224
-224
272
160
-544
-560
-240
-32
144
96
-240
-96
-96
-256
-320
-464
-128
-96
-288
-336
-16
160
-144
-128
256
400
160
-160
-48
-112
128
-64
-176
64
160
-272
-416
96
272
128
-80
224
272
-288
-656
-64
80
-32
512
464
64
64
176
160
-320
192
16
-96
-400
-304
-336
-208
-240
-176
48
-256
-416
336
112
-208
-272
16
80
320
192
-80
-32
272
368
-144
176
320
-32
-256
-192
48
496
416
128
-128
-304
-320
-144
-80
176
288
704
240
-336
-64
240
352
-16
512
688
-64
-64
-352
-144
64
-48
-16
-272
-160
160
288
368
-368
-160
-176
-592
-176
-16
-320
-192
-32
-80
-16
144
-208
-224
-192
176
-96
-304
-384
-96
-352
-48
-16
-128
96
512
288
-80
-64
-208
-496
-400
-16
272
-352
-208
-256
-224
112
32
-96
-64
32
176
352
240
208
352
352
-80
-16
256
-32
-144
-64
-32
16
176
-112
-240
-352
-272
-272
48
-336
64
256
320
336
144
16
16
0
-128
624
368
208
32
-176
0
288
272
-192
-752
-272
-96
-416
-256
-80
-384
-384
128
-128
176
-128
-256
-368
-176
-32
80
80
-32
0
208
16
48
-64
-160
112
384
352
80
128
160
-32
80
224
96
-112
16
272
64
320
224
32
-112
-288
224
176
128
-400
-288
224
16
-48
-192
64
112
16
96
-64
-304
-352
64
0
16
-144
-224
-256
112
32
48
-224
-144
-80
192
-144
-288
-64
16
-288
-192
-176
-80
208
128
-736
-688
-336
-144
-192
96
-80
-176
48
-224
-80
672
80
176
240
-240
-288
16
240
-192
112
-288
-224
320
-80
208
32
-416
-208
-64
432
96
-544
-464
304
-256
-400
-208
-240
240
240
-96
128
48
352
624
208
208
-304
-192
-336
-256
-224
-464
-192
128
-64
-240
-112
16
-192
192
-496
-240
-224
-128
32
-208
-384
-288
-96
32
0
192
80
-32
304
464
176
-352
-208
160
-16
112
-224
-208
-32
-384
-224
-224
-32
-240
-304
-96
64
-192
-272
-192
96
-160
112
-224
-368
64
112
288
176
-288
0
80
160
-272
-80
-176
128
144
-96
-688
-304
-336
-480
-496
-176
-112
480
-80
112
144
-304
-528
-416
-352
-80
272
336
-64
-16
32
-160
-304
-144
192
16
-512
-112
-112
-112
48
624
272
32
288
192
112
144
32
0
304
144
-224
-320
-272
-96
0
176
272
128
304
-256
-256
112
-208
-32
-96
32
-320
-208
112
16
48
208
-464
-352
-112
-272
-368
-192
-400
-128
192
272
368
256
-208
-448
176
-32
-128
32
32
32
-288
16
48
-208
-96
-80
-64
-96
-192
-64
416
432
32
32
-48
80
-304
208
784
256
-128
256
-160
-208
-368
-208
336
384
-64
-176
-352
-224
-288
-112
-48
-368
-208
176
336
352
144
-416
-48
128
112
-320
-528
-224
608
-32
-272
-32
256
400
272
-112
0
144
128
672
-128
-160
416
896
480
240
-160
256
720
416
64
-336
-224
-112
-32
-288
-32
64
16
-128
96
400
176
-560
16
-432
272
176
-272
-80
-272
-144
-224
-128
272
256
352
80
-160
160
80
0
80
-48
-224
96
-128
-16
208
64
-368
48
-48
208
-16
48
240
0
-144
-416
-112
224
160
-96
-64
208
128
-368
-400
-512
16
-144
-112
-16
16
192
208
-208
-112
-176
0
128
288
160
-176
-224
-192
96
-192
-384
-320
-64
-288
-192
-64
272
144
-80
208
-320
272
432
16
-144
-224
-32
-240
-400
-368
-80
96
592
0
-496
-368
416
496
80
400
112
-48
-112
-352
-400
-352
-112
-112
256
16
384
272
-304
-192
80
-160
-64
32
128
-592
-112
-96
-128
-208
-112
48
-48
368
96
-384
32
-384
-208
-32
-128
-224
144
80
-176
-176
80
-48
48
80
272
-112
176
192
96
-176
-16
400
608
320
32
-16
32
112
-512
-160
-48
-112
-272
-352
-16
96
-128
64
352
-208
80
-48
96
-80
-192
0
-224
224
96
-80
-224
176
-144
-128
-400
-464
-32
-240
-240
640
224
-64
0
64
-224
-64
336
-80
-64
144
624
208
-272
-592
-32
144
80
80
-64
160
-128
128
144
-48
-256
384
-48
-704
-496
-384
-48
48
-384
80
304
-384
-112
-352
48
16
16
-16
-400
272
640
-144
-48
80
224
400
-160
-16
512
448
-144
-256
-336
48
272
-256
-16
-16
-240
208
528
112
-320
-64
288
336
512
624
0
-688
-192
-272
16
-80
-176
-48
-176
-64
-80
-176
32
128
16
-400
-528
-80
64
-544
240
128
96
-96
-464
-336
-176
-272
-368
-48
560
272
-320
-176
320
-176
-16
144
32
96
96
-64
64
0
-256
80
-128
256
160
-576
-496
-464
-128
-128
224
-128
-192
-480
-16
-176
96
-96
-208
-48
-176
608
336
-416
-528
-240
-208
-336
48
160
-256
-128
-144
-48
-432
-288
336
464
336
-272
-16
-512
-288
-336
-48
144
-112
-288
-336
-224
32
176
160
0
16
-32
384
112
288
144
208
256
-32
-160
160
448
-160
-160
-320
272
-80
160
416
96
-112
112
32
-240
-144
48
240
80
224
272
-96
0
240
352
-336
-144
48
-240
-448
-320
96
256
112
96
48
208
240
-176
48
304
192
448
736
112
-64
-64
-176
-176
-288
-128
32
32
256
80
-432
-432
-352
-352
-208
0
256
368
208
-80
-64
-336
96
544
-80
-16
96
16
112
320
128
-256
-64
-144
-96
-80
112
592
400
144
240
-240
-672
-80
-48
-112
208
480
176
-368
-336
448
288
128
-144
32
48
-288
-432
-144
-400
-112
64
208
224
192
416
144
-352
160
384
96
-224
560
368
-176
16
128
-288
-304
-96
-80
-64
-224
48
-128
-304
-144
-384
-144
-16
-272
-32
-208
-480
-384
-240
240
176
336
-32
32
64
-304
-256
240
-144
80
-160
256
32
160
656
544
240
352
-192
-176
64
-64
288
672
576
-64
240
-288
-208
368
192
-304
-368
32
400
240
-528
-400
128
64
192
-64
-224
-448
-448
208
288
112
208
-416
-304
0
416
-64
0
128
-240
-256
48
-112
-16
192
208
-16
-464
-96
192
-144
-256
16
16
-16
-160
576
112
-32
112
256
96
336
-304
96
416
544
432
-16
-64
304
96
-16
624
-112
-400
-128
-32
-96
320
144
144
320
-112
-32
288
-112
16
-528
-272
208
112
-176
-624
-576
-416
-112
64
272
368
400
192
-288
32
464
64
80
192
-96
-128
144
-160
-272
-128
128
48
-272
-208
368
96
-352
-352
16
512
448
368
272
176
-32
-16
-368
-864
-560
-160
432
-48
-128
-112
144
528
720
128
-160
-224
96
160
272
224
448
64
-256
-192
-80
-192
16
-176
288
352
224
320
16
-304
-128
656
512
144
-32
240
272
112
-320
-672
336
352
160
-224
-560
-224
-32
-64
48
480
288
-96
48
-240
64
352
512
608
576
288
-160
-48
-192
272
224
144
480
-32
-256
48
48
-352
-656
-192
160
-32
-16
192
64
-48
-16
384
480
-16
80
-208
80
368
720
592
544
288
240
336
512
96
288
-16
-544
112
304
320
-112
176
208
-80
-480
-240
-240
-384
-128
256
176
608
160
-32
-112
128
352
496
-16
-16
-256
144
-48
-224
-160
-32
176
0
112
80
176
112
320
32
208
208
48
-320
-144
256
96
128
240
192
-64
-368
-176
-208
48
80
-256
-176
-112
-432
-544
-176
-208
288
512
112
112
-288
-144
-32
384
208
-16
-176
80
-544
-304
-304
176
-384
-400
-544
96
-208
-448
-464
-624
-176
-160
-192
-368
-240
144
320
112
112
256
208
-160
-864
-336
128
-160
256
176
-304
-144
304
576
368
-96
-176
32
288
192
336
144
-256
96
112
352
-416
-208
240
144
240
80
176
112
112
-64
-256
-224
-48
192
-96
-192
16
-144
48
-48
432
208
-96
-1008
-304
-336
-432
0
64
16
176
64
-208
400
64
-192
128
-240
-288
-96
96
96
-144
-80
-512
-208
-256
-448
16
48
400
-80
-352
-288
-256
-288
96
-80
-336
-64
256
224
288
496
304
-32
192
-48
176
336
-240
656
288
16
112
400
768
80
80
272
-64
96
176
-48
-144
-144
-144
256
208
-160
-128
-80
-608
-432
-432
-480
-448
176
336
-320
-32
-256
-80
224
192
352
128
-80
192
0
-160
-336
-512
-592
128
176
-64
-528
-336
-16
192
-208
-160
-400
-208
240
-144
-352
-176
160
-16
16
-144
96
464
336
-176
-32
-48
-16
-80
-304
-32
-224
-576
-32
320
-96
-192
-144
-16
-80
96
-160
-672
-752
-560
-288
-288
-128
144
96
352
288
32
80
-352
-336
-704
-1072
-160
-288
-336
-304
-96
0
-704
-400
256
352
128
-560
-400
240
192
-32
112
256
272
176
160
-384
-352
-128
-144
-400
-48
208
160
160
288
0
-336
32
-160
-128
-16
48
-96
32
-48
-432
-272
-176
-304
-352
-560
-576
-448
352
48
-432
-960
-512
-112
-176
208
-112
320
432
112
-384
-112
-128
-16
-576
-256
144
400
-16
-576
-368
384
640
0
16
128
0
-48
-384
-192
-144
352
160
176
192
-160
-272
-176
-336
-592
64
-48
32
144
-96
-704
-272
96
784
288
16
16
-496
-48
528
336
368
544
-384
-112
256
16
16
208
-512
0
144
80
48
-48
-16
-176
-464
80
256
96
240
-160
-176
-192
160
336
-416
-80
48
304
-256
-64
-64
-128
256
384
224
-160
288
-160
-432
32
-288
-176
16
128
-144
-528
128
0
-112
-416
-416
-560
-256
64
-144
-176
176
96
416
-208
-832
-672
-592
-272
240
240
-64
160
160
-64
-176
176
208
-80
-352
-352
-208
160
-64
-512
-96
416
288
560
288
240
480
288
192
272
352
96
-64
192
256
256
80
432
352
192
128
64
80
-96
-64
-240
80
-112
-96
-144
-368
32
544
560
144
0
464
192
432
320
0
112
-48
160
-32
0
-144
16
96
128
-64
64
192
-48
-48
-32
-240
-128
-176
-16
64
-320
48
160
-256
16
-32
-176
-32
0
320
272
208
-448
-352
-256
-160
-192
352
32
80
0
32
208
96
32
384
624
464
304
128
-176
-16
-112
-288
-304
-128
-336
-496
-48
-32
-256
112
48
-416
192
368
160
176
544
16
-400
-688
-256
416
208
32
-144
-368
-112
-16
-144
176
-304
112
-288
-640
-256
112
-272
-320
160
272
48
-176
-48
-80
-144
-272
-96
-64
16
-112
-272
-144
-64
48
64
-96
-32
304
224
368
64
-48
0
-64
-160
-176
-288
80
192
-384
-416
-416
-384
-272
-176
-528
-496
-384
-432
-240
0
112
-208
-224
-112
-208
448
816
-16
-496
-224
320
464
96
-192
-224
-288
208
80
32
-304
256
448
160
256
240
176
-80
-16
16
-80
-208
-496
16
-432
-592
96
96
240
-208
-16
144
96
-80
32
-144
-256
-608
-96
-32
96
144
-464
-576
-368
224
32
-528
-384
-656
-256
160
-16
16
64
80
0
-256
-160
144
288
128
-320
-144
304
336
352
256
416
-64
-288
-592
-384
176
256
-224
-48
256
352
240
-352
160
0
16
64
192
-256
-352
-112
-96
-64
16
-160
-288
112
-272
64
-32
-64
-160
32
48
160
304
336
448
416
256
-48
48
64
-256
-32
336
160
352
304
80
64
640
288
-160
-304
256
400
864
288
-32
192
208
32
-32
32
240
-144
-304
-128
-256
96
-400
0
272
96
80
-240
-368
-16
352
96
128
160
208
-32
-304
-544
-384
-112
112
-16
-32
128
-96
32
128
-176
48
-240
160
-256
-160
-144
-496
-16
16
-128
-512
-688
-448
-144
240
304
64
-128
-240
-352
208
416
-128
-32
320
272
80
368
512
336
-96
176
208
-288
80
224
160
-256
48
256
160
-112
-304
368
0
-48
-208
-384
-448
-80
416
-144
160
-208
112
336
-128
-16
-16
-304
-176
-224
128
-48
-288
32
240
432
144
384
-176
-32
128
64
-96
16
160
960
592
512
-288
-272
-32
-128
320
-144
-80
80
16
-304
-32
192
48
-32
80
-400
-144
96
144
256
320
-256
-256
-64
128
-192
-240
128
-240
-384
48
352
112
-16
64
448
672
368
-288
-288
-48
288
-144
64
224
736
512
96
-256
-80
-176
-224
-368
16
80
-304
-224
240
272
192
144
16
16
176
80
-32
80
48
112
-384
-192
400
384
272
16
32
224
-272
-224
48
-96
-32
128
-320
-720
-336
-112
-288
32
336
0
-160
416
352
176
-272
128
352
368
48
144
0
-176
-144
-208
-352
-32
-32
-128
16
-48
720
800
-80
176
-128
-288
0
64
-480
-560
-320
240
64
336
-64
192
496
-64
48
-240
-272
-32
-336
112
160
224
0
272
112
32
208
-32
-128
240
240
80
-176
400
-240
16
-80
64
48
96
-48
-16
-112
-464
-256
-64
-160
-384
144
656
512
272
144
-352
-368
480
192
240
400
-80
-512
-720
-240
-128
192
48
-96
-144
-192
224
208
512
512
304
640
112
-192
224
256
-352
-144
-272
-704
-288
416
208
288
-144
-128
-288
48
-96
-64
128
80
-336
-272
-544
-224
48
-64
-160
32
96
128
448
240
208
208
-176
-320
-208
-96
-256
0
-128
-176
-32
304
448
224
-64
-48
80
-224
-384
160
160
176
16
352
-128
224
336
-16
-64
-352
-96
128
192
352
-288
48
-224
-432
-320
-384
-32
96
-64
-496
-432
400
-80
-368
-240
-192
64
-64
-288
-624
-192
240
336
96
128
304
352
0
-128
112
16
128
-192
64
16
-64
-16
112
-32
-176
-144
-64
176
-112
-160
0
-48
192
192
144
112
144
208
-144
-176
-528
-640
-336
-512
-480
-192
-176
-240
304
32
-224
80
192
48
240
256
208
176
288
496
0
-272
-112
336
320
-64
-96
-128
352
-160
-176
-256
144
320
-208
-464
-128
-80
16
-48
48
-32
-128
-336
-240
384
256
96
256
48
-240
-336
-128
272
496
224
368
96
304
-16
-112
64
144
-80
176
304
-16
192
96
48
-400
-608
-496
-96
272
16
-464
80
-48
272
320
-112
144
0
160
160
-176
16
64
128
208
368
208
448
320
592
-128
-288
160
304
128
288
80
-368
-224
-160
-80
-368
16
-400
-384
-448
-176
-32
-192
48
-128
240
96
-96
-144
48
-288
48
720
896
320
-208
-512
-144
208
336
-80
-272
-112
-32
32
-256
-560
-144
192
-32
176
544
112
-144
304
-32
-192
64
256
-192
96
0
-256
-96
208
688
192
-16
64
-112
-16
-208
-336
432
224
-16
-16
256
144
-16
-560
112
288
32
-176
-352
224
640
32
-256
-80
48
224
160
-288
-48
272
-48
-112
528
304
-64
-160
-16
224
-144
-464
-288
384
464
160
0
-80
-64
240
96
-160
-288
208
192
112
-64
80
528
144
48
368
176
-112
-128
-224
464
320
-192
304
496
336
288
64
224
112
496
224
0
-656
-160
256
-272
-256
16
144
-128
-288
-304
96
-352
-368
16
-112
400
192
176
-304
176
352
-32
448
352
-144
64
224
272
400
512
512
16
-128
112
-128
-416
-288
-144
352
-144
32
144
176
160
48
-416
-432
-32
96
304
-112
-32
96
16
160
-16
80
48
-64
208
256
112
256
512
192
-160
-96
-80
160
32
-304
80
416
368
-176
-64
-256
-256
-304
192
192
256
384
-48
-144
64
-80
-144
-352
-176
32
256
240
112
208
240
400
-240
-688
-528
-208
-240
-272
160
64
-352
-64
432
320
192
96
-64
0
-256
-464
336
80
96
64
176
-112
32
-176
-288
-272
-256
192
-192
-224
16
0
384
-48
-288
288
224
-208
-432
-64
-160
-464
-112
-48
80
16
160
-64
304
48
-160
-288
176
368
528
384
-112
-640
-96
112
-272
-336
-288
-224
112
160
-32
-96
-176
304
80
-112
288
-464
32
208
-320
-272
48
-80
-128
-224
432
16
0
32
432
480
480
-64
-112
16
112
256
-144
-336
336
-80
304
-176
224
256
304
-160
-368
-64
400
-80
-176
-368
-256
144
-320
-544
-96
-64
-368
48
144
-208
560
496
304
480
384
208
0
-128
-448
240
80
160
80
176
240
192
368
320
-208
128
-144
-288
-112
-256
-32
0
-32
96
-16
192
-112
-128
-384
-96
464
256
-368
-496
-192
-400
160
112
-320
16
80
-320
-352
-192
32
96
400
192
496
-32
112
208
64
192
16
384
272
368
-128
-336
384
784
304
80
272
288
160
-80
48
128
32
-112
-96
-224
-480
128
-64
-256
96
32
-432
-144
-96
256
-128
-64
48
-304
-224
-256
-160
-272
192
608
-160
64
-144
-464
-432
208
480
208
400
64
112
80
-112
128
336
352
-624
-368
-320
256
240
-48
-160
-224
-96
64
-400
-320
160
48
48
-336
-128
16
-96
224
80
-208
48
144
-272
240
64
96
512
464
-272
-128
240
432
-48
0
352
256
208
-32
-656
-176
-64
-144
-384
-640
-448
-128
176
-160
80
32
-192
192
496
496
176
256
96
-32
-192
0
-192
0
16
80
-96
-96
-64
224
320
-16
224
48
240
-112
80
-192
-464
-192
-512
80
0
-496
-208
-96
144
144
16
-448
-480
0
-96
-352
-416
-304
-400
464
448
80
96
544
368
-128
240
464
64
-272
-432
96
208
208
-48
-48
-80
240
192
-16
-496
-16
192
256
176
256
-64
-208
-384
-320
-240
-400
-368
-384
-64
-48
320
528
-32
176
-144
-64
16
80
-240
-176
-512
16
-80
-192
272
464
352
368
288
16
-352
-464
-160
464
400
-144
-208
-16
-16
704
-16
-384
-576
-272
-256
-128
272
48
80
-48
-128
176
0
-256
-256
-272
-480
-640
-144
304
512
160
-288
-144
-512
-528
-768
-736
-400
-16
-224
-64
96
-304
80
-144
320
-96
-96
240
96
0
416
144
288
256
560
80
112
96
-64
0
64
-128
-16
-144
48
368
192
0
128
48
240
176
-64
128
-208
-240
32
-304
-176
-288
-416
-48
-160
-112
16
-304
-288
-272
-144
-192
-240
80
-240
224
144
272
0
-192
-192
16
224
160
-16
336
304
-16
416
80
-352
-208
336
464
112
208
48
-80
144
64
304
256
-96
-272
-272
48
192
256
-192
64
240
272
-160
176
688
160
64
112
-496
-256
288
16
-544
-144
-240
-336
-208
16
-240
16
96
32
416
288
64
96
528
512
-176
-384
-48
-144
240
208
208
240
32
-128
-336
-416
304
704
256
-112
-288
-368
-96
-368
-288
-96
112
48
112
-368
-64
64
160
400
656
304
-208
704
272
-176
128
16
208
176
-336
48
352
-224
-48
208
416
96
-48
-400
-144
224
96
-64
96
256
-288
16
176
384
384
416
-272
-416
176
-336
-176
-96
-144
-112
-384
-128
80
-112
-96
272
256
-32
-32
576
160
48
-384
-336
-304
-224
-320
496
624
-272
-432
-144
-160
-304
-224
-80
-176
-480
-336
80
-80
224
16
48
32
176
592
480
-16
-128
176
192
48
176
-144
304
48
208
-64
-368
-336
-288
80
144
-352
-576
-288
-448
-320
176
240
-16
-128
-480
-256
-336
-464
-480
-80
-224
176
224
-288
384
384
16
448
-112
480
512
160
464
208
48
-192
-192
448
368
-48
-128
32
480
272
-304
-32
-48
96
48
-144
-192
-256
-112
-448
-240
160
-64
-64
256
-176
-160
192
208
-272
-224
-64
352
192
240
288
-16
-48
-80
208
416
304
304
272
64
176
-240
48
160
-16
-192
-352
-96
-80
-16
208
-64
240
464
304
-256
-80
32
160
-224
-384
-288
-432
-128
-208
-48
80
-16
-48
-240
-288
16
64
-336
32
192
96
304
-368
-512
112
96
320
16
-48
144
304
0
160
560
64
-128
-16
-64
160
16
288
16
-160
64
304
-272
-448
-272
352
-16
-96
192
320
16
-544
-496
-64
32
-48
80
304
-304
-176
-176
-96
-32
256
192
128
336
-176
144
-240
144
208
560
512
-144
352
192
-16
-304
-704
-32
160
-64
-256
-160
160
224
224
-64
128
432
240
-480
224
144
-160
0
32
48
-336
-560
-64
-144
48
48
-144
496
432
352
-48
-576
-368
48
304
96
0
256
288
272
0
16
-512
-144
432
256
80
-144
80
288
-272
-48
-48
192
112
368
-256
112
-16
64
-112
-480
-240
128
-224
-288
304
160
-128
80
-208
80
64
768
320
48
160
16
-208
64
560
48
192
96
-224
-384
-192
80
-112
-528
64
64
-96
-128
16
-64
80
240
912
448
624
416
336
384
304
272
-16
336
96
-512
-144
480
512
304
-16
-32
96
-208
-96
-112
-240
16
304
288
-16
16
32
-80
-512
-288
-224
-240
-432
-544
-112
-320
-320
-384
-576
-16
-272
-480
-512
-256
80
96
224
432
576
304
336
-80
96
48
-368
64
400
240
208
-224
160
-32
-304
-208
-352
-288
-160
-432
-64
-256
-112
256
-48
0
240
-96
-272
-32
112
112
400
640
400
432
64
160
432
176
-224
-144
-32
-592
-208
320
64
0
64
384
160
-128
144
288
160
176
48
224
-128
16
192
-96
-48
-240
0
400
512
0
-192
-256
80
-160
-240
32
-464
-336
160
528
-128
-752
-352
112
80
112
128
-368
-112
-336
-400
144
288
-144
224
224
224
144
256
-48
384
-112
160
272
-32
-576
-736
-144
-64
-112
192
-64
-432
208
288
288
-16
-384
-416
-560
-688
-224
-96
16
-176
-272
160
224
-576
-432
368
352
688
-208
-288
32
16
32
80
64
-112
-336
-336
-96
-48
-16
144
16
-48
272
256
-32
240
480
192
112
-16
-160
-400
-576
-128
0
16
112
288
144
208
32
48
-320
32
-128
-64
-128
-80
208
288
208
256
320
352
-16
192
-192
-288
-96
-32
-256
-464
240
224
-192
-288
64
0
-320
-96
144
320
16
-304
-272
80
-160
-272
-368
-176
32
-64
-288
64
-208
-288
80
16
-128
-304
-16
-96
-64
-560
-544
-544
-384
-80
-272
64
32
-304
-176
-80
-16
-592
-336
-48
320
-240
-272
-400
-240
-128
-32
144
496
272
-160
-384
-112
-160
-336
-416
-288
96
288
160
-320
128
80
-176
-48
144
384
-160
144
352
512
240
256
224
96
0
-16
352
240
176
-160
32
-32
80
240
-256
-32
304
32
-528
-256
400
208
64
-144
80
-400
-736
-848
-512
-192
-32
128
-32
-368
-224
-400
-192
-192
80
368
48
-624
-352
-336
-224
256
-32
-32
96
-16
-592
-256
-16
-736
-336
208
-176
-208
-32
-208
48
-48
432
144
416
-16
80
32
-160
160
112
112
-192
400
256
112
112
-160
-160
-96
-288
-112
-144
-128
-176
-48
-384
-80
-48
-32
336
64
-48
-432
448
272
0
400
160
48
-208
80
496
256
-192
272
848
240
-96
-112
-464
80
64
48
-112
-64
400
-160
-64
176
176
-192
-496
256
64
64
-64
448
528
656
576
304
304
384
64
-432
16
-96
-144
32
192
48
-176
-416
-336
-176
-224
-64
32
16
-48
-528
-272
-32
32
-32
0
-256
64
64
-48
160
-112
-224
-80
-432
-336
160
-48
-256
-368
192
-64
16
-128
-192
-368
96
16
-112
624
336
32
-128
-64
240
272
-112
-832
-368
-240
144
208
-320
-384
-352
-464
496
352
-256
160
352
224
32
-256
-176
-64
320
-16
16
608
288
-112
80
112
64
400
128
160
624
288
32
-352
0
-16
-544
-304
-112
-384
-592
48
176
-176
-320
-208
336
608
304
-208
-64
448
512
320
192
-160
448
256
48
-32
16
16
-352
-256
208
-64
320
112
-48
-48
0
-192
176
96
-160
384
576
192
112
400
-208
-352
80
528
-96
-352
192
192
416
-176
-272
-256
-208
528
560
48
320
16
-224
-160
-128
-256
-144
-32
-128
-688
-304
224
192
352
-32
-48
-304
-240
112
240
176
16
96
512
-384
-448
208
288
112
464
176
48
-192
-176
240
-160
-416
-64
-464
-112
208
-64
-16
-32
384
464
368
112
-160
0
384
336
-128
-16
800
64
160
272
-16
-64
96
144
128
224
-192
0
0
80
64
272
336
-64
112
176
288
-80
32
416
160
-160
-240
48
-16
-176
112
0
-208
-496
-96
352
96
-224
-48
112
0
-368
-32
-112
-48
272
64
-160
-352
0
240
112
352
432
416
96
-448
-592
-176
240
96
48
-464
-224
128
-336
48
144
320
464
368
0
-320
176
-144
128
256
496
192
112
352
528
208
80
112
0
144
112
-272
32
496
208
96
256
272
0
64
112
48
32
-640
-368
288
800
-32
-240
-224
-80
-416
-656
-304
272
176
144
112
-16
608
544
304
352
480
-16
-256
-144
-128
-48
592
384
96
-208
-160
-240
48
208
224
-144
-144
80
-80
-352
-432
-112
96
-224
304
-96
64
0
-16
-64
-256
-16
112
64
-416
-288
-416
-448
-560
48
416
640
64
-336
-48
240
-320
-192
-112
48
-96
64
-96
48
-16
112
-128
96
48
368
432
432
-32
-96
-192
48
-384
-96
-64
-368
-432
0
80
-224
368
496
288
16
128
-288
-336
-96
-400
-432
-96
-112
-448
-320
128
448
160
-464
144
128
64
-144
-32
48
304
-16
-96
160
-480
-32
-48
-224
-112
80
224
208
-224
-304
304
-48
-32
-496
-288
-256
224
464
256
-16
208
432
400
128
320
208
32
48
80
-256
-352
112
288
336
64
144
-224
-368
-32
336
240
16
-304
-208
128
352
480
112
-48
-368
-384
176
-272
80
-144
-336
-272
16
-64
-304
-256
240
128
48
-208
-160
-240
112
-32
336
48
-240
-160
176
480
-112
848
336
-304
-672
-368
112
592
-80
-48
-208
-224
-96
272
400
112
-128
-208
-128
48
-48
-128
112
-64
224
192
-160
288
-128
-624
96
192
-48
464
0
-560
-128
-240
32
-16
80
16
816
496
336
-320
-272
-416
-160
-368
-288
128
192
192
144
496
272
384
288
544
352
160
-512
-624
-416
80
-208
128
304
-192
0
128
-128
336
112
-416
-352
272
48
-256
48
368
16
16
-192
64
0
112
160
-320
-96
-144
144
96
352
256
-144
-288
-192
-160
-112
192
-128
-304
16
32
-336
-624
-160
160
112
96
48
96
336
448
16
-368
160
128
192
-272
-208
32
16
0
-528
-176
-64
192
-224
-112
-336
-304
-512
-128
192
-32
-64
-352
-448
-272
-128
-240
-144
-48
16
144
-144
-400
-272
144
256
368
16
-176
224
16
-272
-176
368
-32
-224
-368
-48
256
624
80
-272
-240
-400
-304
-160
-16
576
368
-128
-208
-272
-64
-144
-288
-320
-96
-96
-32
-48
-192
-240
-272
304
192
112
96
-336
496
368
176
32
96
224
-112
-752
-528
160
-128
176
16
-16
16
-320
-464
-368
0
256
-80
-224
0
352
-128
240
-272
-464
0
160
192
160
480
480
640
288
112
-112
-144
96
-224
-400
-256
352
464
-224
64
48
32
-368
-80
416
608
464
32
208
512
320
192
352
192
-16
-176
-192
80
-144
-176
224
-160
-496
-416
-16
368
496
-112
-176
176
-48
48
160
224
144
160
112
-16
-144
-448
-560
-240
-160
32
-80
192
-304
-48
-304
-288
-352
-272
96
320
64
-464
-144
-160
-32
272
128
32
-112
96
16
-240
-112
-128
208
-336
-192
-592
-480
-64
480
624
176
-288
80
0
272
-64
128
448
432
128
224
176
-208
-224
80
176
-416
224
-112
240
160
176
-176
144
192
-288
-48
256
0
-256
-368
-16
-272
-304
288
0
-448
-384
144
80
0
-96
-192
-208
176
368
-16
-512
-976
-128
64
48
112
-64
-96
288
368
48
304
96
128
144
320
384
128
96
96
-128
240
240
32
368
-32
-80
176
-48
0
128
288
32
256
400
-80
-704
-352
176
-64
96
240
400
-48
-128
288
-16
-192
-80
176
-48
96
256
592
64
-112
-464
144
0
-288
96
-336
-80
-176
-176
-256
256
496
32
-448
-496
-432
-64
128
608
384
-32
-192
0
0
-96
16
128
64
16
-336
-496
-96
176
-144
-288
-304
112
128
-464
-464
-432
64
176
64
-32
448
-384
128
304
-272
-400
-160
176
224
384
560
96
-32
-192
-32
368
496
-48
288
-16
32
96
-32
-224
-96
-432
-432
-240
-208
-496
-384
16
80
-256
-256
-144
224
448
256
-272
224
32
-16
96
0
64
-208
96
64
-512
-224
0
-80
-48
-128
176
80
384
160
144
-384
-128
560
320
-16
400
0
-224
-160
80
384
384
-192
-32
-32
-320
-176
-64
-320
-288
0
-176
-448
-208
-240
-144
400
-96
384
-496
-256
-112
-224
-256
32
224
176
416
-16
16
-96
80
-176
-64
96
144
272
-80
0
176
-80
480
640
272
368
48
-336
256
256
144
-336
80
432
400
112
-496
-96
-64
-224
80
112
-208
-352
-224
-336
-272
-528
-528
-608
-16
256
112
416
208
-176
-128
-80
-32
-192
-576
-192
-160
-496
-336
0
-32
448
352
496
208
-368
-64
336
448
512
208
-384
-400
176
80
64
80
-304
304
320
16
-304
-176
-400
-192
224
-256
-256
-368
-304
-352
-48
224
-256
-288
-48
-256
-256
-304
-512
0
-272
-80
0
-96
-96
-288
-240
-352
-336
-336
-400
-336
-192
192
-64
192
272
32
240
-80
-448
-160
-496
-416
160
448
352
128
336
96
592
624
112
320
-32
416
496
-192
-224
-208
-192
-176
48
-144
-224
-368
-16
64
128
-192
-176
176
-32
-368
-176
-80
96
368
128
-544
-288
112
288
80
-288
-96
320
32
272
384
-112
-16
-240
-368
144
368
-192
80
-320
-192
48
-416
-416
128
-16
-48
-192
-464
176
128
272
-240
-240
-384
-288
64
128
16
48
112
0
-128
-224
-64
336
-176
-208
48
-336
-224
-400
-272
256
480
-240
-288
544
736
352
-128
-608
-256
-48
-192
128
400
192
-16
-320
-240
224
-336
128
352
208
-304
-320
-192
144
176
288
112
-48
-416
-336
112
128
-560
-400
0
-192
-448
-320
112
-352
-272
144
64
-128
336
32
-224
32
256
64
112
-176
-320
-304
-448
-448
-224
32
-448
-144
128
-304
-64
-96
48
32
112
-192
16
-224
-416
-352
-304
-48
384
16
448
-48
-64
-96
-240
-416
224
-64
-208
0
-256
-16
-288
-96
-144
-112
192
-112
-416
-416
0
-256
480
176
-208
-176
-464
-416
-448
-128
192
192
-176
-416
-160
-272
112
144
-112
-208
-96
-208
-224
-544
-464
-96
-288
-16
512
-16
-192
304
96
-880
-432
160
-80
16
160
80
128
-48
-64
240
128
-192
224
240
336
-400
-368
-176
80
80
-144
96
-336
-368
-80
-288
-112
304
-192
-16
-48
-352
-336
-400
-16
64
-240
-256
-176
-480
-464
-464
-144
208
144
400
-192
-224
-160
-32
80
-32
-192
-224
-112
176
160
112
608
480
160
80
-304
128
512
288
-160
-144
352
128
-224
144
-48
-368
112
0
-240
-112
-320
320
288
-32
224
-96
64
-128
176
144
16
-416
-160
-128
-64
112
-208
80
288
112
192
-320
-192
32
352
240
192
-96
-224
-160
-656
-592
96
48
-384
-32
416
480
80
224
64
288
-80
-32
112
128
0
-96
112
-16
128
288
-192
144
208
80
272
-176
-512
336
544
144
96
-112
208
-48
128
128
272
256
160
-32
-112
-64
-592
-432
-224
-32
80
208
256
656
320
-480
-160
-144
-128
-112
-112
-64
128
-64
160
-48
-224
160
272
-416
208
880
128
-16
560
384
384
176
0
-176
32
32
-208
32
128
-192
80
192
144
192
-592
-144
704
224
-336
-208
-224
192
352
576
-144
112
64
-16
32
-32
-208
-464
-128
16
-160
-80
-32
-432
-208
224
336
-16
-464
48
288
-192
-272
-208
32
416
416
384
336
368
-48
-464
-128
48
-128
0
-288
-448
-16
176
-112
208
128
-48
32
208
512
160
368
208
80
320
-48
-656
-240
672
416
-32
-160
-48
16
-176
240
-144
-368
-80
-176
-304
176
112
64
-80
-224
304
64
768
688
208
-208
-368
-560
-256
-96
-128
224
48
-240
-208
-256
176
240
288
272
528
320
336
304
16
-128
256
208
80
-272
0
-80
-96
-224
-96
64
144
304
-224
-32
-416
-80
32
80
-176
-112
-96
-672
0
560
-368
-80
-240
-528
32
320
-128
-336
-144
-176
240
-48
-256
-128
304
-560
-624
176
64
-272
-352
160
64
-144
160
368
240
288
128
-208
48
176
-144
-96
32
-112
-80
560
624
304
240
-32
48
240
336
-160
0
272
-256
-512
-560
-304
-512
-384
192
208
48
-64
144
160
80
-32
-64
-80
320
-176
-160
-128
208
384
-208
-144
-128
272
-16
160
-16
-256
-720
-240
208
128
-368
304
320
160
-64
-336
-112
32
144
224
-112
-128
192
-128
-80
-144
-368
128
80
208
64
0
-304
-496
-240
192
496
-80
432
-64
-96
128
-192
64
0
96
176
-112
112
272
96
-48
128
-224
-208
-32
16
-224
-176
-48
96
-384
-272
0
368
320
-320
-272
-96
224
-16
128
480
-16
-288
160
336
288
-368
-608
-384
-640
-192
-80
-16
-96
-224
-592
-416
48
224
-144
-640
-192
320
0
-144
-304
-16
192
-64
-432
112
416
672
32
-320
-224
16
-192
-208
-80
-112
128
400
176
320
96
544
400
208
272
16
320
-208
0
-288
48
640
64
-64
-176
-96
-112
32
64
16
-80
-176
16
-16
-32
-32
352
480
-192
-128
176
16
80
112
352
80
336
0
288
144
432
480
-80
-464
352
288
-160
-128
-80
32
-16
64
-368
112
112
-288
-448
32
80
-352
192
112
-96
16
-48
64
-288
96
-48
-160
-112
-240
0
112
0
176
64
240
352
448
-128
-16
160
-96
0
256
-144
32
752
320
160
16
-752
-272
80
224
384
768
-112
-416
0
112
-176
-208
336
-144
-128
240
448
192
224
144
144
512
-288
-304
128
160
96
176
-112
-496
32
-208
-368
-384
-288
-192
96
144
160
144
112
256
-176
-96
48
144
-96
224
-96
-672
-240
144
-384
48
272
176
-208
-32
208
-32
288
0
96
-256
-112
176
-32
-672
-624
64
352
560
416
-128
-16
80
16
16
-480
224
256
32
-320
0
208
0
-112
-128
256
192
256
-224
-576
-288
-32
-544
-416
-240
-112
-160
-176
32
48
64
-288
-400
-336
288
-48
-288
-240
-176
0
-352
-64
0
144
-80
0
512
304
352
512
-112
-224
-96
112
128
-176
-96
160
-16
80
-368
80
-544
-384
-176
-624
-240
208
592
176
208
352
272
560
384
-128
576
480
-512
-400
-112
112
112
-288
16
208
272
144
0
-224
112
96
-48
-256
-400
-352
-176
128
-256
-144
-160
64
0
-32
32
96
-64
-192
-400
-448
-16
480
256
144
64
272
480
-144
192
-208
-144
192
-336
-64
-112
-368
80
-224
-224
-448
-368
-16
-560
-48
144
-576
128
368
-384
-464
32
608
272
-64
-320
-80
272
96
-192
-192
0
-32
-112
-448
-224
16
192
304
-48
-64
-240
0
32
176
80
-240
-368
-208
-304
256
384
48
-640
-240
-384
80
48
80
112
32
-32
-160
64
240
576
512
128
336
208
-320
-240
-160
128
-48
-16
-112
368
0
144
-128
-144
192
368
112
-272
-160
-384
-480
64
176
-16
0
-48
-256
-192
-192
-80
-320
-64
80
304
-496
-304
-192
-256
192
-32
80
288
288
96
-128
-80
-240
448
416
32
48
-384
-768
-192
192
208
80
-112
-256
288
496
144
256
32
-112
80
32
96
128
-32
-512
-320
192
-32
-96
240
48
256
368
352
-192
64
64
-304
-272
32
-144
-272
-608
-288
-160
144
400
672
672
16
-576
-464
-112
-144
-144
-256
304
368
-48
-256
32
240
224
-64
-208
-96
-16
256
-48
-240
-64
192
-144
224
-208
-240
-64
-96
-272
-608
-128
240
-144
-176
-160
368
144
432
304
96
-112
-16
-288
-32
112
-80
-448
-496
-240
304
32
-288
-32
112
-208
-272
-112
-192
-64
224
-384
-640
-160
-272
-96
-112
-32
-176
48
-240
-368
112
240
-80
-80
-128
400
608
272
16
-144
256
336
-96
-32
336
160
-64
-224
80
-32
32
96
-192
-48
416
0
0
64
400
288
-320
32
224
224
112
80
-64
112
-80
304
48
-288
-320
-176
48
0
-48
-384
-400
-64
-80
-64
-160
-160
-112
-272
-176
0
16
-32
16
-80
-368
0
304
144
-336
-672
-416
-176
-80
-176
-80
-368
-96
224
80
-208
192
-208
-304
48
448
96
144
128
-48
0
-400
-240
-320
144
-272
-224
-192
-160
176
-128
-32
-224
-176
-160
-128
-160
-112
400
96
-16
160
208
-336
-496
-272
176
-208
-656
-112
192
176
-352
-192
-176
-352
224
-144
-80
224
-224
-320
-320
80
-240
-208
-464
64
48
272
912
544
-96
-272
208
336
-96
-224
-64
-208
-96
176
160
480
352
-160
336
384
-336
-304
-16
48
-208
-80
240
528
496
208
32
112
32
-112
-128
176
-304
-160
80
-128
96
32
-32
208
272
176
-96
-224
-16
-32
128
-112
-192
160
112
-256
-112
128
-96
64
272
-112
-64
80
240
208
48
-352
96
-176
-336
-208
-176
-224
144
256
208
160
400
432
-96
16
-256
-400
64
64
80
160
-400
-352
128
240
544
448
896
160
272
144
352
368
-96
-16
-144
336
672
80
256
112
-240
-96
-224
-64
-64
-48
-880
-272
0
144
-144
384
656
160
192
-256
256
240
384
336
-32
96
-208
544
240
432
656
304
288
384
288
-16
48
288
96
-144
-16
256
240
272
192
240
-256
-352
-304
-224
-176
0
-48
-80
272
-416
-432
-128
-272
-176
-80
-336
-624
-192
-304
-272
-288
-640
-160
96
320
-64
-416
-208
-272
16
-320
-352
0
-384
-144
32
368
112
112
464
720
16
-80
384
-128
64
320
-16
16
48
-64
96
224
-256
-192
-16
-128
-400
-176
-320
240
-80
48
-176
-368
16
128
48
208
-48
160
368
656
32
64
256
0
64
-272
-240
448
432
96
-96
32
384
-16
-416
-208
96
-80
-32
-128
-336
-64
-112
-208
16
272
-32
-560
-336
336
816
480
496
752
400
-320
-480
176
384
304
368
80
288
-48
-512
-368
-160
112
112
256
368
-96
-48
-192
64
-96
-160
-192
-208
-208
224
-144
-128
-16
112
176
-48
112
544
0
-144
-192
-432
32
384
224
-144
576
336
32
608
512
32
-192
-336
-240
-272
-256
16
-384
96
64
448
-192
-336
160
192
224
-256
-48
0
128
464
336
224
-32
96
64
-608
-528
-640
-304
80
-144
-160
-560
-448
-336
-128
176
384
336
-160
752
224
-336
240
64
352
208
-176
0
352
224
-48
-192
-352
-208
-464
-512
192
160
-224
-352
-128
48
64
128
272
-48
-208
432
464
112
-304
-384
160
-80
112
-304
-112
-64
400
48
-176
-160
64
-96
240
144
-64
80
-288
-176
208
-80
-256
80
-96
-352
-368
-96
112
64
-96
-112
0
240
240
464
400
784
-32
80
160
304
304
496
160
-208
0
-224
-176
0
-128
256
224
-224
-240
-16
192
32
-192
176
256
-128
-224
-288
-144
-32
-464
-544
-336
112
-224
-112
112
-128
80
224
-128
176
-64
-448
128
-80
176
176
176
-176
160
320
-32
32
0
352
352
384
192
-96
-368
-160
-288
-80
112
64
-224
-16
-144
-32
-64
-208
-64
64
432
592
320
192
272
-256
-336
-464
-80
304
-256
-400
-144
432
496
32
-464
-288
192
192
-288
96
480
144
-432
-608
-352
336
352
400
-128
336
-48
-224
112
192
-64
0
-336
-16
64
48
160
16
80
0
16
96
-192
-32
432
336
-288
-128
-192
-160
192
240
272
16
192
0
112
0
96
432
-48
64
128
160
144
112
320
768
608
720
96
-208
-80
128
192
-432
-336
96
-144
64
80
32
16
288
-272
-496
-16
160
-48
-16
160
272
64
-240
-80
-128
-416
48
608
720
576
208
320
80
176
608
112
-96
80
-144
-496
-80
112
112
240
352
80
-160
128
-160
-192
-208
-208
-304
-512
-368
-352
-144
-256
144
80
-272
-48
368
192
16
416
160
-112
256
272
112
208
304
-112
-448
-144
320
176
80
-192
320
240
-288
-240
-400
-512
-48
-112
-480
80
80
-240
-576
-128
176
288
-192
-128
-112
112
-192
-192
-240
-48
224
-144
-256
-448
-208
-432
-80
288
-64
64
-80
-448
-608
-288
-16
-144
-32
-176
-48
-256
-592
-416
-480
-432
48
208
432
256
96
384
176
224
368
-48
-384
176
560
384
48
0
-352
128
256
208
0
48
-128
448
160
-304
-192
112
-208
-64
112
-224
-208
-320
-384
-96
-64
192
336
-32
-16
176
208
480
160
-288
352
256
336
288
-80
144
336
-208
176
224
304
416
352
-224
-224
-80
80
-16
-32
-256
-48
192
32
160
-224
80
-96
-160
-144
352
144
272
16
-176
80
-208
144
-32
48
-416
-304
-160
-48
464
80
-384
144
-112
-304
32
288
144
16
-416
-320
-48
-32
-272
-144
128
128
-448
-128
16
32
-176
-288
32
64
224
224
352
240
96
-336
-32
-16
-272
-224
240
-256
-576
0
240
800
608
32
-160
-16
320
272
-80
-464
-256
-304
208
-352
-304
208
-288
-32
416
48
80
-48
-336
-272
-352
-336
-160
-128
176
16
-208
-160
-288
-96
-256
288
-32
-272
528
112
-144
32
144
240
96
-304
-368
512
16
-160
-368
-288
112
-208
-64
272
144
-64
-240
-288
-304
-176
-256
-32
112
-176
-288
-432
-64
-352
-400
112
256
16
16
-64
-32
-272
-208
-192
128
592
48
-400
-496
-256
-32
64
-80
-256
256
336
272
-32
-336
-192
0
16
160
-192
-352
272
368
208
-368
-16
144
624
16
-16
96
64
-224
-144
-464
-368
-96
-112
80
-48
-384
64
240
-432
-496
-416
384
96
-128
-272
-144
32
-288
-320
80
-16
-112
-224
-64
32
144
224
-16
64
304
-112
-480
32
64
16
-48
0
0
-16
80
240
400
80
-240
-96
128
-240
-48
-16
48
-64
528
288
-208
80
144
208
192
64
304
64
-416
-64
-320
-320
384
-160
-672
-384
0
320
224
336
48
288
80
-48
-32
0
-496
-128
48
-96
-208
-80
-48
-256
-32
-32
96
464
192
-544
-128
-48
-384
-80
80
0
144
80
160
-80
32
144
112
224
128
96
480
224
-336
-400
-464
96
64
-64
-192
-304
-144
256
-64
160
-112
-144
-16
112
-128
-224
-288
-112
-80
32
-176
-320
-48
-112
448
-48
-48
-464
-48
368
-32
-272
-64
-48
-144
96
304
160
-16
304
576
256
112
0
16
144
192
32
112
-272
96
48
-128
-112
-32
-96
320
432
288
608
448
-112
-32
64
-16
128
224
-192
-352
240
272
384
240
-416
-496
-512
-560
64
-96
-208
-336
-16
-304
-256
80
16
96
192
-160
-208
-144
-16
-128
-352
-336
-176
-96
240
608
-368
-16
-64
-48
384
384
256
-464
-480
-144
272
544
-64
-80
160
-176
320
32
-16
96
336
80
128
208
160
0
64
224
80
112
112
-48
-64
16
48
128
48
-160
-96
80
128
-112
-272
-48
-64
96
128
-48
-112
-208
-384
-64
80
144
304
240
288
-96
-288
112
-96
464
320
528
0
64
160
224
-80
-320
176
-176
-80
-32
-256
432
256
240
-128
-416
-64
80
336
-176
-512
-752
-384
-512
-288
480
288
-224
-272
144
-96
48
160
-112
224
256
-64
192
32
-80
64
-224
-96
-208
-112
80
0
256
368
-240
-128
208
96
48
368
-336
-144
-304
64
464
224
-64
192
96
-144
-448
-384
416
272
272
-256
-624
-128
-80
-176
-384
-416
-208
-128
0
48
160
96
-96
416
304
-48
-384
-192
-224
160
0
0
256
-240
-144
128
176
-224
96
-304
-384
-240
-368
-48
224
192
-144
-80
-224
-192
-256
-320
-112
-240
-160
-320
-320
336
448
368
-176
-480
-352
-496
-176
272
16
320
48
-128
-32
416
192
-96
-336
-544
-240
-32
-464
-256
0
400
544
32
0
272
160
-352
-240
0
80
48
272
240
-432
-320
-16
80
256
176
352
272
400
192
192
-32
-16
80
320
224
48
240
-176
112
288
-560
-176
-112
-144
32
192
-192
80
144
240
144
320
0
-32
256
384
-176
-336
-16
-16
-288
-160
-304
-752
-128
32
208
-48
192
304
768
144
-160
-352
-208
-304
-288
80
656
336
16
-16
320
80
-480
-256
-16
288
304
144
-16
-128
208
272
-320
224
-16
-176
-176
16
-64
-48
192
-64
-368
-208
304
320
208
432
80
160
464
304
592
464
16
-128
-256
-64
464
80
80
176
208
256
16
-416
-480
0
48
96
-464
-528
96
-32
-96
-400
-272
-16
0
64
-240
-112
-384
-512
-192
64
-144
-208
144
48
-176
-48
176
-112
80
0
-320
176
144
-64
-288
-32
128
336
-64
-208
-96
16
112
16
96
-352
-32
288
320
288
-160
-256
16
64
64
-64
-304
-176
-112
224
416
112
-304
32
304
368
-240
-208
-160
16
-288
-256
-160
240
48
-96
48
128
112
304
160
432
-32
208
208
-208
-160
320
320
656
544
96
-128
288
448
-32
-288
-112
160
-224
-32
-240
-576
-128
304
-96
112
32
-144
128
-128
-368
-64
-336
-336
-16
80
16
-176
80
-112
-288
-272
-32
368
368
96
-80
-352
-560
-80
128
-48
-320
-560
304
192
-480
-176
48
-368
-576
-176
-224
-256
16
0
80
128
-48
-64
144
352
48
-176
240
176
128
208
-48
16
128
496
-336
-336
-416
-128
-64
-208
192
160
-48
-80
192
96
-160
32
112
-256
-16
48
32
-592
-288
160
608
64
-32
64
320
336
176
336
496
192
-288
-128
224
592
-176
-752
192
208
-256
224
32
144
-112
-16
80
64
-160
-16
-288
-192
0
160
176
496
80
272
352
80
-320
-320
-304
0
-320
-304
176
-208
-160
-48
-48
-64
96
432
-304
-240
160
-176
-224
-80
96
-128
-560
-288
-160
-400
48
32
-336
-160
-416
-240
112
288
-256
-224
-144
-352
16
144
160
32
160
160
288
64
304
64
-368
-144
16
-256
368
448
464
96
-304
0
144
496
192
-288
64
-144
-512
-144
-192
-64
96
416
128
0
0
128
-208
-144
-48
64
16
-64
112
656
-128
192
480
48
-208
176
240
128
-128
48
176
288
-64
-576
-16
0
32
-560
-368
-256
224
128
288
512
112
-48
0
48
128
144
336
-144
-496
-96
240
496
-128
-416
-96
144
80
48
208
-64
240
224
144
-128
80
32
-80
-80
192
720
560
-144
-320
368
432
16
0
576
-128
-128
-96
96
-112
-160
-160
224
-368
-320
32
-128
-368
-208
32
16
304
-288
-160
144
128
80
-112
-48
-144
-400
-464
-16
16
-224
96
240
96
96
64
128
208
160
608
-336
-304
-176
-224
-240
-224
-208
-32
384
256
-128
64
-368
-208
-128
-128
-112
-416
-464
-48
192
176
176
48
16
208
368
144
-368
-16
464
80
-352
-352
-176
-320
-512
-176
112
16
-64
176
-80
-128
208
144
304
-112
-672
-624
48
32
-496
-240
-160
-352
-96
-512
-288
-400
-192
-128
-48
0
0
160
64
-80
-320
-112
-96
-176
48
96
320
-208
-112
-80
-784
-736
-480
128
272
-16
-144
144
160
-128
352
160
144
-160
-432
48
96
-592
-432
-208
-320
48
-256
-208
240
112
-384
384
208
-240
-256
0
-144
-288
-32
128
208
208
176
-144
16
336
160
-32
-160
256
352
224
496
240
288
112
-176
-112
112
-112
224
336
80
-144
-80
416
16
-256
-528
32
176
256
-224
0
0
128
144
16
-352
-304
400
112
-48
-176
128
240
368
688
160
336
-64
-176
96
-32
-160
-64
-48
-288
-80
384
-48
-208
-32
336
96
320
192
48
368
0
48
-368
-336
624
176
0
-112
-112
48
-112
48
-208
-208
96
416
192
304
512
48
-16
128
208
544
-512
-464
-320
-432
-16
80
-352
0
256
0
-304
-192
-432
-656
-272
-96
-304
-176
-48
-272
64
80
-32
144
32
-384
-288
-112
-112
192
-32
-176
-144
224
192
-48
-544
-432
-336
-224
224
-96
-96
16
80
112
32
-160
32
80
-48
-16
-320
224
-112
-224
-384
32
0
64
48
144
112
96
304
336
80
-352
144
608
192
448
144
-304
-256
-288
-80
-368
-272
-240
-496
-288
-176
-384
-224
224
336
-544
-208
288
544
-272
-512
-112
-16
144
320
-48
-96
-480
-80
240
-16
240
-128
-176
64
0
-288
-192
-304
-144
320
240
-144
-32
-208
0
-240
-48
64
-16
112
576
384
64
224
-80
-80
-576
-96
160
192
-304
-64
256
240
64
-320
224
80
32
-16
-64
-432
0
112
112
-208
-880
-144
-176
-448
-32
320
-288
16
304
160
64
192
416
336
240
224
0
-448
-304
-208
-128
0
272
-32
-464
-416
-128
160
432
240
144
64
-176
-112
0
128
-368
0
528
640
96
-320
144
208
-656
-528
-176
192
-96
-336
-272
32
272
-400
-304
-32
112
112
48
-64
-432
-96
-272
-272
-16
-336
-64
464
160
128
-304
48
448
528
48
288
-16
-192
-304
-96
-240
-128
96
448
272
-480
-192
80
256
288
176
-64
-416
-784
-464
-80
384
448
240
144
208
-112
-304
-32
-176
240
128
-176
-160
-384
-80
64
-16
304
240
96
272
-176
-352
-64
-448
-912
-96
272
240
96
-416
-656
-368
-32
-224
-592
-240
464
640
-208
-256
160
320
288
96
-320
112
384
-112
128
144
144
304
16
-368
-336
-96
-192
-144
192
-160
-272
160
-288
-336
256
912
0
-128
80
-144
-224
-224
-544
-176
-96
64
160
0
-64
-352
-496
-256
-240
-176
272
-48
-144
-336
-240
-176
-416
-208
0
208
128
-304
64
-112
-96
-272
32
416
432
144
-208
-80
192
96
208
-176
-560
-384
576
336
-112
128
320
96
192
-144
0
224
-560
-432
-240
-272
-272
48
-192
112
-64
-112
-304
224
336
528
192
48
80
80
-304
-48
96
336
304
240
112
-368
224
-112
-96
-16
-432
-80
256
-528
-528
272
384
288
96
96
-64
-160
80
-112
208
192
160
96
-272
-368
-256
-192
-272
320
-192
-208
64
-192
176
272
96
-240
-176
-96
-48
-496
-112
320
256
192
496
112
-96
-448
-272
288
512
-368
80
-160
-80
448
80
160
-240
-112
560
80
240
80
96
512
448
192
144
96
304
-160
-496
-64
176
-112
-224
-16
96
-128
240
32
304
176
-96
-96
-128
-96
-320
-288
-352
32
64
432
144
-160
-192
-128
-352
144
-256
80
64
368
96
-304
-352
176
112
-592
-448
80
64
224
80
288
720
80
-368
-96
-160
-288
-32
-256
208
96
-304
-128
240
240
-240
-464
-96
352
96
0
208
112
-32
-32
-176
-240
-304
-160
-288
-64
-176
-272
352
-288
-368
384
1072
-80
144
-80
112
-96
-320
-112
-320
336
176
224
272
224
-32
-240
-160
112
96
32
-192
-352
-112
368
-240
-112
96
144
192
240
-128
-112
-240
-368
-48
512
464
592
-176
-80
48
-112
-32
-224
80
-16
-304
-208
-320
-128
240
-112
128
-64
-192
-336
-240
-400
-48
-160
352
96
432
800
400
128
64
-32
-240
-112
32
-48
464
-144
32
208
48
-96
464
176
-192
-288
112
16
-160
-48
224
-48
-528
-352
160
32
48
336
32
-240
-112
-272
96
352
-160
-112
-112
-256
-96
0
-80
-48
-48
224
128
-368
-128
-304
-112
-272
-96
80
-16
-448
-352
-240
240
48
208
16
-144
-112
32
-64
112
224
80
144
384
-112
48
-592
-656
-224
-432
-352
32
-16
-112
192
240
208
176
-32
16
-32
0
16
-32
-64
288
320
288
-48
-128
-272
-432
-128
-192
64
208
-336
-288
-96
-288
80
576
224
192
752
224
-448
-432
-64
144
224
-16
16
-144
-272
-288
-32
256
176
-16
32
-144
336
16
-112
272
96
208
-48
-208
32
-96
160
-224
16
-96
-224
48
256
48
288
-128
-32
-352
-320
-288
-208
-32
32
-144
-80
-96
-80
224
304
128
-32
48
-416
-496
-176
-16
-128
384
160
-592
-352
-288
-80
-80
0
-128
-448
-336
240
208
80
-64
-144
-96
192
400
384
192
160
48
368
592
160
368
-160
192
-128
-112
-128
32
240
-96
-192
-16
-16
16
240
304
96
-224
-128
-496
-320
-176
-224
-240
0
-80
-112
-368
32
592
672
256
240
-240
-576
64
160
-128
16
32
192
-32
272
176
0
-256
192
880
624
336
-48
144
96
288
400
112
-48
160
16
144
304
640
400
-352
-160
-176
-336
-224
-272
0
496
304
-80
-64
-320
-336
16
-16
-48
224
288
-224
-416
-224
64
224
-576
-192
-336
-96
16
-512
112
96
-160
-64
80
-448
-160
32
160
16
-208
-352
-112
-480
160
-192
-32
336
-64
-128
-96
176
80
384
-48
-192
-48
-160
-128
-16
-112
128
-64
-192
-144
-336
-176
-208
-224
-448
32
16
-192
-368
-576
-608
-288
368
128
64
-144
400
544
208
-48
208
80
-96
-208
-224
-112
160
0
128
464
480
96
160
32
-80
128
240
-64
192
128
112
528
336
528
-48
144
496
176
32
272
16
0
144
192
-16
80
-128
96
416
368
-464
-256
-576
-144
80
112
-432
-400
-272
-48
-112
256
224
80
384
80
-352
128
240
-320
-32
256
-144
64
272
336
368
0
-352
-256
96
160
176
240
336
480
16
112
176
32
-64
-192
-304
-400
-160
-416
-416
48
768
320
-256
96
288
16
-144
-144
80
48
208
336
-112
112
272
320
-96
-208
128
240
336
-112
-32
-448
-464
224
576
448
640
-240
32
-16
400
432
624
176
-32
464
96
96
336
128
240
208
48
-224
-256
-128
320
-32
-336
-608
-448
-224
-16
-64
-64
112
272
128
-112
80
256
-240
-272
-80
-528
-176
64
-112
-256
-528
0
-64
80
96
-544
-128
208
-192
32
208
-144
16
96
176
-256
16
352
336
720
368
80
-208
-128
192
-16
-208
-192
-48
-112
96
352
-96
-560
-352
-512
-176
-112
-176
64
288
272
-240
-528
-144
-144
-256
-288
-448
-96
144
304
384
-224
336
400
-96
-112
48
160
112
544
352
336
-16
-16
-128
-448
-16
-48
-64
-208
-224
-352
64
288
384
288
160
-80
-64
-144
-128
-288
-560
-304
-352
-256
176
224
144
272
48
-48
384
272
272
-48
560
208
160
64
-160
-416
-64
-48
-560
-368
16
-48
-272
0
-224
32
176
240
-96
-96
704
64
32
-192
-240
-64
-160
0
32
-208
-320
-96
48
-32
64
-256
-224
-176
-160
-32
464
-80
-304
64
-240
-96
-208
-208
-80
192
160
-112
-112
-144
-144
-192
0
-144
96
208
-80
-32
-112
-96
-16
-32
-112
-64
-336
-272
224
256
336
80
400
176
64
160
304
176
-160
-176
-128
128
208
-32
-336
-128
64
-128
-496
-336
-64
-48
-96
-240
-80
-160
208
-144
-176
400
80
-272
32
64
256
160
32
-64
-304
-416
-96
-384
-368
-272
-288
-208
-272
-176
128
-48
-256
-336
-32
464
96
160
-32
64
-400
-208
16
-16
-32
144
272
16
-336
-64
112
-352
32
208
-160
416
304
752
784
64
144
0
224
320
-112
-256
-416
112
656
144
-128
-160
-32
-400
-224
368
64
-64
432
-32
144
-16
-288
-160
64
-128
-112
144
176
-272
-64
224
-80
-272
-144
256
-128
112
0
-32
64
-64
-160
16
496
16
352
-272
-400
-208
-224
48
-304
-352
160
-80
-416
-128
-32
128
-400
-208
-16
-112
-208
608
160
-208
-80
-160
-192
48
240
-32
128
-192
160
32
-112
-576
-176
-16
32
-144
-48
-464
-496
-240
-96
-144
0
144
144
-240
-192
224
-32
-272
-320
416
272
-96
-160
112
96
256
144
-64
-96
-64
-32
240
-32
240
32
-368
-336
-16
160
-336
-304
96
-224
-576
304
112
-320
-48
-176
-64
80
-96
160
256
-128
-48
352
496
-96
80
160
-96
-208
-112
224
224
-64
176
16
-320
32
224
-144
-48
-48
144
496
400
-160
192
112
-176
-160
272
-144
-208
128
-240
-144
-208
-80
0
48
112
336
-208
-176
256
32
-512
-448
96
16
-352
-144
80
-48
64
-304
-512
-320
-528
-96
336
64
224
-160
-352
32
416
192
256
320
-192
160
-32
-208
32
144
208
80
208
-272
-320
32
-272
176
-336
-448
-240
112
-96
-96
80
-368
-352
-304
-224
-32
-240
-240
48
160
240
304
-272
-80
-160
-448
-192
-96
-208
-528
-272
-64
-416
-272
-272
96
48
160
96
-112
-320
-240
-128
256
304
16
-176
96
272
-224
-112
-272
416
112
-112
-48
64
-416
64
-32
352
528
256
96
352
352
400
128
16
-80
192
64
-192
-208
0
-96
-128
-224
-80
192
16
-16
-288
-352
-384
224
64
-32
-80
-80
32
-272
-224
96
192
320
368
16
-112
-48
-272
-368
112
64
176
-208
-48
512
528
256
336
368
80
-352
0
80
304
160
-16
128
208
368
-144
-368
-80
-720
-352
-128
-288
-112
-304
176
256
-480
-464
-464
240
144
464
560
192
128
48
320
464
112
144
32
320
256
-288
-144
208
448
-48
-128
-256
-320
-464
-240
32
-528
-304
-288
-48
432
-192
32
368
96
-288
144
256
448
160
48
80
176
128
-192
-304
-320
176
-96
-16
-128
-48
-176
144
336
16
224
384
160
192
-48
-272
-528
-128
144
-160
-208
-144
48
128
96
-112
208
304
-208
-144
-32
-256
-224
-144
-400
320
256
288
0
-64
192
-112
16
64
112
-144
176
-32
-16
-128
-768
-336
-128
-272
-112
-240
160
176
432
144
-192
-160
0
16
-64
240
64
-688
-656
-352
-352
-368
144
160
240
-272
-160
-96
-80
-128
-160
-464
-496
-544
48
368
832
320
160
176
-288
-208
208
-432
80
192
208
224
336
192
160
-144
-64
656
352
240
448
48
224
320
32
-128
160
-64
-384
-32
224
-144
-160
-160
-144
-160
-64
-160
-352
208
208
432
144
-128
656
416
-80
-144
336
368
-128
384
-224
-48
240
112
320
256
-224
128
192
352
160
-128
64
336
176
176
464
320
-144
240
-96
-224
-48
-48
160
144
128
16
-192
-240
-48
-32
-208
-192
-464
-112
-240
-656
48
-32
400
192
32
-112
-96
-368
32
-32
-32
496
96
464
144
16
-208
144
144
160
128
-176
-96
-160
-32
-32
192
48
640
960
16
-432
176
32
-32
272
112
-96
96
160
32
-368
-48
80
0
-80
-176
-112
320
336
144
208
16
16
-16
16
-32
80
-80
-112
48
-48
-160
-432
-80
-272
96
-256
-304
-80
448
272
160
272
-48
-112
-16
192
176
-80
-80
-400
144
144
32
-96
0
288
-272
-624
-480
-544
128
-32
-176
192
240
432
432
80
80
0
0
400
176
0
224
608
688
-48
464
0
-608
224
320
-256
-144
-128
-176
-48
-96
-336
-208
192
-64
-128
48
224
-96
-528
-464
-16
-256
-112
-48
-640
496
416
48
-224
-272
208
-16
-336
-160
48
-112
-240
-160
-528
-256
-112
144
96
288
16
-176
208
48
-112
560
288
32
144
464
368
256
128
-48
80
-32
-272
208
176
-32
-144
96
-224
-128
144
-32
-496
-320
112
-16
352
304
-112
-176
0
-320
-240
304
-144
288
-240
-144
-288
-352
-128
-80
-96
-80
-48
240
112
-224
-592
-464
-576
-48
-256
-128
192
-160
-80
-192
-32
-496
224
160
32
272
80
16
96
-128
-16
160
-176
176
-192
-224
-96
-48
160
160
0
208
-272
-64
16
-16
-208
-96
80
-224
-304
-144
144
-288
-736
-672
-288
80
112
368
288
-224
96
-64
-176
-464
-560
-304
-144
-80
-224
-272
112
32
16
-112
-432
-288
-80
-80
48
-80
-112
-80
-384
-192
368
368
80
176
272
-272
-32
160
80
64
144
96
-272
-176
-160
-160
-320
-528
368
16
-352
-320
48
208
80
400
64
-144
16
-288
160
336
224
112
-496
-256
384
192
16
-48
-208
-576
-448
-64
224
192
0
-192
-368
-288
224
480
496
240
128
208
-32
224
128
240
256
-208
-32
192
-160
208
80
32
-16
336
416
48
-96
-240
48
272
336
416
-32
-384
-128
16
-320
-48
-16
32
48
80
-192
-80
432
352
240
-64
-256
-64
-112
-48
48
64
208
-96
16
64
32
144
-304
96
240
-16
448
48
384
256
-64
16
0
-160
-80
-128
-224
192
144
-320
-192
-96
496
416
-80
32
-144
-96
320
64
112
-160
192
-48
-352
192
160
528
320
-48
-224
-176
144
-320
144
-48
-208
-240
80
32
32
-352
16
64
496
384
32
80
-256
-64
-224
-128
-320
-304
-224
192
0
-240
80
-16
16
160
-160
-240
-48
-368
-256
256
64
0
144
48
144
128
48
48
-416
-448
176
304
320
-112
-160
224
-192
-176
176
96
400
208
144
400
-464
-336
160
-96
-32
-304
16
-224
112
144
32
-208
-112
-208
-64
48
-128
-464
-448
-496
48
80
0
-16
-208
160
256
32
0
-80
-160
240
64
-96
-208
-192
-80
-80
-112
-240
256
32
240
-400
-416
-272
-192
-64
112
-80
-16
-144
-720
-336
-208
-320
-288
112
208
-320
-64
-144
112
192
352
176
32
160
-96
-32
-144
-576
-160
288
112
-112
-448
-160
-96
-336
160
256
112
192
448
416
-48
160
32
0
48
64
384
144
-16
160
176
48
160
-320
-352
-288
-224
240
32
48
16
-160
-96
288
256
-272
-128
96
160
112
160
-80
-48
208
-16
464
-48
48
-112
-112
16
-128
48
-400
176
432
128
144
544
496
128
-272
-240
-448
432
128
-160
-176
-112
-288
-272
-144
208
288
112
160
272
320
480
128
-144
48
176
16
-192
48
-144
32
-112
-48
-16
-272
-144
256
448
336
-256
-576
-256
192
-176
-112
208
592
224
48
-64
288
256
-192
-320
64
-64
-272
-272
-112
-16
-304
-128
-208
-208
-624
-480
-368
160
-256
-336
-528
-528
128
-160
128
192
-16
-96
-256
-160
192
448
192
128
-32
640
64
-256
256
64
-32
-16
-512
-544
-160
-48
-32
-80
272
64
592
160
64
272
64
80
-320
-528
-464
256
224
208
128
0
0
0
-64
-144
-80
32
80
96
-224
-272
-464
-400
80
-288
112
352
208
-176
-176
-224
304
144
-448
-32
224
16
192
-208
224
240
256
240
144
80
-96
160
-144
-576
-272
624
416
256
416
128
64
-16
32
0
544
192
128
304
-272
-160
128
32
-144
-304
160
400
352
-304
0
480
592
560
112
-192
-144
112
-352
-224
-112
624
-48
-320
-368
-224
176
112
176
320
272
0
-208
96
384
-144
-416
368
256
96
272
64
-128
48
-16
-288
-128
144
-16
80
96
176
-256
-16
-560
-480
48
176
-48
-16
320
0
-48
-336
-384
-224
-736
-496
-416
-48
-112
-208
-16
-144
-208
144
-48
-256
-288
16
-16
-304
-448
-48
224
64
-144
-384
-448
448
704
208
160
192
304
256
480
144
-112
-48
192
-16
-496
-352
368
-128
-240
160
-96
208
128
32
-400
-384
48
96
-368
-80
128
-224
-144
448
64
-192
-256
208
240
352
208
-224
-16
-192
-240
-768
-112
368
240
-32
-224
-208
448
256
-48
32
240
544
512
-288
-144
-272
64
64
-336
-224
-96
192
416
-224
-64
-240
-368
-96
96
80
368
96
-272
-288
-96
-240
-48
368
400
336
-160
0
224
-64
-192
-496
176
272
0
-96
-256
-112
-464
16
-160
48
256
256
384
-224
528
144
-240
-480
-128
-160
-464
-224
592
688
144
64
-32
-144
176
-32
-128
144
-416
-208
-256
-528
-112
128
256
176
-64
-288
48
-352
-720
-160
112
96
336
-16
32
48
0
208
112
128
-304
-288
-160
384
-16
-96
-256
48
0
-192
-352
-400
-16
-160
-432
-624
-496
-112
-240
96
-192
80
-560
-176
-16
-256
-592
-480
-544
-432
32
448
-160
-656
-640
-528
-368
-256
80
528
320
-48
256
256
0
224
368
368
176
528
-112
-288
-16
144
-224
0
-240
-272
-80
112
-304
-32
144
-176
-112
-128
-48
-80
-256
-112
336
544
80
96
-128
-48
256
624
16
-304
-144
-400
32
240
176
512
112
320
256
16
-96
272
128
-224
32
416
0
-320
320
256
352
320
-448
-208
96
0
-96
-272
-16
16
-608
-752
-160
176
-64
-96
400
240
48
-176
-416
0
432
-288
-496
-528
-176
32
400
0
-384
112
336
-48
48
288
96
384
64
224
336
112
-64
-80
48
48
-240
-128
112
352
208
-384
144
-48
448
-32
-128
-64
496
304
208
-64
192
48
-80
-192
-48
192
64
-48
208
48
16
288
176
-240
144
48
-576
-496
64
-320
-240
-64
48
-32
-272
-576
-240
144
240
48
240
-192
-16
-32
-240
400
-64
192
-400
-48
160
128
96
400
400
400
224
272
160
-352
-224
96
-144
96
16
-16
-272
272
288
288
560
288
272
128
80
-336
-256
128
192
32
96
80
0
-368
-160
-304
160
240
-176
-160
-224
144
-288
-304
-352
-480
-272
-416
96
192
0
48
-288
-144
592
-224
-192
-272
-608
-208
80
-32
-48
368
256
192
176
480
-16
464
960
512
288
416
64
-320
0
160
-176
-48
32
-400
-80
-64
-32
128
352
-560
-112
176
208
416
256
192
-464
-192
112
-32
-16
368
16
32
64
-64
48
-32
240
64
-32
-64
-320
-96
-320
-272
-496
-144
-96
-352
-400
176
144
96
-64
352
576
240
112
32
192
128
-144
-464
-64
192
0
128
-64
-368
-32
-256
208
-48
-144
160
576
16
-384
-32
-96
112
-224
-48
128
16
304
-224
192
-64
160
-448
-16
-256
-288
-224
-272
-64
-304
-288
176
400
-128
-80
16
112
-64
-288
224
0
-176
176
-144
-384
-352
-176
-464
-112
-288
112
592
368
128
224
112
-224
-400
-192
160
-256
-112
16
96
320
160
-416
-464
224
416
352
368
-112
-96
368
-96
-80
256
160
-336
-240
272
288
-256
0
144
-288
80
96
-240
-416
-240
-176
-576
-256
32
-416
-256
640
352
-416
-320
-336
-96
32
-192
-352
-512
176
480
192
144
48
352
64
176
176
224
80
-16
80
-352
-160
-160
-320
16
-304
176
-96
-848
-576
-336
-448
176
-144
-176
176
192
-64
-240
144
288
-272
-64
240
128
368
-368
-128
336
176
80
96
-256
-256
384
-176
-448
-160
32
64
-304
-112
96
160
-128
-512
-496
-112
128
80
128
416
-48
-64
-128
-368
-224
-96
-304
-256
64
-96
-448
-48
352
-160
-240
-384
-192
112
112
-368
192
-192
320
368
-320
32
224
512
-192
-48
-64
96
-64
-64
-32
352
272
416
240
-96
-448
-320
96
-48
-352
64
240
80
-224
-32
192
560
624
304
0
112
128
-48
-16
-288
-464
-480
-192
112
-80
240
352
304
-80
-192
112
64
96
-64
224
256
352
16
-368
-256
-32
688
