1056
-1296
-704
-480
-64
-640
-608
-704
-32
944
1072
832
896
928
-1152
-800
-304
160
576
368
-576
-320
-1424
-320
656
224
-432
-576
-416
-96
-1008
-528
-1008
-1664
1008
304
736
880
-256
-32
-352
-896
-704
16
1088
160
160
-48
-256
112
192
512
-496
0
-192
-112
448
-416
416
-624
336
1152
448
944
640
-752
-1328
-624
-512
768
-832
-1552
-672
416
592
528
576
144
208
1072
-304
192
768
160
576
656
368
528
160
304
928
496
224
160
-384
208
-320
-432
-1776
-640
-720
416
368
-608
-288
384
768
1008
-512
-64
240
-336
-640
-80
128
336
528
-624
-1360
544
-688
240
176
-1152
-1552
-784
608
496
1456
496
-112
-160
-928
-688
288
-1200
-784
1104
832
-384
-144
1088
112
-960
576
272
736
288
848
272
560
176
-208
-1248
48
992
-128
-416
-448
224
-896
-624
-688
-1072
-928
-960
-224
208
688
-80
0
608
-736
-208
-16
-704
-512
-688
-400
-464
-224
-1216
432
400
960
592
-416
-544
240
512
-192
-480
912
576
176
896
-112
240
1104
672
1088
432
-720
464
272
-144
-672
32
-448
160
1216
1312
240
-256
240
448
32
880
2032
784
-464
1200
560
256
128
-512
416
432
144
-896
336
512
-1184
-256
0
-960
-1360
-32
608
784
560
-48
-64
-416
240
352
-400
-352
-112
656
1088
832
1296
624
-592
400
608
-432
352
416
1040
736
384
624
-512
-112
-336
-480
-720
-112
192
-432
-480
400
-432
-144
-368
528
368
-1056
-880
288
160
-736
448
-80
576
16
-528
-80
64
176
0
-1104
-576
-1088
80
-928
-560
-336
-368
1136
464
448
-528
560
1648
1104
384
176
-560
-80
-96
-80
-800
-1552
-1936
-1472
-80
-976
496
1248
576
-16
160
592
-1152
112
-176
-320
-128
-848
1568
1360
144
-80
304
-96
-592
-1024
-1344
-480
880
864
-16
-784
800
464
208
-224
-896
-752
1264
-656
-864
-16
-304
-448
-48
-464
-1168
80
160
224
480
-128
256
-128
-1312
-432
-176
-784
-592
592
1536
96
-192
0
-512
0
-304
-656
-1360
336
-112
-320
-1040
-784
-256
64
1088
1152
-544
336
1040
400
944
-416
656
448
928
-896
160
-1040
-1216
-464
-432
-112
496
-528
-784
640
1536
-1024
-864
352
96
-96
-176
-432
352
-80
-176
-16
-800
-208
320
-160
640
432
112
-1088
-976
-272
1344
400
-96
16
544
-240
256
112
624
-896
-1440
-944
-912
96
336
-144
-272
144
560
1280
912
1552
464
672
944
80
320
1616
896
144
32
80
656
1024
-1088
-1568
-624
576
-656
-656
384
-512
0
-1328
-1504
432
-576
-1344
-32
-864
80
-64
128
-880
-320
-448
464
720
-800
640
624
-336
32
-336
320
1232
864
240
1040
896
320
336
-128
832
912
1424
1120
192
-272
912
-160
-16
480
288
464
-656
-16
-272
-160
-800
-752
624
-272
256
384
1072
-560
144
-208
-1184
-208
688
-880
-320
256
800
-32
-32
736
640
352
896
-336
-704
-240
320
704
-368
64
-560
144
-368
368
1184
192
-272
528
432
736
752
240
48
-656
-112
-256
368
-1344
320
784
752
-80
-1280
-224
128
-1472
32
224
-864
-432
-544
-464
-176
-752
-240
-352
-928
-864
688
832
1424
768
-176
-768
368
-144
-368
-512
-144
272
-496
-16
640
96
160
-1104
-1360
48
784
384
-176
-848
-400
448
624
176
352
-880
-176
448
192
-672
-240
-336
-832
-192
-656
-992
-256
416
1472
960
-752
-1024
-192
448
416
656
672
432
-608
-768
-432
-608
-864
-896
-256
-368
896
912
-416
-512
1168
560
-1536
-912
-304
704
-768
-1216
544
656
1376
960
816
1328
-64
672
624
704
-1120
-1088
944
-480
-80
-304
-480
-80
560
640
1360
400
-64
736
144
368
1248
0
-960
-608
672
2016
1040
400
48
400
-176
1360
-240
0
-1136
-288
-64
-720
-1296
336
-208
-928
832
992
48
-1088
-816
336
976
880
-256
224
336
-544
288
128
144
352
-416
-336
640
1152
816
-96
160
384
288
-368
-400
-1136
-400
-864
-672
-176
0
-544
48
-368
-656
-1376
-688
208
944
-64
-1024
496
864
-112
144
272
816
304
-304
-384
-256
-720
-288
240
288
1088
880
816
432
-1424
-880
-816
-624
1280
816
1488
-304
-304
288
672
-1488
-1840
-256
880
-496
-112
160
304
-592
640
1456
-336
-336
288
352
-832
368
384
-256
-768
32
-1104
-544
-448
-208
736
-384
-208
-816
-448
-864
-1616
288
1040
640
144
-208
-624
-416
-528
-64
288
-96
-1088
-512
-16
-864
-1824
208
784
-128
-1056
-1024
16
-1120
-1264
400
1248
768
-1008
-1648
688
336
1120
96
-1008
800
656
-192
0
416
896
864
656
576
-1072
-400
-64
-96
576
592
-224
96
656
1280
976
-416
-512
-208
-464
-96
-208
-32
-208
176
-368
-864
-160
464
320
1184
800
1648
-400
448
208
784
-176
-1744
144
1808
1872
-624
640
-480
-368
-112
368
880
640
144
-944
-944
352
560
96
-400
-624
224
224
32
-848
-832
-368
-176
-320
-816
-272
160
-144
224
1040
176
-1040
704
528
-400
112
-224
-864
-160
1296
320
-832
-976
-224
544
480
-128
-1456
-1776
336
448
688
-896
-1216
-240
-96
-32
-544
800
240
-96
1152
1456
1840
304
-16
176
-64
544
112
-304
-656
96
-416
-896
464
144
-208
656
1696
864
-112
544
-80
96
-624
-400
-192
896
1344
-160
320
224
352
-704
400
992
208
-192
-128
400
576
-880
-720
112
1536
912
784
1392
816
512
-448
-816
-496
1168
256
-752
112
32
-336
-384
-64
-288
-1024
-496
-976
560
320
-320
192
32
384
400
1024
-480
-560
128
96
384
1312
1024
352
96
1696
-432
16
-656
-1616
160
-784
656
784
-224
704
560
-496
192
704
-64
448
1056
688
-560
-1424
-1600
-1600
-640
-384
-608
-48
-544
496
320
160
768
-400
-640
928
-688
-1888
-1136
-272
-128
976
1776
1840
944
48
-512
64
640
240
416
160
352
896
464
736
320
-736
-560
208
-400
432
752
-96
-1104
576
1040
0
-256
-1392
-896
-2000
-528
512
-192
-688
-176
-208
96
-368
-224
192
592
288
16
208
384
160
448
-624
-816
-960
-208
-512
-1088
-496
-560
-752
-48
-1088
-240
-208
-1152
-1328
-288
112
-64
-1040
-672
768
352
-128
-1104
-944
-784
-176
352
496
-1360
-1472
-592
1376
624
-432
-1168
-1008
-1520
-1296
-864
752
496
320
1008
736
0
-496
-512
-608
-576
-1280
144
912
160
416
-448
-896
-928
-176
-400
-400
-224
-368
-48
-1040
-560
-272
-752
-1344
-528
-336
144
-208
0
-592
-544
0
336
240
48
-352
-464
368
-720
-544
80
992
240
-192
-160
-128
992
-432
-192
-1360
-784
-912
656
240
-48
752
128
-496
-1552
-1440
-1008
480
96
-1264
-592
-96
48
-368
-1216
768
-544
-1056
416
16
-336
-560
816
-48
160
1248
1216
-144
-864
928
-272
-1248
224
-400
-176
112
320
640
64
-528
-1328
-864
16
-128
-384
688
992
144
-384
432
-624
16
-784
-1376
-272
-640
16
-32
-736
-912
-192
912
1392
96
-256
-512
112
544
-128
832
528
816
128
112
256
-144
832
816
64
-256
192
576
848
1056
480
-1216
-960
720
752
144
128
-128
-512
-320
-640
-672
-176
-912
-928
-736
-1088
48
-256
-608
160
-96
-1248
-1104
-960
288
480
304
-1296
-752
-368
80
-560
-512
-160
-112
128
-384
-416
1456
-224
-816
-48
-160
-128
-656
-848
-816
-608
-1760
-16
464
-672
464
-144
272
1088
-816
-560
128
176
1200
352
-928
48
1456
32
-1280
-544
800
1184
-1456
-1312
-1312
-80
256
-608
-976
-544
-992
-1696
-656
448
80
128
-80
880
1232
1376
848
608
592
-896
-128
1792
1712
304
-368
-400
-384
-176
-224
-816
-512
-1232
-272
-128
-1216
-304
1712
1696
176
192
1072
-80
16
-464
128
-192
-96
-176
768
384
-160
912
-128
-640
-608
-176
512
-416
-16
256
1776
1216
560
1088
-528
352
576
256
176
-176
800
448
128
-144
-448
-16
-480
752
480
-992
-736
-128
448
-496
656
1552
976
-32
400
1328
688
176
-368
704
928
-336
16
16
-544
16
-592
-384
224
1056
672
272
-144
-608
-128
800
752
-64
-704
-704
-352
480
672
1136
112
-1024
-320
32
832
800
144
-656
256
368
-384
-272
112
-304
-208
288
848
128
-208
720
160
-1056
-992
848
-176
-96
1584
16
-336
-672
176
-1040
-1328
-1008
80
-32
-1072
160
1136
1136
16
336
-96
208
0
896
1184
192
16
96
112
-272
1312
784
864
1552
848
752
560
176
-160
160
512
704
1408
576
832
16
-816
736
256
-96
-304
32
-624
-608
-272
64
336
96
256
1168
-160
-304
160
368
-1440
-1600
-144
0
80
160
64
-48
528
912
-80
304
-224
-1312
160
912
528
-128
464
-448
-224
1088
1632
848
-192
-576
-272
288
0
-816
-80
416
-480
576
-608
-32
736
752
-176
-1120
624
1840
160
-592
944
320
-608
784
-112
-656
-320
-784
176
176
-768
-800
-496
400
560
-64
-320
-288
-848
288
-432
-128
64
0
-448
96
224
368
944
1104
464
912
48
16
784
832
-128
-112
-144
-64
80
-112
1408
416
1344
688
1200
1392
992
320
1312
1248
112
-416
160
368
-272
-592
-480
112
-112
-656
96
128
-832
-512
80
-1792
-496
832
864
96
192
-288
416
1808
1856
288
848
256
976
992
128
512
608
1104
512
1248
544
-160
480
768
336
-688
-992
-560
-1136
80
304
-416
368
944
272
800
1136
-704
-1744
-512
304
-528
-144
112
-224
-128
640
32
1264
-576
-1744
-384
-960
80
-448
-800
-640
-240
592
-240
-768
-192
192
800
-352
-176
320
-576
-528
992
1024
-560
96
704
544
-144
-848
-1104
-704
48
752
448
304
-80
-240
64
224
896
1328
160
-576
704
592
-912
-320
112
-352
1312
768
576
832
272
656
-64
-1008
640
512
-1600
-1344
-688
240
-544
-816
-464
240
1248
512
128
656
304
-288
208
304
-1952
16
-560
-352
-288
784
576
384
-464
704
-160
656
-400
-80
-96
912
-192
-1136
-1680
-1216
560
352
-128
256
1360
1040
464
192
-96
112
288
976
304
-944
-1280
-1008
-1168
-176
368
192
-592
-576
-560
-672
160
-384
-1152
-304
-768
496
208
448
-976
336
896
-240
-1584
-720
592
32
-352
-496
-32
-944
-1344
-576
-592
-816
-592
848
704
-1536
-432
-272
-816
-400
96
848
1616
656
-16
-256
336
0
-976
-1232
-672
656
-32
-1168
320
48
48
400
-208
-1136
-288
-576
-992
-192
-128
-224
912
144
-128
16
-448
1120
1584
432
688
144
-368
464
112
-304
896
-176
368
608
-320
-352
1328
960
112
-416
-640
-1120
288
-96
912
784
-464
-224
-288
336
-1424
-1200
-1024
80
192
336
944
-80
-560
320
432
320
720
320
-656
320
-96
144
944
-672
-1296
432
-256
272
1744
496
-880
-1296
-64
320
-480
-1664
-448
656
736
736
736
-288
-752
400
-176
-736
-1920
-208
-400
64
0
1168
1552
432
-768
-752
-288
1280
416
-832
-272
-912
-400
32
2000
320
-432
304
-1376
-1216
-576
-112
336
1600
736
912
-432
16
160
304
-672
64
-224
-1280
-160
112
416
-400
960
864
-256
-816
64
784
1136
-560
-736
-912
112
-592
-704
480
416
560
-80
1152
592
-1520
-320
1056
-208
-720
-576
-864
176
1200
-32
48
16
-720
-528
848
928
1136
432
688
1184
1328
448
352
112
80
-16
-864
256
1680
1776
-32
-752
192
1776
1616
-240
-192
416
-1088
64
48
-176
1184
672
208
-352
-144
656
272
-640
-384
-1152
-32
752
512
880
144
-272
-944
-608
-64
544
176
704
1264
688
-352
-368
400
-336
432
-80
-448
-1456
-336
1312
1632
1216
368
704
-432
-560
928
304
432
80
608
1488
1024
-176
272
1056
-32
464
352
464
176
1584
896
-1216
-992
368
-160
176
-480
-576
-928
928
-96
416
592
640
880
-464
-1328
-320
-144
-816
-1568
-672
416
-144
-848
-512
576
432
144
1472
-944
-1408
-608
-304
0
-1680
-1536
-64
144
-496
-864
-912
-592
-1504
-544
688
48
-880
-1168
0
160
-224
-832
-336
-96
752
96
-176
-752
-1264
0
-320
-608
-224
-784
-832
-576
784
464
-576
-1008
80
-64
-480
288
-928
-1632
-656
-1104
-1504
0
432
-80
-80
176
-816
592
880
-176
-176
1440
592
-1360
-272
544
592
608
784
-240
-256
608
736
224
-32
-592
-112
-528
576
1344
-160
-224
128
768
-192
-272
720
608
48
960
352
208
-784
-368
256
288
352
-1120
-1152
608
-432
-896
-1520
144
-192
-928
-592
-1200
432
528
384
-32
192
832
480
848
-768
-304
-560
-720
-80
-176
-384
720
784
768
864
-832
-560
-1008
-48
880
816
240
352
432
272
-176
80
-240
48
816
208
496
-304
-624
-336
736
464
464
208
768
624
-592
-1088
-560
-1120
304
-640
-240
1744
1072
-208
-1104
-1680
-816
704
1264
528
336
-1744
-880
-560
-704
-784
-1920
-448
432
-80
-592
-336
-512
-160
-320
-2000
-544
-1696
-864
-768
-1024
224
96
240
624
-368
-336
-512
480
-256
480
192
-448
688
560
48
304
432
880
800
-368
-752
-272
320
0
144
-464
1328
112
-240
-512
-672
-272
880
912
1024
560
832
64
-848
-864
-816
-112
464
-1152
-1056
1776
-48
-1056
-288
272
-320
-192
880
1696
1120
608
816
-224
-1264
336
-256
-32
-944
32
1728
-48
-592
-976
416
944
48
-208
640
-1168
-704
-48
-368
-656
-1632
400
432
384
608
32
-240
240
672
-432
432
1840
112
640
384
-1216
-560
560
-464
-256
304
432
-544
-32
-512
192
720
512
480
592
560
-256
-1024
-912
-480
-320
112
-1056
-16
-240
-1008
-160
-1072
-496
512
176
-448
-896
-1104
80
48
-656
-240
1008
160
-1344
-688
-208
-720
208
224
592
1648
720
-384
-1040
-1088
-464
96
416
-160
-16
1696
624
-592
-608
48
864
976
512
400
-128
0
1760
1200
560
-656
288
432
-208
304
-192
448
0
-976
560
1120
-272
-544
-1232
-880
560
496
-960
-464
240
-368
-256
-496
-96
16
112
192
224
-448
-416
112
432
816
832
-720
-384
-1248
-912
-192
-544
384
-272
192
-1072
-448
48
736
544
64
176
-80
-512
-1200
-144
256
-768
-112
-240
496
656
-32
-288
-1488
0
-1168
-1184
-720
-128
-272
400
336
416
416
928
1200
-48
-144
240
1040
752
864
96
-48
-544
-560
-640
96
928
336
800
176
608
192
192
656
-512
-752
560
656
688
-320
-256
1200
-128
-1248
-1584
-816
976
624
-272
-1056
320
1120
864
832
1120
1104
-160
-464
832
1296
-64
-640
-928
544
976
128
-1600
1472
16
480
928
304
-48
-112
176
240
160
448
80
608
1616
1648
832
992
880
352
-544
-480
-384
352
32
288
-80
-416
48
-336
-1760
-848
-240
-176
1632
928
-416
496
1328
-48
-224
-560
-400
-400
-1520
1312
976
304
-384
-608
48
-160
-784
288
224
-48
-48
496
-144
160
-480
112
-1072
-1088
272
-48
-352
112
-256
-416
-112
320
-1072
-832
-512
-416
-672
-1040
-576
-464
384
-288
1136
-112
560
0
224
-800
800
960
624
608
-128
-96
-624
1360
-64
112
48
320
-768
80
-624
-128
560
-64
-400
-944
-576
32
-304
-784
-496
944
1584
-240
-656
-960
0
704
816
-880
-144
-896
-1488
-1696
-32
384
-640
-480
64
-512
1024
1024
112
48
-96
-288
-704
-720
784
1104
624
304
-1216
-480
-992
336
304
1248
-576
208
-432
32
1008
256
464
-144
-304
96
-160
400
-640
-272
-1168
-912
-448
-176
-576
80
16
1248
-16
-352
768
624
992
1648
464
-832
-480
1312
1616
1456
336
-288
-720
-48
960
96
992
352
368
992
352
16
-656
-176
-896
-256
-400
-784
-512
336
-400
-432
96
-480
304
-672
224
16
-176
-1376
-1200
-208
528
160
-144
-1248
-864
-544
-1280
-528
1216
1632
304
1056
-704
-592
224
-176
1248
1200
304
496
592
96
-576
-224
-1312
-720
304
1040
896
-96
-736
-176
704
336
-528
112
496
-432
-976
400
48
-272
480
-1120
-208
176
688
512
16
-640
-1184
-240
560
1520
1104
-848
-1440
-1328
-352
16
-16
96
704
1072
816
0
-1088
-1296
224
240
208
-320
-192
512
-272
-752
448
32
-144
96
656
-32
576
-240
-1968
16
416
128
320
240
704
624
-1312
-496
-416
-848
-448
528
768
800
288
-16
304
304
-416
752
144
112
-592
-160
320
64
448
-320
0
-496
-1232
-1040
-1536
672
1536
-272
416
864
1296
736
848
48
-864
-192
32
816
-176
-336
928
864
1968
480
-1312
-240
-640
-288
-544
-272
560
880
64
640
192
480
-576
-1184
-544
272
960
-128
-752
352
-528
752
736
-1200
-240
-336
-304
416
-672
-736
-896
-656
-400
-192
336
608
-176
-368
-80
224
-288
592
1024
1200
224
16
816
1792
1632
640
128
592
656
112
16
-176
592
1616
352
96
1376
320
-304
224
528
-560
-592
400
240
48
560
1968
1552
112
-16
1072
1232
800
144
-768
-688
-832
-1472
-80
1008
1648
720
-624
-192
-720
112
-112
384
-1008
528
1168
-1136
-1600
-736
-48
-560
-768
416
-672
-1680
-992
-64
96
1152
64
-288
-1008
-1536
-512
128
352
816
-144
-688
-416
-208
144
656
-480
0
400
-912
-48
384
-128
-1520
-1136
-912
-624
-848
-304
368
48
-416
-192
-1216
-480
592
-832
-192
-800
1360
336
-464
-848
-592
-1152
-144
1024
-64
-400
-48
688
432
240
-80
640
736
272
-32
-720
-1920
-640
-96
560
400
-224
80
384
-368
-752
-608
0
576
-816
-1328
336
352
-272
-816
-704
-928
336
-224
880
1136
-608
864
-64
-1184
736
704
-480
-736
656
784
-112
-1104
496
1024
832
656
-832
-256
-304
0
-1376
-1648
-672
816
816
832
384
-48
288
528
-768
160
320
-528
656
336
-1008
-32
720
912
1296
688
256
-128
-416
208
448
-1200
464
-544
-608
-640
224
0
1168
704
-624
-368
-1376
-1168
-304
-640
-912
-1088
-656
48
-1152
-1600
-624
112
-320
144
704
-128
880
192
128
-576
48
480
-384
192
144
-816
-480
-384
-112
48
-272
-192
-288
-416
592
-32
64
688
1168
1232
656
480
368
-64
144
416
304
224
-128
-560
-368
-496
624
448
176
816
128
-352
-1056
512
-32
672
1088
48
320
592
432
-176
64
-560
416
112
304
-1184
640
1088
208
768
64
0
272
192
-672
-688
928
528
256
-800
704
1392
240
1056
192
-528
-848
-1808
-1600
-1360
-864
-576
1296
1040
-624
-752
-288
-64
-1264
-912
944
112
-64
928
368
336
144
160
-96
576
-736
-224
192
240
-224
624
144
80
592
128
-384
-512
-176
-16
-576
-160
-240
592
1712
672
-336
-368
-544
-1648
-480
832
976
-512
-256
-720
-784
896
144
144
304
-528
-48
-1200
320
128
80
-592
-560
80
240
-1312
-848
496
272
-928
-528
-1104
528
240
-352
-1056
-464
-352
640
-320
-832
-960
416
720
-480
96
-384
-1024
-64
-1264
208
-80
384
512
1040
-288
304
1280
592
-1232
-576
-1200
-672
384
1040
1584
656
-736
-1008
-1088
-720
-672
-1056
544
-176
-160
-288
-224
-1216
-416
-96
112
384
896
1408
288
-288
128
1152
752
880
1120
-304
-656
208
1040
-464
48
128
1712
-176
-1280
-1024
96
592
128
32
-496
-80
112
80
1104
656
1056
1520
976
-96
-384
304
144
1056
-32
-144
720
1408
-1168
-160
640
-624
-128
688
496
-320
-784
-704
368
1600
176
-1392
160
-352
592
1488
1072
624
464
-1360
-704
-176
528
0
-384
-1216
-1008
800
-112
-432
-176
48
640
656
352
320
-768
448
1184
144
464
464
224
-96
592
1072
1152
-160
720
592
432
304
-240
-48
176
-768
-1632
-640
-512
-64
112
1120
1264
704
560
736
48
-208
-112
400
1120
-464
448
1312
-912
240
608
-576
288
608
-48
-160
-1424
144
576
-272
208
-656
-768
-256
-144
80
784
192
-1008
-400
-528
-144
-1024
352
64
-752
-560
-1024
-768
-336
288
-256
-336
-1184
560
64
448
-400
1008
128
-592
224
720
416
784
-672
-848
-800
-320
-144
304
-208
80
-528
-1024
-432
-464
-1136
80
-352
-800
-528
0
1200
672
-96
1872
1152
464
80
-592
-352
656
-464
-144
256
-96
144
608
-400
704
816
192
-320
-128
-96
352
672
-896
-416
304
560
1056
672
-336
-528
544
816
1184
368
-176
-304
-64
-656
-32
-288
-592
-432
-464
-416
-208
-528
880
240
-224
240
-992
-624
288
48
208
-336
400
-752
-560
80
-336
-64
400
560
464
-960
-976
-64
768
-640
256
128
-336
704
1280
1344
400
-112
-944
-496
144
608
-32
-32
-1136
-832
528
-592
-1376
-64
128
496
320
176
464
-1120
-1328
-672
288
-1696
-848
432
1552
640
-224
512
1696
1584
864
-176
-352
224
320
-752
-224
-1648
-624
-64
400
192
-1056
-1392
-1248
320
128
-608
-368
-720
352
704
-512
800
1360
512
-1168
-1136
-816
-1504
-384
-736
-1040
-592
-1136
-160
-128
512
736
-192
-1760
-1216
640
960
-80
-1440
-1072
-192
-720
-736
-1216
-368
288
-384
-64
-1200
240
-32
-576
-576
240
-208
256
320
-288
496
1168
800
-192
-544
576
384
-16
-48
736
-128
0
-1664
-1504
400
-272
288
1072
-816
-240
272
368
16
-384
-80
-848
272
-336
-832
-880
-640
-1232
-1296
-64
-112
176
1728
384
16
224
-640
-976
-1168
-256
256
-752
-64
-1216
-1888
-928
-16
-576
-512
880
1136
336
-416
-432
-1088
512
1056
-96
-384
-224
-1152
-640
-272
64
848
432
864
-704
496
192
-80
-320
-1008
-224
432
32
32
208
624
1616
784
-1360
-432
1088
464
-448
-560
-352
-48
-288
-512
-624
864
128
-368
640
128
-864
288
464
272
-736
-608
416
432
1008
240
816
48
-1088
-272
-752
-192
-368
-336
-112
16
1120
752
-736
-2000
-1184
-336
400
-96
-1200
-928
432
1296
560
512
784
-352
96
-208
-416
608
784
432
-480
704
1248
288
464
-112
-896
-1952
-928
-512
-1904
-720
544
352
400
-1520
-1216
336
768
144
608
-448
-624
-160
240
-528
1232
1104
320
1248
1120
400
240
400
976
464
-560
-256
-400
368
-192
928
-64
-384
768
528
-1024
-32
-736
-1504
544
592
-400
-1024
-1296
-1120
0
-544
-688
-624
352
128
-64
-448
-944
48
1296
992
640
-144
1152
336
-608
48
768
704
1440
480
160
-448
-1056
-1696
-816
-944
960
656
-1072
-976
368
-480
-512
-1232
-352
-96
-64
384
-1008
-1184
-992
-432
560
-192
-48
-288
-768
-1216
-400
624
-624
-128
624
352
208
368
-96
-1200
-208
-1616
-48
-720
-560
832
1648
1248
1936
1328
752
-128
528
-960
-1184
-16
848
-64
-272
-288
192
-416
-144
-1440
-304
-288
-448
560
528
-896
-880
-864
-496
304
-624
-960
-768
-704
352
-112
272
928
320
272
368
720
640
256
-1040
640
176
496
256
-48
464
880
-480
-448
-816
-1520
-960
464
-336
-432
560
272
128
304
160
368
-416
-112
16
896
-400
304
-128
160
1328
32
496
-768
-1808
-160
672
1808
672
-704
-496
224
-784
-672
1040
1328
1008
608
848
512
-432
0
288
48
-704
-400
-1600
-192
-16
-144
-32
464
400
1408
1104
208
496
1056
400
-1568
-1200
176
-1056
-1216
400
688
-688
736
592
912
368
-480
-400
-1136
-480
-32
-1024
-736
32
-496
-32
-576
-496
1088
528
-432
1072
768
384
-512
-304
-656
-496
-1152
368
752
-640
-448
-1056
352
336
-528
320
1232
176
-128
-784
-1216
-880
-224
-256
-128
192
480
576
-112
-1664
-336
-240
400
464
-160
128
0
720
16
192
-1632
-464
-432
-448
-1200
-1280
-144
-432
-1072
-192
-432
-1712
-880
-64
1168
1792
720
368
-1408
-176
1008
336
-512
288
-944
-336
-32
336
448
-400
336
-528
-1248
-320
368
-48
-800
-400
-256
-192
0
688
-208
-1488
-1360
-688
16
672
704
1216
-1584
-1088
-352
-64
-304
-576
368
1456
176
-848
-768
880
1680
864
-320
1200
224
-336
912
1312
-16
352
960
624
-320
-496
528
720
-80
160
320
720
-400
-480
864
1152
896
128
-80
-464
-1472
-256
1664
-320
-144
736
672
640
1360
0
-784
0
-928
608
736
912
-256
-288
304
320
192
64
144
-464
512
1200
560
-288
640
-48
-464
32
960
-224
112
-784
-448
-272
-1008
176
560
800
-1008
-544
1632
1280
-944
-432
272
1008
656
-320
-944
-272
576
128
1296
272
-144
-512
320
16
-64
64
-192
208
848
0
480
752
608
1472
1600
-96
560
1040
-32
464
864
944
1328
688
-976
-704
-464
-224
96
-128
-80
256
-192
928
240
352
720
656
-304
-976
-16
-400
-208
800
592
656
-320
-576
160
736
256
-416
256
-544
224
-544
1344
672
512
880
16
-208
480
-96
1504
1728
224
-320
832
-800
-16
672
816
176
-240
464
464
-1088
-560
208
352
48
768
-16
80
384
-352
160
-592
608
1424
896
16
-512
-384
-864
-784
-176
-320
-752
-304
-384
-256
32
176
-496
-736
-768
-432
992
432
-96
240
-800
96
-224
208
576
128
832
512
-48
-800
-640
112
-256
-80
-496
-272
-208
-32
112
1632
1248
1040
48
656
1744
928
1104
576
-1728
-1856
256
608
720
592
-272
-1120
144
992
144
-736
-128
304
512
192
-624
-720
-1168
-1120
-1424
912
16
64
1008
1152
208
-656
544
-80
-496
-1312
-176
240
976
0
128
-256
144
-240
1744
752
544
1040
-1248
-752
-720
-128
352
160
-16
544
336
-32
-384
1152
-1072
-1264
960
1312
928
848
288
256
720
144
-384
928
272
1104
1728
-960
-1056
-1664
256
-448
-1456
-48
240
464
-48
-752
176
176
944
96
-64
400
-352
-1104
-64
800
336
-784
-448
-128
736
800
784
592
-112
-1776
-1408
96
-272
-1280
-400
-672
96
1136
304
464
-112
-688
-400
-1072
928
992
-1680
-1120
-48
-912
-880
-592
-576
544
464
-320
-240
-112
-32
-800
-352
944
528
704
928
-144
-384
720
1520
1392
160
-816
-224
-544
80
1264
112
368
304
336
1168
1104
-288
256
96
-784
-1264
-784
-176
-736
-576
-912
-512
-1232
-672
32
-1168
-176
-304
64
-816
432
-272
-608
32
-1296
-144
-768
-64
704
2032
272
-64
336
304
-480
-656
-464
752
1536
96
-816
16
-736
-112
832
624
-128
-112
992
1216
944
-608
176
848
-16
128
352
-608
-784
-144
-160
-576
352
896
16
-416
-192
752
1856
64
-32
-960
-368
-272
-768
-512
-1088
-272
128
-272
-48
432
-240
-672
336
-704
-336
-608
-304
336
-656
80
-400
-528
-272
-1504
-1360
-992
-16
-144
752
1264
-272
-1632
-1408
144
-720
-1024
-1520
-624
304
-176
752
304
-64
1040
896
1040
816
256
272
-464
-912
128
0
768
-400
-128
-1280
0
240
-528
768
-640
720
-752
304
656
160
-720
-1264
128
1008
1536
-160
112
-560
-32
96
960
-32
-304
1392
1456
192
560
976
608
-128
320
272
-368
-576
-1392
-576
-864
-1056
-16
736
-896
-256
-336
-720
576
-704
-144
-576
-848
304
272
-480
-336
64
-640
512
-16
-176
416
592
160
752
672
192
880
656
-576
-192
-672
-768
-1280
-784
-1296
16
-16
-464
-384
112
496
-96
-1136
-208
-336
-272
-128
1024
-96
720
496
-48
848
1392
1200
-416
496
32
-368
1120
64
496
-1888
-1536
-704
-400
448
160
1312
592
-256
464
-336
-992
496
1296
-400
-96
672
208
64
16
-192
272
752
512
464
336
-400
-144
-224
-704
-1200
-800
-240
480
896
1568
-544
-656
-352
592
640
-560
112
-896
-496
-288
432
208
528
-224
672
320
1040
512
-720
-720
-32
-1152
-800
-1376
208
-96
-160
-64
560
-752
80
-512
-192
-592
160
208
240
-592
-944
-1408
-1440
-704
992
1792
192
80
416
-256
-1008
16
-256
128
-528
-320
-48
592
176
0
-160
-432
512
-272
416
-224
768
320
928
-848
208
-432
-736
-1616
-800
0
400
560
-1216
-304
80
256
928
864
-256
416
48
16
624
1056
-1088
-608
-160
-16
-1136
-1888
192
-528
-256
-1536
-160
-112
-896
-1280
-1120
160
144
-1040
-96
656
992
1328
208
-1008
48
-608
-272
608
880
240
800
608
-624
640
48
-480
0
-912
-1280
336
960
16
-240
400
160
-16
-928
416
-64
992
832
-32
-832
-1008
-848
-224
1056
-304
-1168
-816
-1440
-880
-80
-752
-736
288
304
-816
128
-800
-1312
-496
64
-256
-112
0
-240
-656
-992
-384
-832
192
528
-416
400
-304
-224
16
-192
1232
624
512
-400
336
592
176
-16
720
400
-1024
-624
-64
560
-144
-272
-304
-304
368
752
32
288
624
-176
912
-528
-320
-448
-48
688
1200
576
-320
-256
336
512
0
-848
560
560
1392
1696
1568
176
-416
-288
320
1040
1056
624
832
304
1152
192
-496
1040
1648
576
-416
-912
-656
576
-240
-848
480
656
880
656
224
896
464
48
528
224
864
752
80
272
592
16
-944
-16
-1136
-928
64
560
224
352
-304
-320
-976
-1264
-688
-368
64
224
1184
848
944
704
368
-368
-464
-896
-208
-832
-832
592
288
-832
-384
-144
688
-288
-640
640
1648
-528
176
-704
-1040
-608
224
1296
848
480
240
416
1456
1392
192
-384
-544
-240
256
736
672
1536
672
-1072
-1392
-224
80
272
-432
-784
-16
1264
320
-176
160
720
-80
832
848
-16
544
80
-1344
-256
-304
-1248
272
944
752
608
32
-288
-160
-448
576
496
144
352
240
-320
432
64
-16
-1216
-576
512
-64
672
1184
656
-320
-944
-1568
-80
912
416
608
-96
-320
-1104
32
336
608
-48
-1216
-1040
-1024
-1968
-1504
-608
-1312
-160
-240
-288
-912
-624
-144
176
-912
-160
-176
-400
352
-320
-640
-432
-128
-496
80
32
48
-768
-880
-576
528
-960
-896
80
64
-368
-688
320
-160
-896
-352
-112
-224
304
32
-48
464
-176
-128
688
272
1072
96
272
976
960
16
-160
1200
800
784
576
848
-160
-1104
-208
-720
-320
-112
-864
-592
1184
1344
224
1232
-224
-352
-656
-464
256
1184
576
-384
-288
-224
-624
-64
1456
1616
1568
192
256
-192
-608
512
1104
784
336
480
320
944
-448
592
480
416
1456
-416
-1360
1168
688
-512
-912
-416
-304
-320
112
672
416
816
1440
1104
-416
-944
-240
224
-48
-368
-144
912
528
-64
-80
-288
-240
-128
-48
-672
-368
400
752
-992
-512
704
896
416
-1040
-608
112
-1056
-256
128
-64
-512
1360
1744
144
-144
480
800
1312
-912
-1392
336
304
-272
1584
1456
272
-384
-272
64
-320
-1088
656
576
144
640
1312
1056
368
320
528
464
480
736
176
368
448
1040
-224
-736
-944
-496
-48
224
752
640
304
784
32
864
1456
784
384
-608
-528
432
-112
432
304
-368
80
-496
-656
-672
304
768
592
-416
32
1520
816
1360
720
-272
-176
1024
1440
80
-144
-16
-432
-368
-736
48
-800
-1488
-48
-656
-400
-320
1664
1776
688
208
256
656
0
-672
576
1584
-320
-624
-752
-208
0
208
-368
1008
336
992
320
-752
-1408
-400
-608
-592
-512
-1072
32
1408
800
352
736
-528
-1952
-1120
-304
256
448
80
720
800
1472
928
112
752
656
448
-368
592
624
512
-160
-1232
480
64
-1152
-1024
0
-112
416
1920
-48
-768
384
-144
64
1088
1440
1120
1008
-432
-384
1376
-80
624
784
-784
-976
-560
576
-64
-304
-304
-480
-944
-752
-656
-208
-1440
-352
-304
-672
224
16
-80
-928
-368
-160
-640
-848
176
336
368
336
-720
-1136
-80
992
256
-32
-432
-1024
-400
128
384
480
-448
-1376
176
880
1088
128
608
400
896
64
48
-480
-368
-464
-336
192
336
-128
-80
1024
496
-384
304
624
-64
-160
288
-704
256
48
-1152
-1040
-608
-16
1040
864
592
752
1024
-64
-560
-368
-128
512
-272
-560
80
176
-448
64
400
-464
-1024
-208
496
-560
240
144
0
-272
-944
-224
944
1376
-256
480
-656
-768
-1088
-544
1008
1200
176
16
1248
112
-400
208
0
-112
928
1376
1296
224
-2016
-624
48
-1472
-1168
-336
0
624
608
-784
-112
880
-544
224
-48
-592
-80
-992
-1024
-1408
-256
240
800
-832
-96
1040
256
-80
-112
-144
-704
-608
-304
-160
-1088
80
-736
192
864
672
128
448
-80
448
496
-176
-1584
-1056
176
912
-560
-848
256
16
-656
-320
-656
624
-704
560
544
-256
-224
64
-848
-224
-496
-384
176
1232
80
32
-576
-1616
-1232
16
96
-240
-256
-1072
80
-1376
-944
-144
-752
-1040
-240
960
1392
704
-144
-1248
16
-80
-720
240
16
-352
-544
144
-432
-128
384
400
752
32
32
512
208
32
-640
-112
480
1120
-672
-1232
-528
-208
-832
-992
80
1424
1488
416
-128
432
-304
288
-384
80
-1008
208
1008
240
160
80
592
496
272
-448
-624
-512
-1248
48
-608
-48
-784
-80
96
816
848
304
-128
160
432
-704
-672
-352
704
368
-624
640
608
256
0
-96
464
112
-672
-624
-80
656
-496
-288
64
-384
-1120
-32
-928
-1056
-656
336
1024
1872
1248
1024
1968
992
-304
-80
704
80
-896
-912
-352
-288
-384
-848
-160
-960
-672
-480
-800
-768
-256
112
-256
-32
-400
928
992
-576
-1552
-880
-336
-928
240
-16
-1024
112
816
736
1712
336
-560
-560
-768
-816
-352
-1328
-352
-1136
-736
-1056
-224
1296
1536
912
176
432
464
-416
128
192
-624
32
-64
-16
-352
-112
48
256
-48
-656
-272
1216
448
880
1216
48
-720
-752
192
896
1168
1808
-368
144
-32
144
848
464
-432
-1168
-464
-112
-224
304
384
1312
336
-208
48
-656
480
528
-384
-912
-240
-1008
-1632
-64
-176
-112
-544
-256
-256
-704
416
304
288
-208
-720
-768
144
-176
784
944
16
432
1168
-144
160
1488
1136
928
768
416
-368
-640
256
464
256
-496
-112
-656
304
560
400
448
432
-416
-928
-80
-144
-912
160
272
-32
-816
-288
544
-80
-432
160
160
192
-1040
-704
-96
448
1104
1408
528
400
864
960
528
1024
896
32
-224
-288
976
288
-528
-320
-592
-992
-256
512
1568
1136
512
-240
-96
-1456
-864
880
528
496
-448
-112
480
256
576
-32
-1696
176
976
1056
-16
-96
736
1616
320
-48
-304
336
816
320
64
-992
768
672
0
-144
528
-1664
-288
400
-688
-544
624
-256
1136
624
800
192
-400
-560
-32
-592
-192
-864
-16
704
480
368
-736
-1104
464
-320
-768
384
288
-800
-624
672
464
160
-16
320
-848
-912
64
-1856
-864
352
1312
-208
-896
-1312
-1552
-1920
-752
-704
-816
-608
-64
784
288
80
80
-176
-992
-304
-400
-688
-112
-192
416
-976
-496
-32
-432
96
784
-576
-960
-736
-656
288
368
816
1264
1392
320
-736
-1120
-208
-80
704
1152
-352
-800
-448
-224
-592
368
976
928
336
-1088
-1504
-528
64
64
704
-272
-80
352
1024
-448
336
224
-48
-576
-1056
176
-32
624
400
-880
208
208
1248
672
544
832
576
-112
432
320
784
-160
-560
-512
-176
-80
-528
608
32
64
416
640
-288
-304
48
-512
-528
512
48
-320
224
112
784
672
672
64
832
1392
736
528
336
112
-704
720
512
144
672
-528
-416
-688
208
912
144
0
-144
-1120
-208
-1056
528
608
-16
816
416
464
-416
144
288
592
1136
672
-144
224
-320
-1120
-1152
-592
-64
-304
-128
176
-272
480
16
-144
688
944
944
-576
-1184
-128
-528
256
-1216
-32
-1664
-528
-656
-1392
-640
816
-320
-480
624
-304
-752
-1344
-400
416
1104
400
1792
80
-224
752
656
208
-160
304
-720
-960
-32
32
-1328
-640
480
-432
-960
-288
16
160
256
64
-1248
-464
400
-176
-96
1600
1376
-160
96
528
752
816
48
-992
-1168
-944
-80
-560
-256
-816
-880
-48
128
304
-1568
160
144
-1104
-1104
-816
-528
-224
1120
400
16
-112
480
-112
16
352
752
-320
-1216
-320
-608
-1568
-1680
-592
-176
-656
-416
160
944
592
-1232
32
-352
-256
-656
-336
-368
544
-352
-848
656
912
192
608
992
256
640
1248
1248
1456
-128
-1168
192
1264
576
368
-176
-736
-64
-720
-1104
-1088
192
1200
-784
-256
-480
96
-768
-240
-16
-608
-160
896
1168
-352
-1264
-112
0
1712
1120
1568
-144
368
-560
-816
-144
-1872
-544
32
112
16
-416
-560
-624
96
432
816
32
256
1232
784
-704
-1488
-1696
96
1168
928
288
-288
-816
-1008
-752
800
736
544
400
240
1488
1488
-224
-720
-432
-768
368
1136
144
-400
240
32
368
528
-304
-928
-752
544
1152
-832
-240
-160
-864
-448
-416
288
256
688
1216
608
-320
-32
-768
32
288
-496
-864
32
704
672
48
-288
-64
720
848
-80
624
1488
-256
80
-304
-512
-288
-592
-480
384
224
-96
800
816
-208
160
576
-1136
-32
880
64
-912
-96
864
496
-64
-400
-144
64
-368
-656
-656
-352
-816
-512
640
1008
320
-48
1344
16
-112
-736
672
976
528
-992
-672
-64
-64
64
-64
-304
448
-80
800
240
-336
448
128
-544
-1440
-832
576
-160
-1408
-368
336
-480
384
224
-144
944
-1392
-704
-576
32
-48
864
-112
-48
352
-48
-1072
-784
896
992
160
-864
400
288
960
608
-48
448
976
1088
1040
-128
-432
112
-704
-1344
-1088
-1328
-768
-656
-944
-480
96
-768
-368
-704
-480
-1536
-1200
-416
-1232
-896
-416
-384
-448
768
112
736
400
-432
-224
-176
-48
656
-528
416
624
688
-1024
-1360
752
1296
832
336
1056
-208
-912
-32
-592
-144
432
-464
160
656
-528
-320
-704
-128
416
864
1152
704
-96
80
-208
144
-384
-1472
-992
-1344
544
416
1232
960
-1040
-944
144
-464
240
-224
336
800
944
-560
-192
480
-336
-896
512
1152
992
-96
80
-256
400
880
32
432
192
112
832
96
-288
-48
240
0
0
-1328
-1072
-1376
256
912
-176
736
16
64
-176
-160
-112
-336
-896
-1152
-992
1264
-320
-896
-368
-240
32
576
-1056
-528
-576
496
1088
-208
496
-80
-352
304
208
-416
-64
672
-960
-240
0
-448
-1136
496
-384
112
-512
-384
-320
-800
-416
-16
-944
-240
-208
-112
176
-416
144
304
1568
112
-96
784
-384
-64
480
-624
-864
256
176
-32
-192
416
1392
-224
320
192
1696
784
-336
-256
1168
144
-32
-512
-1104
-112
-192
0
624
1152
-784
-1280
-368
-48
-1184
-656
-640
-176
432
912
896
912
944
560
176
-800
400
-480
-768
-752
-1024
-496
-144
352
-640
16
192
-1456
-304
-416
240
784
336
-64
400
960
592
-16
448
0
-768
-992
-80
1232
528
-48
-304
288
448
64
-240
480
736
-1024
-416
-80
-816
-224
64
-432
272
-80
240
-272
-1344
-1056
64
992
1680
1664
976
192
-448
960
1264
960
912
432
-32
-64
-736
-336
-320
-512
272
928
688
-112
624
144
-560
0
-720
-16
-368
288
976
960
-16
480
1152
-832
-1664
-1280
-176
928
1136
544
352
816
560
-144
496
1168
560
640
-608
-1248
-608
-880
416
256
-720
240
80
784
-656
-896
-368
464
-288
112
160
400
1728
432
-720
-960
0
1856
992
-48
-224
-544
928
-368
-1024
-80
-1648
-1392
-1728
-720
608
-240
-256
-368
944
912
464
-368
-1168
-544
-1040
304
1248
1072
-448
-688
-576
-224
1392
-560
240
640
-608
-592
-784
1024
1088
256
496
960
656
-368
-816
1088
464
-1024
336
1040
480
496
-176
-256
-400
-1984
-1856
-1760
-1056
-1280
-1472
448
464
-80
96
-656
-320
32
-80
1056
640
384
144
-960
-496
480
1056
1824
1392
-144
512
-448
128
480
48
-768
-480
736
-224
128
496
1648
576
-64
-1488
-1568
-496
544
320
-80
0
-272
-1728
-1216
224
-992
416
832
-736
-976
-48
-928
-16
-736
-576
224
384
-1168
112
864
528
448
192
-16
-160
288
-640
192
-160
-784
-480
-512
-496
-656
0
-320
112
816
864
576
-192
96
496
592
-1456
-1056
-1536
-816
1040
352
-1024
-1456
-1600
128
-736
-768
-880
-1344
-448
-704
-336
224
-528
-768
352
-96
-320
496
288
208
-672
-32
640
96
-48
976
400
336
480
1088
0
-128
720
208
1184
560
-288
592
32
256
704
-16
-768
160
-224
-1120
-720
-240
-800
-528
-400
-656
-512
624
192
224
144
-656
-96
224
1296
576
-96
544
1008
1152
1376
880
160
400
-352
-96
272
-160
-752
768
-528
-1200
400
544
128
224
944
448
-592
-896
592
-240
32
-880
112
160
448
1680
1600
368
-640
144
-160
816
912
496
-64
272
-544
-768
-48
832
800
1120
192
624
672
896
1024
336
-192
-352
-400
-368
-432
-512
-560
-192
416
272
-384
128
-16
-560
-352
-96
384
864
176
352
304
0
256
96
848
-528
-592
160
192
-608
-864
-192
560
752
-880
-192
576
-128
-272
-1072
-128
736
64
-176
336
-144
496
304
96
368
720
-400
384
-224
-832
320
240
608
864
1056
1248
-16
272
-528
-832
-896
96
-496
-992
-1168
-560
-832
-1456
-256
-1456
-16
256
272
-192
-1136
1216
1232
128
592
704
416
-1152
-512
448
-1024
-528
-224
-992
1072
1264
80
416
160
240
-512
64
-624
-464
496
368
1136
768
-992
-128
-416
-416
512
592
288
624
960
320
464
320
-272
-176
-208
1008
944
-80
96
-688
-1136
-96
-1216
96
400
-384
-784
-176
-832
144
-80
-272
-1296
-432
208
176
288
-48
-240
-336
-1040
-752
512
128
368
400
656
304
1120
512
160
688
-512
-704
-336
-640
672
1088
160
224
-64
-272
1184
656
-256
-352
-368
-320
160
-48
544
-448
-64
-112
-880
-896
688
320
-240
-1344
-1344
-192
-320
-224
-144
-752
-16
-944
-368
-608
-1376
-256
624
-720
-1152
-368
784
-448
-192
-448
-608
-960
-592
304
-464
-48
-1408
-1440
-224
-112
16
336
1104
240
880
896
-80
-240
1280
720
608
-320
-496
-848
64
912
-32
-1104
-304
880
-400
-576
688
-16
48
1104
864
1344
352
176
560
160
160
16
1312
352
-352
880
16
272
640
1152
944
1408
-656
-1456
-1136
240
528
640
784
16
-240
352
-640
-80
64
752
544
48
-1168
-256
-160
-448
-1040
-672
-640
32
-912
-1088
-608
-1152
576
560
-768
-64
496
704
1728
1216
560
-720
-240
208
-736
-848
160
320
-112
1088
992
352
768
272
752
576
64
-720
-768
-1936
-336
-784
-688
-640
-256
352
-848
336
928
864
64
-80
-720
352
1456
1632
-144
-672
160
-432
-368
-432
-192
-816
-1216
-1280
-976
16
176
176
336
-832
-800
-208
448
400
144
-288
192
736
320
784
96
128
1040
-176
624
576
-320
-272
-640
208
-176
480
-400
-1568
-1952
288
1424
160
-432
-304
144
464
80
1648
528
-608
672
-16
-352
256
-1488
-1632
48
-1584
-1424
-592
688
1264
464
-112
848
-560
-736
-1440
-1248
-480
-416
-800
688
176
384
160
-400
176
48
0
288
-112
272
-304
288
-240
-640
592
1968
960
512
-448
-464
-464
48
832
48
-704
-1696
-32
1184
-32
-160
768
224
-1488
-304
-992
-1040
-128
672
-176
32
1008
384
128
1088
-192
-416
-144
-320
-288
-1216
-928
96
688
-160
144
-272
304
-272
-672
-192
-576
-48
1088
-240
-544
-320
1424
80
-128
208
704
768
-704
-112
560
224
1744
1168
672
640
512
-160
16
400
-240
-496
-960
80
1168
1440
48
-752
1328
224
848
1232
352
-288
-1424
-1424
-224
368
912
-224
-672
-288
-160
-1184
640
1392
1776
-656
-960
-208
512
-224
-464
-192
720
-48
-272
160
384
-528
-848
0
400
-400
-528
-240
-528
720
288
480
656
-32
-1696
-64
192
0
1616
880
656
656
496
640
-160
-208
32
-576
320
-512
-48
368
-1920
-352
-1232
32
-720
-1008
-2032
-1088
-320
-144
896
480
528
32
-1104
-272
-80
32
544
976
848
-544
-1152
-880
48
-576
144
304
272
-704
-512
1088
-128
976
592
-32
-704
-1632
288
1392
1744
1584
176
672
880
416
736
-832
-240
656
-880
-1184
-1104
192
0
-928
640
336
-640
-176
-160
-1008
-64
-480
-1440
-864
-752
-96
160
1072
1680
448
-112
-736
-272
-240
-256
160
864
160
304
352
-240
-448
-240
1024
512
-304
112
1168
192
976
224
-1040
-144
432
-1040
112
1584
1792
-208
-432
1168
288
560
272
-432
288
-336
-96
1600
992
592
144
768
-368
-288
320
240
704
-256
-256
-16
240
752
1296
-128
128
-608
-48
-640
-400
256
-240
-864
-880
128
-624
-768
-1600
112
912
1072
1808
1008
784
-912
-1184
-768
208
-112
-80
-1152
-1472
448
1184
-80
-64
-96
-640
48
-608
-288
736
864
1136
1712
432
-1152
-1024
-48
0
304
-304
-816
-112
560
368
-368
-768
240
1120
-160
-1040
496
-256
0
-1344
416
-464
-1280
48
1264
-928
-2032
-1072
-720
-336
-480
-608
-240
512
1264
384
-192
352
-240
976
896
512
-32
-880
-1008
336
176
400
864
1088
-16
-608
128
1280
-384
-1120
176
992
752
-880
-512
-752
176
-496
-1216
-320
0
-832
-832
-992
-208
-464
144
16
-384
448
1728
672
1152
-80
-1280
-720
-128
-192
-128
-608
800
192
864
672
-992
-464
-400
-864
-192
464
448
-80
736
-944
-1648
-432
-304
160
128
96
-1232
-336
-160
96
464
-640
128
128
-1728
-1264
688
-48
-1280
-352
352
480
432
688
832
-96
16
-384
-1184
-1808
-720
64
-464
320
560
336
-176
192
-1344
352
96
224
-80
-1280
464
944
656
-576
160
48
0
-736
-1008
-256
-832
48
160
768
-384
-224
-304
-320
-48
704
-464
880
48
736
832
560
944
704
416
128
-816
-1536
224
1536
608
160
752
256
576
-288
-720
-720
496
1168
-224
624
976
160
-48
64
448
-48
-256
544
-16
-352
80
-432
592
240
-672
-576
-912
-608
-608
-176
160
960
208
-592
-304
400
-272
-368
-1104
-64
128
-608
-736
-80
-832
-272
880
-560
528
688
528
336
-1024
-912
672
1360
352
-384
-32
-80
64
544
576
560
928
-336
-192
592
-96
480
720
-384
-208
1312
-288
-656
224
912
944
368
400
-1120
96
336
-304
-368
176
272
32
-752
48
944
288
-608
272
-96
-752
-1168
-1552
1120
608
-128
-352
-16
992
-336
-672
672
544
80
-336
720
400
-624
-1056
-400
-1152
-816
768
64
480
-288
-720
-912
528
272
176
176
752
848
-800
368
-256
-688
-528
-784
464
928
-64
448
-96
256
1264
912
1248
-128
-1072
-960
-1168
-704
-624
-272
64
640
1136
1120
1200
-16
80
-784
880
416
960
-16
16
-16
416
800
416
-304
-832
-640
-352
-848
-960
-960
-1088
-2032
-816
-208
-480
384
1088
496
-1040
288
416
-304
352
16
368
-240
-496
-272
336
416
-704
-208
128
352
-128
48
80
-400
-1120
-480
-688
112
944
720
-48
-320
288
592
816
-1120
-640
0
-304
592
496
400
400
784
-1472
-1152
1264
736
1424
1136
80
704
1472
160
-592
-528
400
112
272
112
-208
736
-176
-800
-800
-416
480
1280
400
-112
944
960
544
64
-720
-1696
544
864
624
512
-80
-1152
-976
160
-1200
1072
1360
1232
832
496
48
-256
-1600
-1184
128
384
-208
144
832
848
368
592
416
352
-928
128
1040
464
-400
544
-208
-16
576
176
-288
-528
-576
832
512
384
240
624
848
48
544
336
1072
336
-496
-288
-192
-736
544
576
144
400
-464
0
528
416
240
208
-176
-304
-288
400
-192
-496
336
-720
-1216
-512
976
752
112
160
-736
-208
304
-528
-784
48
592
64
-288
48
704
-688
-1296
-896
0
1296
496
880
912
-80
-1456
464
1552
464
-352
-144
-144
688
1008
1200
-560
48
1040
688
368
624
256
480
576
1216
1136
304
464
64
1264
96
1008
-576
-512
-608
0
320
-480
624
16
-96
-560
-1328
-1392
48
112
-1072
-1280
-960
528
512
0
704
208
0
-1312
-400
-864
-688
1856
-96
-736
-1488
-800
-1648
-736
-704
-48
-816
752
560
-1184
-1504
-944
-224
-1456
-1024
-448
-720
-624
-256
208
624
400
560
240
656
-432
-656
-416
0
864
-368
544
144
272
1472
1552
688
-768
-112
-576
-1280
-672
112
-640
-192
400
-352
-784
-32
352
400
272
64
16
-176
-224
-480
-208
544
48
-864
-800
-512
16
-96
-624
-576
-1184
-1664
-208
-528
368
240
-352
-1088
-832
336
560
448
-544
-256
-128
1360
1376
-32
-640
-1424
-496
-960
0
288
656
-832
640
-448
240
-256
656
528
816
-48
-320
-560
656
544
-496
-112
1712
832
-224
592
-48
-384
544
352
16
-656
-1760
-448
576
848
496
864
1648
0
-576
-784
-320
944
32
-1184
-656
-256
-768
-736
432
768
1408
784
-400
-688
384
432
-720
-1056
-144
992
64
-1008
-720
1072
352
-112
432
-144
32
-416
-960
-864
-1248
-400
-448
-560
-480
-656
1424
640
-1232
-1936
-496
624
384
1136
640
-32
-672
144
48
-256
-128
-480
-896
336
656
880
304
-16
688
320
-928
464
144
928
176
-384
112
-1104
-480
864
-432
1024
1664
528
720
1376
416
96
-64
-464
-656
-736
-592
-1328
-1552
-704
-960
0
48
-1072
-352
-320
480
368
-864
-384
-880
-288
-112
-96
-384
48
640
768
960
624
-928
-432
800
-32
656
-336
-496
64
384
48
-288
-720
-352
1504
928
464
720
1056
2016
1200
-624
-1008
-672
-688
912
368
912
992
128
192
1328
528
704
-864
-288
-368
-1056
-16
224
-1040
512
-240
192
960
416
32
-160
-224
-592
-864
-688
-352
256
112
-768
-256
-160
-688
-288
304
-224
-384
-832
-832
-320
-48
560
320
752
-48
-608
1216
0
-112
1600
1072
-208
-256
-192
1456
1408
624
-208
-64
-656
-528
704
-16
-672
-208
592
560
-1136
-1536
-496
768
352
-64
-64
-256
144
-64
-1168
224
-448
-912
-384
-576
-1440
-1744
-1536
-672
-816
192
624
480
368
480
256
1360
528
688
1008
48
112
-496
1248
960
480
-1216
-80
-704
-160
-512
-608
608
736
-400
-848
-512
-1232
-256
1184
-960
-432
784
-192
384
-576
-672
-336
-112
48
800
-336
704
192
640
80
0
-560
-1168
240
672
-496
-224
32
672
96
512
864
-1584
-992
-720
-224
336
480
-576
-672
320
432
736
128
-1120
-640
592
-240
-608
-1040
-1504
-1504
-176
16
448
560
-720
-1008
-512
-608
224
832
-1008
-624
448
-784
-80
-912
-672
-752
-720
208
816
128
-32
-400
352
16
528
-480
384
-112
-944
-640
592
624
1008
240
-432
832
-144
-288
-944
-448
256
128
0
512
128
896
704
-176
-160
624
-320
-240
-48
1184
640
0
960
208
416
-288
-512
-464
576
320
-128
160
-848
16
928
-112
-304
-352
320
-704
-656
-544
592
-32
272
1184
368
1104
176
-656
-64
-128
192
720
-400
656
32
-336
256
192
512
-128
688
736
-32
-80
128
352
-528
96
-96
112
-704
-560
-224
-1984
-1984
-208
176
608
80
-288
-528
240
368
704
400
-112
-704
128
-80
-336
-1280
336
1168
-96
-240
864
784
816
592
96
768
848
944
-528
224
-1104
-304
-208
288
688
1168
112
-32
-656
-176
-720
-832
-256
-736
1488
1088
-464
-400
-96
-128
1104
320
-800
-1840
-592
128
144
208
1728
1952
832
-304
160
336
-64
-672
-144
96
-496
80
-400
192
928
288
448
-16
48
16
-16
-576
-1120
-64
640
912
-48
-400
-96
272
1008
400
-128
768
480
-1152
-688
-1072
-960
-224
336
-272
-528
-976
304
-256
432
192
-272
-1072
-544
-320
-576
256
624
288
-640
-96
112
-64
32
1376
736
896
368
896
272
-1120
-1600
-1072
-192
1040
1408
1168
-304
448
-512
-848
-304
512
-944
0
288
720
-48
-1696
-1344
-992
896
1152
-240
-256
-128
-320
-864
-912
16
-112
-928
240
1840
912
864
-208
-448
800
-624
-512
-336
272
-1440
-1056
240
448
240
400
224
-640
-1168
-432
-352
-272
48
-64
176
256
656
224
-688
-896
208
-272
-576
-64
1328
-64
-1024
32
208
-368
-288
64
736
-304
-336
336
272
672
704
-32
-352
-304
-1024
-1680
192
912
-160
-352
-704
-368
160
-96
0
-160
-864
-176
752
976
672
368
1024
224
-832
-672
976
1040
864
-416
-608
-704
-1680
-1584
-464
-1088
80
112
-256
400
-560
-688
224
864
640
224
192
0
512
-176
768
96
848
448
-144
-96
-96
-320
-1520
0
1152
1664
-736
-864
-464
272
-800
-688
-640
-256
-656
-256
-656
1280
160
-1104
160
-496
-752
-352
32
-608
128
176
240
-896
-1312
-1136
720
464
-848
432
16
512
656
-256
240
192
1072
560
400
304
256
-560
176
272
960
1456
-864
-224
768
1280
352
-752
224
192
-976
-1264
-480
-432
-704
-560
-560
-704
-144
-1552
544
288
-704
624
1696
48
96
288
-1328
336
-464
64
464
-544
-224
-816
-144
832
1056
-2000
-1744
-1456
-96
432
608
32
-64
96
-400
128
-800
-16
64
32
-384
992
1632
1472
576
-176
-1392
-1152
672
416
-368
-352
704
928
464
224
112
672
1056
816
384
-240
224
240
432
432
-384
-784
544
912
-128
-704
-1552
-848
-1088
-128
-544
-96
-624
32
256
1152
1264
-448
544
512
112
800
688
144
-608
-176
-464
368
128
752
-928
-896
-1504
-320
640
304
544
192
176
848
-432
-208
240
416
1440
608
448
32
416
1440
928
16
16
224
352
432
1104
832
160
208
1440
640
-864
-400
224
112
-128
-1120
272
1040
80
288
-576
-1536
-240
-416
-432
320
720
96
480
1168
-560
160
1072
-288
-864
416
-784
-1200
208
416
384
-112
-240
-224
-48
1136
784
-336
-496
96
-400
-256
-48
-304
544
-688
800
1456
160
-224
-416
112
800
-464
-96
560
1200
928
-704
-272
1024
1040
528
576
1152
704
192
-1312
-768
912
1344
-928
-544
-80
752
1408
1296
112
-400
592
80
-176
784
-608
-928
32
-32
528
416
-512
-912
-544
176
-80
160
144
-192
-864
464
912
192
288
112
-384
-464
48
-336
480
-1120
272
160
656
1552
1024
32
640
-560
16
-560
16
-96
528
544
-288
-1360
-784
-16
640
-48
-96
480
-592
256
592
-752
-1504
-1456
-672
-336
-96
-96
384
496
160
-176
-880
224
-560
-1120
-1408
-240
1072
848
-160
752
192
-1200
-416
688
704
16
-1360
-1008
-1120
-64
-32
-256
400
-64
-912
-720
-1168
-512
-304
352
-352
-1984
-1056
-1264
-624
480
816
-48
-832
336
1872
-1424
-1104
-48
1216
432
-80
-960
240
-240
336
64
-336
-448
-1072
-1088
528
-48
-144
1008
64
1248
-80
-752
400
-240
-736
-320
64
-448
-1024
-432
-144
800
192
640
112
128
-368
912
1312
768
656
-448
-256
-688
-480
-160
-608
96
-368
272
400
464
1568
1152
864
240
1184
1296
-560
-544
-96
1200
608
336
112
-1248
-16
448
-32
896
480
544
672
-672
-992
-560
-320
16
-416
-448
-672
-800
-176
-1200
-416
-112
1008
912
432
672
448
-1248
-800
-160
-384
-16
256
-160
-512
-736
-480
-224
144
1200
1296
1424
16
-720
-1200
-80
1216
784
-464
-624
-992
-464
144
-640
-336
-1312
-240
640
320
1072
0
-816
-848
384
720
224
-464
48
256
-512
-768
-736
80
-1856
-880
240
-400
336
736
400
416
464
1104
1408
688
256
-416
240
-736
112
1472
656
-736
-896
-416
-256
656
240
-128
624
352
-624
-592
-1168
-368
16
1504
1168
432
336
-128
800
560
-432
224
256
1104
512
-192
-496
-240
112
-144
-128
704
-32
-336
-160
176
240
-832
-64
1664
1376
864
496
-1088
-672
128
1552
1504
544
1664
1120
704
64
-1328
-1584
-1152
-688
-560
32
1424
624
-800
-1792
-1472
-368
704
-672
-1008
160
-400
-560
-1072
-576
-272
128
528
-336
-1760
-384
-384
16
96
1072
400
-352
-640
-176
1040
208
-640
368
944
-832
-176
432
-336
544
1120
224
608
160
-1408
944
256
-16
432
-656
-1104
-144
-352
-1808
-576
-544
32
560
-1024
-336
-208
-992
-368
48
976
1360
-80
320
-112
32
752
1440
-464
64
992
432
576
96
-448
352
-48
1600
896
-704
-912
-1072
-432
1344
1024
-48
720
1712
496
-240
-864
-432
768
112
96
640
-112
64
224
1040
624
-688
-368
-1024
576
496
-896
-592
-80
576
528
1200
352
-288
-240
192
-176
208
-288
-768
-304
-224
800
-768
-1760
-320
-128
-704
800
48
-448
784
144
880
-592
-400
-288
608
80
704
464
-736
256
1184
1904
304
-288
-672
336
-224
-912
-1344
-1232
224
160
288
928
288
-1088
-384
-96
816
1040
464
-832
-1936
-896
-176
368
-128
288
384
-16
-1872
-1552
-1824
-1744
-160
-336
400
-128
-464
-672
-32
-1472
-1568
-576
-864
96
880
0
-32
928
672
560
432
416
-336
416
-96
336
560
1168
256
-592
256
1216
-752
-160
-48
528
304
1184
1456
912
832
432
-608
368
32
208
-416
-304
48
-560
48
672
-304
-464
-1184
-1216
-144
-592
64
-16
288
192
-784
64
224
-240
-640
-1472
-704
-1184
-1232
-448
-400
640
272
-896
592
320
688
464
-560
-592
-16
-512
-496
-32
-656
-384
-352
-864
-192
-224
-448
416
416
608
144
-320
-960
672
928
-64
-288
160
-240
-1008
-128
-240
-1344
-128
80
-208
-688
-640
480
160
96
1296
16
-304
784
736
416
0
-1456
80
112
800
784
736
768
160
-368
-160
-368
-288
576
-1056
-576
-960
192
752
48
80
160
576
1168
384
0
160
-336
-544
-384
-592
320
-928
-512
-48
384
560
-832
-656
-336
-880
-96
528
768
-528
-272
480
640
1312
480
-1072
-624
-368
-704
-544
-528
-1296
608
1008
-752
816
480
176
-320
64
1392
624
240
1488
-496
-32
-1264
256
736
208
-128
-1024
48
-64
80
256
48
-16
-48
-368
-1504
-576
-624
-640
800
208
240
-224
-256
-272
416
496
-576
-192
-416
384
1280
960
304
720
432
544
144
736
96
1200
640
368
-144
-224
-1008
160
1232
576
-1840
-1104
-416
-272
-1344
96
480
-592
-160
-400
-192
-192
304
-1040
-1232
-464
288
288
608
-96
-880
-496
-976
-1184
-608
992
672
-224
-480
-480
-992
-448
784
832
1328
480
-960
-160
-112
112
576
-320
-368
-1536
112
960
-128
64
768
0
112
1456
1040
-144
-112
128
32
1024
1680
1312
752
-192
-224
1152
368
48
1024
656
1008
1088
1296
400
128
336
-48
-1424
-448
-1136
224
-1136
-176
-80
432
432
128
592
768
992
-528
-1440
-368
272
1392
1248
448
-160
-528
480
-912
-560
32
1008
-576
-1200
-400
-512
-560
-848
864
688
544
496
-208
-128
-672
304
336
-976
-1872
-592
-1120
-560
128
160
-96
592
-272
-192
-512
272
288
-832
-1456
-512
-256
-400
1600
544
448
208
960
784
-400
-592
0
208
80
-304
496
0
96
-608
288
96
304
432
-192
112
-1344
-1248
64
560
368
-736
-384
-144
784
1104
-288
-1616
-320
288
-912
-800
-192
-128
-416
688
832
-464
-352
640
-224
-752
352
592
-384
-368
-48
-160
-16
544
896
800
0
-208
192
-1056
864
1664
448
48
352
-32
928
-48
272
-512
-448
288
160
32
720
672
384
-624
-944
304
-256
1360
-864
-1520
416
816
80
688
48
-656
-624
432
544
928
-96
352
832
-480
1136
1584
0
-80
-384
1008
576
944
-320
-448
-768
-560
208
-480
-784
-624
-368
976
1680
496
272
-144
-320
-240
-880
-512
-448
-720
-48
-912
-1184
-896
-512
-640
192
752
-304
-448
-176
528
208
416
1312
1088
528
432
-1056
-848
-848
-448
-848
176
1088
432
-272
96
-976
48
-176
-1408
-144
304
-368
416
688
-1184
160
736
352
-80
96
-16
160
-96
-128
-528
-688
-448
1296
1152
592
576
288
-304
-960
-48
-1104
-192
-80
-768
-384
448
96
272
-144
336
1168
608
-1024
-144
-208
464
-128
-432
416
304
-656
32
-320
640
-1232
160
544
-1136
-928
592
-128
-256
-1392
96
672
32
176
176
-640
-352
336
-896
-96
-480
-176
-64
-816
-304
-736
-816
64
-288
-1168
-464
352
-288
-208
-400
944
1536
416
80
-208
-368
608
-96
-464
-768
352
64
0
-32
240
-240
800
-592
-816
112
32
368
752
256
-560
-896
144
1040
960
-944
-1600
-112
784
768
1536
560
-272
-288
-608
-576
560
464
144
512
-496
224
-272
-1200
-704
432
-16
864
1040
-112
-192
-288
80
-224
-256
-32
416
-416
0
-576
-1424
-384
-80
-608
32
80
352
224
-32
-16
-368
-160
-416
-1056
-320
-528
704
-48
-16
64
1440
240
1584
304
-816
32
256
-128
-1120
-912
16
-128
112
-112
32
624
-208
-352
64
1040
304
-528
-1088
224
592
-496
-688
-1264
-1536
-112
-448
176
240
384
352
384
704
1056
256
-384
-656
-816
544
-1136
1200
112
-16
-512
-1152
-192
-496
-16
-528
304
336
352
-896
-1360
224
208
-384
16
-64
-352
-416
240
960
-1120
-1360
-688
-208
880
720
240
-304
-416
-368
-160
992
1072
400
-624
240
96
-1056
464
688
-1312
112
816
672
-608
-512
-336
-1328
-432
1056
640
-208
96
1136
-16
-496
-1056
-1248
816
544
-304
-624
-1088
-1360
-304
-960
-224
48
272
496
-48
320
-160
-864
-320
368
1216
624
-592
-160
224
-448
-64
736
-256
336
848
-96
-1840
-1088
288
-128
848
1888
752
-240
640
-112
-112
16
-208
704
176
-176
-912
-464
656
880
-192
-624
-544
-864
-352
-368
-1472
-960
-880
-1024
336
-48
-528
912
960
384
336
160
-704
336
208
-1216
-16
192
-1440
16
800
-320
-128
0
800
-240
-496
112
656
688
-352
128
-496
-272
352
64
672
-528
224
-16
176
1520
80
1136
-160
368
304
496
384
1168
304
1024
224
-416
288
832
1232
736
-160
-144
-864
-320
-400
-1216
-288
-1936
-960
288
128
1232
1264
304
1280
-32
-224
224
256
240
-176
-1008
144
384
1184
512
-432
976
176
-112
336
928
592
608
-352
48
-96
-64
-368
240
1360
992
512
-80
272
752
400
1424
384
224
288
0
96
-608
-1152
-48
1264
-528
-912
704
80
-112
896
544
288
-336
-416
400
-864
-1184
-912
-1728
-160
-832
-656
-608
-672
336
1120
336
576
-112
-432
-368
-224
560
96
1328
768
-1072
-1296
-1472
-32
368
-32
-1024
-1728
-1088
-112
-208
-2016
-1216
-80
-16
-1488
0
-912
464
-192
-1104
-128
960
-96
0
-640
-240
-288
-1168
-208
624
992
288
224
400
576
576
-400
-1488
-752
1088
0
-624
144
320
80
496
-368
720
-416
752
-160
-528
-464
448
-208
-176
144
1088
960
-32
-1168
-2016
-496
-176
64
1312
928
-272
-2048
-528
1088
-320
560
-48
-704
-1216
-1648
-400
-224
-464
-80
688
560
608
864
544
384
-368
-256
304
-112
416
-352
-432
-784
-976
-1392
496
576
64
-160
-528
-592
192
1168
208
208
464
96
704
880
496
400
-144
224
560
736
688
992
816
-672
736
352
-1184
-1312
-1296
-1008
384
176
1616
400
144
320
1216
112
-720
80
-592
-752
368
-272
-672
112
-272
784
1104
384
-1168
-1472
-1712
-928
-1056
-1152
-1184
-256
272
-368
-352
-848
-1184
-320
240
48
240
16
-304
-400
-400
864
608
864
80
-720
-1008
144
368
224
-400
64
752
-432
-544
288
-1008
-784
48
-1696
-752
16
-464
272
368
256
-256
-16
-16
-336
112
1536
1152
736
16
384
848
0
-400
-464
-1296
608
176
-128
432
672
1424
32
-256
1200
-1920
-32
-672
-96
-928
-1776
-1664
-656
-640
-832
-448
-640
-400
-240
912
1184
880
1136
0
1440
304
48
816
688
176
-704
128
48
-208
-224
192
1744
1328
-640
480
576
1328
800
288
608
-256
-656
-1040
-32
1152
1248
1136
1200
0
-256
208
672
-224
-576
192
480
-912
-1440
-240
-1072
16
352
544
112
-816
672
160
-384
288
864
272
-272
-608
960
-144
-368
-1536
-784
-256
560
-1168
-736
-336
-416
-352
-1280
-592
-112
-448
-320
-848
-672
192
0
-128
1056
1792
832
-224
-448
-64
-736
-912
-1232
-288
320
1168
480
-528
96
480
112
-144
992
-160
64
256
112
368
720
1248
-144
-736
-192
-592
160
48
-848
-416
1392
1808
656
-400
480
32
-1616
-1024
768
688
640
512
-512
656
1568
-560
0
544
-368
768
-1008
-736
-928
-1280
-1216
-1088
-224
-704
512
-256
1056
432
1696
896
-288
-288
-80
-480
-656
-1600
-1248
288
256
16
704
1232
16
576
-448
-48
-1088
-608
192
64
864
1584
160
-1136
-368
-336
-224
848
1136
768
16
-128
-896
-1104
624
336
-400
-176
-576
224
-160
1008
1328
736
-384
-608
32
192
-400
-928
-192
704
-80
496
240
224
-192
96
-144
-768
144
704
64
-336
176
-112
752
976
-528
-736
-512
208
1088
1168
1488
544
-608
-320
-208
816
1040
624
464
-16
256
336
576
1312
1424
1264
-192
32
-384
-1248
624
1296
288
-160
64
-816
48
-528
-368
320
160
-16
256
176
448
-720
-1312
96
624
512
1536
288
96
144
304
-720
-208
1120
336
528
32
688
640
1104
-80
-192
64
-736
144
-400
-1168
-1616
-640
-768
608
672
1088
-224
-880
-1360
-144
320
16
-160
-144
-16
-1136
176
-64
-1568
144
208
-816
-736
-352
-400
144
-496
-224
672
992
416
-1264
-480
-1376
240
1184
80
-816
-80
-160
400
-240
-800
64
1472
-272
-544
0
-736
-336
176
784
224
-112
-704
-896
-176
96
848
496
368
-384
-736
-480
1120
320
-704
112
-752
-128
448
192
448
896
480
432
-368
960
-288
-1136
-1040
-288
-656
16
1296
1808
96
-192
208
736
720
288
1168
-64
-704
592
352
736
464
880
688
560
576
-208
-304
-720
-16
448
800
1040
288
240
224
752
1936
-400
0
16
224
-688
592
1392
736
-1328
-800
-384
608
1904
992
64
-496
576
-176
-320
-864
-864
128
-320
-464
-832
-48
800
512
448
-592
-560
256
-928
-416
-368
-1280
-560
-752
-480
-976
208
480
864
528
-352
-848
-784
1120
-32
-1184
-784
224
-480
-32
1152
960
976
-352
-16
512
-32
336
1184
1648
448
1600
48
-112
576
-128
-912
320
400
-800
-448
-464
-928
-1328
48
-256
432
544
-112
-288
-688
64
336
-1200
-1072
-576
464
272
-224
368
720
1520
-544
-720
112
-560
448
176
-352
96
-128
-1296
-96
-336
-1040
-1168
-816
-368
-400
-800
528
-16
240
496
-160
-1040
-1072
-80
432
992
-416
-96
-560
-288
144
128
208
544
-416
-672
-1008
496
1344
320
624
624
1216
-448
-512
32
-864
-80
224
-288
-416
112
-2016
-1744
176
768
-272
-160
544
688
720
48
288
-128
-224
-832
-16
880
-560
240
48
896
992
-272
-1056
-976
-400
-848
528
1328
352
-800
-208
-800
-672
848
-160
-704
736
1168
1872
528
272
336
96
-384
-896
-80
480
832
1232
880
880
64
-288
-384
1120
-128
-1120
-1104
-960
-448
-272
-1200
-192
-160
-336
416
384
-80
16
480
0
-1312
-480
688
176
-48
784
1648
352
-64
-736
560
992
1008
240
-464
-960
-1072
-976
-592
2000
176
-80
48
-688
-96
-240
48
304
192
-176
1232
880
-256
-512
560
1392
64
96
496
-560
-688
-256
-400
-416
192
-528
-1360
48
96
-1280
-1168
144
-208
-912
480
592
-1200
-1776
-1248
-592
672
432
176
-144
336
240
96
-112
672
528
192
-816
-800
-832
-528
-560
0
624
1168
1232
-976
-1104
-32
-704
-496
208
448
-848
-1024
-1232
624
912
-688
-160
-592
64
528
-224
-1200
144
144
144
704
240
1200
464
-64
1056
-160
208
528
-944
-848
-720
912
-272
-1296
-1296
192
-512
48
-464
-928
-496
-96
352
960
1536
208
-736
-352
288
-640
384
1232
848
464
848
1072
864
-384
-432
912
352
-1744
-960
-224
-736
640
320
-96
-448
432
592
448
1008
736
-256
-480
-1024
832
784
16
-320
448
1024
784
784
-192
640
-240
80
0
-144
-640
-1088
-64
368
-240
-592
640
976
-224
64
336
816
592
-208
1072
992
1664
864
352
224
0
-672
512
368
-736
-160
-608
368
512
-432
256
-272
624
-144
208
144
-240
-1072
1008
1712
512
336
240
-16
96
-144
-288
-368
-928
-848
432
-32
608
-256
-64
32
-352
-112
832
1056
1344
816
80
1040
352
752
624
0
64
-928
-960
-512
-224
960
192
-352
192
688
-608
-880
-144
-640
336
288
192
-256
352
144
-272
-336
-496
-864
-272
-384
-96
-208
-880
-1088
-240
-1328
-944
16
704
640
1312
-64
272
608
-432
416
368
400
240
-128
-416
816
-288
-304
-1136
-288
-240
-96
-448
-608
-1040
-320
432
48
-192
-128
112
832
544
1040
-160
-96
-192
224
432
-656
-1104
-192
-448
-336
-96
-48
-224
-272
1104
1584
832
928
80
496
1200
1424
-320
-320
544
-16
736
1072
384
320
336
544
336
-656
-704
-704
656
1264
336
-320
-832
496
-240
-304
304
896
1184
112
768
-704
-1744
-224
656
576
-528
-256
-576
-1328
-768
-688
-48
-128
64
0
480
-256
-928
-736
-1376
-400
576
688
-160
-1472
-1488
-928
-368
160
-240
-688
432
288
560
480
-288
-528
-96
512
224
240
752
-1168
-720
-672
-64
-1408
-832
-512
-496
-384
64
672
416
-752
416
-240
-784
-592
-416
656
480
-192
-928
144
656
176
224
-544
-304
1088
320
-384
-576
576
240
480
288
-704
-320
208
-688
-1104
-832
-272
-320
-1056
496
304
416
1824
144
0
-384
-16
736
576
-800
-1024
32
-160
-176
-320
-592
-288
-1600
-592
288
1152
560
112
80
-560
-144
688
-272
-880
-1008
928
16
-736
-16
-992
256
384
1264
480
128
112
416
1072
272
272
576
672
704
1440
-208
-32
-976
-1216
-864
608
224
-656
208
880
992
832
304
1248
224
-144
-176
-816
432
1024
1152
-176
-224
-672
64
144
528
368
336
1232
-176
-1312
16
112
672
128
512
-528
48
-752
-672
-400
-128
-368
-336
-336
-1584
-1328
-1360
-512
-656
-80
-144
16
528
224
-544
-384
736
16
-800
-1152
-928
832
-560
-624
1248
1168
416
128
-48
-816
-1104
-768
-128
448
80
208
-544
496
1072
336
-256
-976
240
-800
-1072
-736
-240
-256
-192
1264
512
-448
720
864
-1280
-704
208
448
528
-96
688
-64
-592
432
-176
16
336
608
304
48
144
-896
-704
192
-176
0
-304
-80
-576
-160
-352
-320
512
912
496
672
896
-80
-128
-544
96
256
-304
-32
960
208
-432
-400
-144
368
48
-960
-80
0
1040
1072
1040
1088
-176
-1648
-1856
192
-496
-1424
-1152
288
32
-16
48
-112
-448
-176
-176
416
832
464
336
992
-64
-368
-736
-1536
-1232
-1040
-1104
-608
-848
-800
544
416
192
-64
112
224
1504
832
160
448
48
-160
-1280
-1760
-832
752
1104
752
-864
-2032
-1536
-432
-640
144
848
48
-144
-544
112
640
592
384
912
256
256
-480
720
-256
-624
80
-160
336
640
592
192
-512
-1104
-1904
-208
224
592
832
-720
-336
16
-160
-576
-176
192
928
416
320
288
352
848
1104
-448
-672
560
-704
-1248
0
-880
432
800
816
-336
32
400
352
464
-384
192
720
-208
-96
-176
-112
256
368
112
-176
192
192
928
880
-80
624
720
208
32
-784
464
384
240
816
352
112
-1808
-656
-448
-224
1888
-144
-304
688
336
784
912
240
16
432
-672
-864
320
-208
-960
304
272
-464
-1056
-800
-496
768
208
-896
-208
432
1104
432
-976
-816
-416
304
-208
-688
256
1168
-208
-784
-128
-144
-704
-976
-1056
-1984
-448
480
512
-384
-144
-224
592
432
1008
-480
-992
448
464
48
208
-352
-528
-336
240
240
416
-32
1296
1184
-480
416
-1056
-256
1616
1248
1040
-464
-208
144
-1248
-336
624
-288
-800
-992
160
-816
-1600
-16
320
-672
-640
560
208
656
32
-480
-32
-352
160
128
-32
-992
-1968
-1088
1024
208
512
592
160
80
448
-80
-112
-464
-272
-640
272
1424
560
528
-592
-608
-160
-48
-832
192
368
528
624
672
16
-736
-160
-352
-960
704
1664
928
-176
32
112
144
-992
576
64
144
-704
592
624
832
1232
-176
-864
-368
336
272
336
-112
-400
-368
-144
-160
-544
-496
352
352
-80
-96
-16
288
272
544
1168
720
960
464
-1344
-1376
912
1696
208
656
256
-832
0
192
-336
-528
-320
576
416
1120
256
-544
192
-48
-176
32
320
192
-176
272
-16
704
1328
-832
-192
-272
304
912
720
176
-1168
-1520
-848
-320
176
-496
-320
-384
176
-176
1184
1664
1024
528
784
256
-752
32
1472
752
-416
-624
544
832
208
496
-48
-592
-160
-272
-224
-1104
-304
-608
-912
160
320
-336
368
464
-352
208
0
-1152
0
144
272
-528
-1216
-752
1632
944
-416
-96
512
-368
304
224
-336
-160
-736
-528
-96
0
-96
128
352
352
-144
-96
608
496
48
208
272
368
240
-1168
-1584
-368
-320
720
-416
-672
-1360
-784
-1056
560
1696
-864
-1008
-144
1264
-272
128
-96
-672
-256
48
640
-1472
-384
-256
-320
-896
-304
-144
-1520
-560
656
128
48
384
1744
256
-864
128
-672
-608
-544
208
1120
1296
-32
-608
256
-272
-192
-528
704
1200
752
160
-144
-256
-400
240
304
-624
-224
-1792
-592
448
496
-352
-848
-96
624
-160
400
-1376
-672
-224
-1008
-240
624
208
272
176
16
0
-224
-128
896
112
-176
592
960
992
544
896
864
1584
64
-208
-144
-656
-512
-272
-128
-112
-1552
-304
160
16
448
320
1184
160
864
528
-1184
-1232
-32
-896
-1072
-880
-832
736
336
-192
352
848
864
384
976
1088
800
176
-512
-1008
-1456
-816
368
-192
144
688
144
-96
432
1392
864
-144
-1072
-192
-704
-1360
112
848
320
800
1056
608
704
-640
-512
128
-256
-1888
-528
352
-560
-1728
-976
368
-208
656
960
-832
-1120
464
1456
464
-64
-464
-1072
-480
-64
272
-784
0
1584
736
-48
240
624
-64
192
-224
480
640
-416
-896
-992
-672
-1440
-656
-368
-1488
-656
-1152
-1168
-1184
-192
-608
-656
944
416
-16
-256
880
-1264
-1680
-1776
80
1424
224
-48
-176
-560
-192
480
-128
-544
144
-304
192
0
64
-528
-1968
-352
336
912
-336
-1648
496
352
912
-64
800
-64
-688
896
1232
112
16
-1296
144
416
128
-32
-832
-1264
-496
-432
-928
-832
-1136
320
512
-672
-400
-672
-1408
144
272
768
1248
112
32
496
560
560
-912
-96
64
368
-320
-544
64
832
1056
784
-608
-208
-464
-1104
-832
-800
0
160
176
-736
-1600
-1216
-272
-320
-768
-928
0
-176
-1776
-672
-880
16
-464
-1536
-320
-160
-704
-64
-624
-608
-528
-848
-960
1056
944
-96
768
1552
1104
496
-528
-432
-1616
-1424
-208
128
144
432
1008
1168
944
496
-208
-256
128
1056
592
-16
-304
-1008
128
304
-288
96
528
1216
1008
0
-400
496
624
864
-16
-192
-96
-896
-880
112
320
-720
-176
-592
-880
-48
-240
-672
-768
160
-192
-96
880
896
144
-464
-256
368
-512
-608
224
-176
16
544
320
336
-64
1744
-1216
-800
1136
-144
-672
-224
64
944
144
32
224
544
0
320
944
-720
-1456
-1632
-432
176
512
112
560
592
48
0
-496
-304
1008
560
704
1568
1024
336
-432
80
-368
-432
480
1424
640
1040
-48
688
-48
-368
384
416
-544
-912
-544
624
896
176
-192
192
352
416
-16
640
736
0
960
1184
-48
-800
-624
-432
160
368
192
-1568
-576
896
608
-688
-240
176
-544
80
784
-64
752
896
384
1072
112
320
752
80
320
1072
1008
160
416
-304
528
608
1648
784
-96
-400
-672
-816
-128
224
-16
544
-192
80
352
1424
-48
-512
144
-16
352
416
-288
-752
-1072
-592
32
-208
-464
-80
-1088
-720
80
-112
416
-96
256
-64
-320
-144
256
160
1264
432
160
-960
128
752
-208
592
1040
-320
-192
80
-432
-288
128
1232
384
-144
-672
336
-400
-1072
-800
320
-512
-960
-1088
-336
112
384
1008
912
288
-720
-336
144
-944
-848
-320
-304
192
480
-992
64
1024
448
1200
176
-64
816
768
-144
-208
208
592
-560
768
256
368
-272
-160
816
1696
-240
-784
720
1920
1184
144
176
-144
-208
-1104
-448
-256
-400
-1488
-224
-1120
48
368
208
-192
-1104
-880
-160
-128
-288
-208
208
-1152
-752
-400
-1216
-1024
-272
-240
-896
-688
368
16
128
544
624
-352
432
-576
-640
-48
-704
-368
-1520
-864
-688
-832
-128
496
368
432
144
-320
-1584
-528
304
544
1504
-192
-368
304
-1008
-592
144
-400
-752
-688
912
1392
464
784
400
656
784
1184
336
496
-960
-1472
-352
-48
592
1152
992
288
-688
-720
-1536
-1056
1536
1328
544
-320
-448
96
-704
32
-240
32
848
1424
-1504
-1456
240
368
-304
-400
-1568
-1696
192
-784
-1680
-1008
96
-288
-832
-496
-1152
-704
-976
-352
576
1312
-336
-336
-352
-80
176
256
384
-96
640
128
-496
-112
336
464
-1024
656
736
-464
-1168
-480
-1264
-1552
-80
976
192
-496
896
1456
976
-32
32
112
-176
1216
-480
560
1344
192
-256
-1248
-992
112
736
464
448
-128
-1104
800
464
160
-64
624
864
-352
-576
816
1056
672
784
-1296
-928
-512
-928
-1024
-624
-672
144
160
-512
-224
816
784
448
-208
304
192
-208
336
-96
-560
-176
1312
256
-160
496
128
-160
272
160
0
-240
-368
-352
720
656
336
464
528
1008
544
864
544
720
832
-160
320
-96
192
-224
-336
0
-656
-432
480
736
1664
1280
704
880
528
464
-256
480
32
576
80
-80
-224
-672
-64
496
1120
960
-704
208
-144
-1168
-1216
96
224
-768
-464
432
864
480
256
-272
864
448
-496
-976
-480
512
-288
-1568
416
-384
-16
-128
80
400
512
160
112
-352
-1648
-304
224
784
-144
-80
208
496
304
-64
1264
-384
-832
-896
-1088
240
464
-48
16
672
1552
752
160
-336
112
368
-448
-784
-976
-176
-256
832
704
-224
320
400
496
224
432
-736
192
-384
-640
-528
224
112
1088
768
1584
1104
-640
-1744
-576
-224
-1232
-1024
272
496
96
432
-48
-128
320
-336
-1056
-304
592
64
176
288
-192
656
576
784
368
480
-656
-320
-1056
352
288
240
64
128
-240
1088
640
928
-912
608
576
-192
-656
-336
-336
-784
-64
96
-480
-944
-1168
704
224
896
1696
352
-64
-288
160
-80
-832
-416
-1008
592
1024
-368
-224
-288
832
1072
1456
1280
368
208
-624
-1120
-432
576
-272
-368
-48
96
-256
-432
96
-240
-736
-608
-272
-960
-192
528
352
-256
-640
-880
-560
464
656
464
-272
-400
784
1008
16
48
-448
176
272
-384
-736
-864
-64
-288
-864
-400
1472
800
16
-1824
-1456
448
448
-720
-176
-240
-464
-864
-112
1024
832
-720
-432
-160
-256
-352
-928
176
-16
-816
560
224
-832
-992
304
544
352
-624
-288
-272
-16
-544
-1056
368
288
688
768
96
-800
-880
112
176
560
-304
304
592
784
-816
-752
-1056
-128
944
320
80
-368
-1440
592
352
96
1120
464
944
-208
-304
128
592
816
496
-720
960
-944
-1344
96
-512
-432
-160
-368
1072
-128
-992
96
96
-32
-512
16
256
-1104
-1104
-1216
-144
-400
-704
-704
-848
-96
-128
-1712
-1664
-1328
-896
-368
-1088
-544
256
144
544
1056
384
-768
896
800
-672
-736
-448
-288
-1424
-912
-608
-336
0
-272
-320
-80
-1312
-1888
-736
560
-272
320
384
-752
-448
608
832
16
-256
192
512
384
48
-368
48
752
16
512
592
96
-656
-720
-384
480
-752
-752
-720
-128
-144
368
816
784
-240
-752
-896
0
-208
-128
144
-960
-640
-432
-880
-1600
176
1280
576
-80
1088
960
-208
640
480
784
144
624
1136
1216
1328
512
464
1168
-240
112
1072
1280
800
576
912
-80
416
400
640
-496
-1040
-32
-528
704
1152
432
-384
-464
-176
160
64
336
640
864
288
-976
-768
-544
-288
304
384
1392
1376
-832
-688
560
864
304
-544
16
736
-1152
-672
-496
-416
-688
-336
-64
304
208
1328
720
1120
1776
1584
1360
1104
384
96
128
-256
352
1664
1568
1568
1072
256
368
64
864
-32
-240
672
-464
256
-272
32
-896
-592
16
-144
-480
208
-224
-1600
-1216
-256
544
1136
128
-144
-896
-704
-80
496
128
-464
160
768
1008
80
-480
-1312
-208
-784
352
1184
-256
32
144
-336
288
0
-368
-336
-512
400
0
-512
-576
-32
224
-464
592
640
160
-768
-880
256
768
784
1088
1072
-432
-1168
-880
768
-608
192
288
128
720
288
-144
224
-112
-880
-1280
-976
-256
-320
-1808
-672
112
-928
-640
-208
-640
-416
-736
112
-704
-992
896
-464
-1296
-400
-480
-480
1440
-880
-816
896
352
240
496
944
-32
1264
1264
736
-240
-704
-112
1136
-32
144
544
-160
480
1600
800
464
416
-384
-656
-544
496
-1152
-1392
704
144
-144
-320
656
384
-448
672
336
-240
-256
-368
-848
-288
48
-432
-352
-816
-480
-464
-1088
-688
736
592
-1056
-704
-192
640
16
-352
-496
-336
-32
-288
112
-608
-1360
16
64
560
624
864
880
768
1440
16
-256
928
80
-288
-672
-848
960
384
-64
1488
1104
768
304
1104
688
-1328
-1200
-1056
-320
112
192
112
-624
48
320
992
1056
1056
416
-896
-1376
352
-896
-576
0
-576
-1552
-464
-1536
-880
-1232
-1440
-304
160
-144
272
-544
-1520
-384
192
-496
256
496
256
128
-816
-1184
1328
1088
400
-176
1984
1600
1664
1824
1136
80
944
608
-496
-672
320
384
-16
528
-752
-336
-112
1056
1888
368
-1584
144
32
384
48
80
496
-912
-1008
-800
-192
736
-128
-1264
-464
784
-736
624
-176
-176
816
960
-1296
-880
-880
-112
800
1968
1280
1168
1024
896
-848
-672
1232
560
-880
-640
-1008
-192
-48
-1216
-224
640
352
208
-96
-672
-288
-1024
-320
-352
-144
1552
1184
144
912
320
-240
-1104
-1792
-240
-1184
-1296
208
976
-560
656
112
128
-592
-736
784
272
112
784
576
-320
-208
16
1488
-448
-1120
-608
96
64
-544
-1184
304
400
-1040
-832
-624
-704
240
-736
1328
1120
288
-256
-1920
-1376
352
-528
-400
544
480
-1120
-560
160
960
-528
336
-960
-1088
-880
672
-80
-1328
-960
-320
96
-464
448
32
-480
-704
-1008
-496
-416
240
832
800
992
48
-656
256
-1168
688
-64
-736
176
48
-896
-608
560
-160
-736
272
720
-64
1056
672
-640
-80
96
688
256
304
208
768
-144
-352
224
880
880
976
-224
16
-256
-672
-160
-608
112
-304
288
-80
-240
-496
-464
-448
-960
-272
816
304
-336
400
-672
272
192
208
-304
1312
944
-1024
-432
-224
16
-1472
-192
288
352
704
-1136
320
768
224
464
304
640
512
-880
-368
320
-400
-352
688
272
-128
64
272
336
-128
-1152
-64
336
224
1920
624
-16
352
1008
896
-112
384
-144
-1040
-608
304
-208
-1024
-336
1200
496
480
-80
-448
-416
-896
848
752
256
192
-768
-368
1376
464
-560
368
-752
-32
368
-240
336
400
128
448
480
240
336
96
480
-240
-640
-1392
-880
-32
112
-128
-272
-752
-32
144
1056
624
-608
-1040
368
-480
-400
80
240
-864
-1264
672
432
32
208
608
-240
-720
-864
672
-80
-960
-400
-240
-448
-48
-1184
-416
-960
-656
-416
-288
-480
544
160
-1008
-304
896
1312
112
256
-640
256
624
720
160
-16
-400
160
1056
-304
-688
288
-384
-624
-400
-800
720
1344
-32
752
672
368
-48
400
-496
768
432
1552
-192
928
1072
464
-1328
-736
-528
64
1456
944
-560
-224
-784
-1392
208
-432
-176
160
-96
160
208
-48
560
560
-80
384
960
160
368
1520
464
1216
240
80
-304
-656
1120
1456
-496
-144
656
96
592
1072
1104
768
240
304
320
1312
368
-496
64
-1104
-1568
-752
784
1040
1360
816
816
1360
1456
128
-224
-688
-304
288
144
-64
304
464
448
64
-224
-48
448
528
-320
352
-240
-656
416
320
-192
1360
944
304
768
-640
-688
656
1184
80
400
144
-400
-1152
-160
128
-16
848
304
48
816
208
304
720
112
480
-64
-416
224
-1088
-672
-48
-192
576
432
-48
640
-688
-672
160
1168
240
-976
-880
-112
1184
1072
576
16
720
224
224
224
-272
160
384
656
896
752
-1440
-1536
-160
-368
-224
-480
-608
-192
592
-1392
-240
-816
112
-176
-1024
-688
-288
-592
-464
-688
-1440
-256
-128
-384
128
912
-432
-256
240
192
944
608
512
160
1168
432
-736
-112
672
1424
1472
320
-176
48
576
240
0
-304
0
-384
-416
480
-400
-656
0
496
-80
240
352
352
304
-1760
-432
912
-432
-464
-704
-1088
336
-752
-432
-768
-384
240
336
480
576
336
480
-64
224
528
-656
-480
1664
736
-208
-1168
208
272
-144
592
832
1376
32
736
-464
-512
-560
944
256
848
1392
-48
-384
896
48
0
128
304
128
288
-160
928
128
-928
160
-16
288
336
160
-880
-464
-336
704
32
-288
-1072
-64
-672
1360
-96
-784
928
1168
-288
-496
-192
528
256
560
656
768
-352
-1024
-32
800
1040
32
192
720
352
-16
-944
-1584
-1760
-832
-464
-1120
-832
-448
48
464
704
704
16
-576
64
1136
1088
496
-736
96
1248
352
224
288
128
-160
-640
-800
384
-1376
-352
-48
64
400
496
-960
-1120
-688
400
-304
-560
-256
416
128
240
-192
-320
128
-128
560
704
-352
-160
128
16
400
-1184
-48
-1088
-368
-864
-112
576
80
1056
416
-16
736
1984
208
448
1040
80
-576
-576
-288
-720
768
-208
-496
-96
144
656
64
-384
-464
-1328
-32
256
1008
-48
-96
608
16
-896
-416
512
208
464
112
-448
400
0
-544
144
400
-80
-496
-880
-512
-544
-1104
-64
-112
-576
-800
-1072
-704
576
352
848
896
496
384
-176
1376
896
-704
-608
-144
624
432
-272
-208
-448
-768
288
-384
-768
688
240
-1072
-448
512
544
-512
-672
-160
-208
736
256
-256
-576
-1008
-336
464
32
304
-128
-832
-32
-896
-1424
-976
-1360
-832
320
208
608
528
-1296
-896
-688
-48
800
880
-32
736
464
-368
-560
-1152
192
144
-800
-1360
1616
992
320
96
800
-288
64
-832
176
-304
-496
-528
160
704
1200
-224
112
736
912
768
320
176
-672
112
560
-320
-656
-960
-288
-1040
-352
-992
-1536
-1056
-1232
-816
-256
-1040
-608
448
-864
-656
320
-336
-112
-1008
-496
368
768
528
96
944
48
-416
-400
-176
640
1840
880
-272
-1408
-896
32
400
64
-288
128
496
848
304
0
624
608
-1392
-80
400
-528
-1408
-912
608
352
-32
288
752
-592
752
1136
-672
-336
-1456
-896
-272
64
304
880
-432
-1200
-208
-1520
208
928
1424
-176
-1296
-656
-736
-1152
-304
1040
592
-592
-272
-48
-528
-576
-816
-944
-1552
-688
-272
-672
-416
-304
-864
-1760
-800
-1520
-1520
-864
-288
-1472
224
-208
128
-272
240
-512
576
-368
-432
960
832
160
400
-32
48
-224
-224
832
592
688
-432
640
96
416
-928
-416
64
32
-1296
-1536
-1120
672
688
160
-720
-464
-96
304
480
944
688
-224
-368
768
1584
1488
672
64
-32
944
1040
464
208
464
816
144
144
-496
368
880
1248
336
272
928
416
1552
960
464
-160
-1280
-320
-304
-1456
-96
480
80
-192
-176
-480
-144
-688
-944
-608
-592
592
992
0
1072
832
368
416
-128
-176
-656
416
496
320
-544
224
-352
-720
-608
-144
16
1168
1072
-176
-368
656
-32
-832
80
288
-192
32
-1872
-672
-128
-304
-800
384
176
-656
-464
-256
-352
-1584
-480
-96
944
272
432
-432
-1056
752
-432
-624
-320
304
-640
-1552
-48
-288
96
128
144
-320
-192
-1504
-1472
-432
560
-256
-848
-704
736
688
-16
-448
-720
-1264
-832
1184
720
304
624
128
48
512
640
-864
-1552
224
1056
736
1968
1440
-560
-976
-240
864
1360
976
-160
-1536
-1616
-640
288
384
464
256
176
528
1520
-144
-928
96
-384
-400
-480
0
-1072
-16
1120
-768
-288
384
-288
640
48
-144
-144
-288
-192
640
-128
0
560
-288
64
-96
208
-336
544
-688
-624
320
-304
-1328
-352
-1056
64
-320
-1168
-800
-64
464
288
640
-320
-128
864
-512
-1072
-1008
-1424
-304
-576
-800
16
48
-240
-256
608
-416
624
736
224
336
-96
-160
-848
-272
-176
-16
160
128
1456
992
-304
-64
-176
-528
512
-160
144
592
-48
176
208
272
-1584
-896
432
-656
-416
-160
-416
-1696
-384
-304
-736
368
1232
1632
1168
-352
-1104
272
-288
96
896
80
-1248
-2032
400
880
1120
112
480
1088
64
16
32
-608
-272
480
256
560
16
-544
352
464
-1664
-112
-272
-592
464
816
656
-160
-288
-320
-64
16
-1104
-576
-16
352
-432
-928
16
176
-304
768
480
-144
-64
624
112
384
-704
-1120
288
-464
-144
688
-848
0
-880
384
992
752
864
1536
624
224
1136
448
544
640
-64
976
560
-128
352
128
-80
176
-384
-1040
-672
-560
640
256
-416
736
-672
-224
-176
896
800
0
32
-496
-336
-32
352
240
1632
736
-192
496
-1424
-1120
448
672
560
-528
-1152
-576
-368
-800
-256
-528
-64
-368
-480
-1568
-32
1824
704
-464
176
1072
-368
-1488
384
304
-48
608
464
832
-304
816
320
-176
-480
-160
-384
-880
-560
-144
1024
-64
32
1408
1488
1712
576
-416
448
-384
-176
-208
-16
256
-688
-800
-128
368
416
1552
1616
576
448
-208
-64
608
432
-272
-352
-320
48
336
16
272
432
688
976
-80
-192
160
-272
576
128
-1360
400
336
-160
1312
1600
976
864
1296
208
-1184
-624
-864
1056
1264
80
592
304
752
-224
-288
-480
-560
224
-288
832
336
-784
-544
-720
-320
-320
-1152
512
304
1376
1072
32
-176
-720
112
1280
240
-1200
-1328
-32
336
80
-1328
-400
176
992
1360
880
-16
304
208
-496
-256
-1200
-272
-64
1232
-592
-304
752
368
400
1456
1040
-272
1632
1568
-208
-448
-576
-752
-256
832
176
976
224
-512
928
32
-64
848
272
816
1168
416
640
1200
-96
-192
-128
-16
448
864
1088
208
-768
-64
-720
-224
976
80
-608
-288
-544
-848
-656
-1360
-1904
-1072
-304
720
-880
0
144
64
-704
-1088
128
1120
240
-224
-96
400
1248
432
688
624
768
992
-144
-1072
224
592
688
-368
-1008
0
848
-496
-672
-32
-336
-144
-80
-176
-64
-800
-32
192
1168
-144
-672
512
-128
-256
-688
-80
864
128
16
976
176
-496
-304
-448
96
-208
-560
464
768
-288
1200
80
96
-1120
-896
-144
-320
432
-400
-192
304
-656
-544
64
384
-432
-144
288
96
-176
176
1840
416
-256
-448
-192
-80
-1168
-464
1488
1520
1200
-16
144
1120
1568
-400
-512
-704
-304
-64
256
1472
992
384
1024
-272
784
848
432
-16
-240
480
768
-384
-400
1024
1024
816
992
160
-272
448
272
-368
-352
496
272
1008
240
416
144
48
-832
-368
144
192
-1328
-448
-64
160
-272
-416
80
304
-320
-272
-1760
-1200
-80
592
272
672
768
-96
800
-416
-752
304
-256
-96
-176
-32
288
-944
-256
912
224
-128
-784
-1056
-528
-80
-240
80
656
976
1408
256
-560
-1520
-288
0
-176
-96
512
1728
1440
720
656
848
640
256
-1104
-656
464
176
-176
-208
-976
-960
-528
-1344
-1136
32
-112
736
-448
-928
-1280
-1440
-784
480
1328
848
-176
672
0
-528
-272
-400
-432
-1216
-1232
368
1104
-96
-608
-784
-1008
-672
-80
-160
-96
912
-576
192
688
1296
848
752
-400
528
736
336
-640
-304
272
1152
16
784
400
592
768
608
96
-80
16
48
-832
-32
-1184
96
-144
-816
-864
416
1408
128
-32
-1120
-816
-192
-128
288
208
-16
160
320
-912
-592
96
592
416
-80
-192
-256
1264
128
272
-144
-464
-416
-960
-656
-368
-224
-544
-1408
-592
-336
-656
-1424
-432
-848
-208
-112
-640
-560
-1248
-688
-208
368
1104
1088
784
1072
-1024
-1264
144
944
608
848
224
256
-512
-880
48
240
96
-336
-176
800
400
128
256
-32
-912
-272
368
224
-816
-240
-1040
272
1232
32
-192
880
-544
-688
-528
384
0
-80
16
-720
-624
-160
-144
656
784
784
672
896
496
304
-352
-352
-1200
-1536
112
176
-448
-1696
-352
-144
-160
144
272
-752
-1232
-1216
-864
-736
-464
-48
192
112
528
256
32
208
-272
-800
-352
-240
144
160
272
336
-448
272
896
768
976
-624
-1568
-624
32
-16
288
688
368
272
80
896
-384
-1392
-256
224
144
-176
-336
464
96
-208
1104
688
560
1120
992
-1072
-256
1328
0
-592
-560
-688
-304
624
48
144
640
-528
640
48
-96
-208
-704
-400
192
544
-208
-448
-256
256
1152
496
-272
-640
32
-752
368
864
-1456
-960
-768
-560
-864
560
-96
400
80
-640
-912
496
-896
-1200
288
-656
-352
496
528
0
0
112
384
288
128
64
304
1456
512
-288
-544
-336
464
1232
432
-400
960
-64
368
960
-576
-1536
-640
976
416
64
-176
-608
-176
16
-224
-416
80
-16
-288
1040
336
-528
320
800
-448
-352
256
-80
144
-400
-752
-768
192
-864
576
608
768
1744
928
-208
-192
368
784
-576
-32
-128
-368
288
448
656
704
-672
-128
-368
-1088
-832
320
-480
-160
912
928
-272
-128
-96
352
-320
-1408
-1536
16
208
-1360
-160
-176
128
48
896
560
1088
80
-128
736
-16
272
-160
-688
-176
-80
-560
-576
-1296
144
-1168
-1648
96
-224
-64
416
-112
-768
272
-560
-80
112
496
256
208
144
624
-800
80
192
-256
-688
624
496
-736
112
-80
544
672
736
1504
-880
-1168
-976
-672
608
496
-448
-832
448
-160
-400
448
800
1200
64
-160
-144
-736
-960
208
368
896
-304
-480
16
-1248
528
784
1440
1328
256
192
-672
128
1904
1472
400
-448
-272
-96
-176
-480
-368
-544
496
-128
80
-192
-112
-160
576
-144
1392
1488
784
-224
-64
512
432
112
-64
-1200
208
-48
-1152
-1120
160
128
48
80
-832
-816
64
-144
-1104
-384
-304
336
16
-800
-1888
-352
-1472
-320
128
208
368
-288
-96
352
976
688
-960
-48
-448
-1872
-640
416
-176
256
976
480
176
1168
1376
224
1360
800
-480
-64
-496
752
-304
512
-384
272
16
496
-512
-864
-208
400
416
-976
-1376
-112
224
-480
-480
-304
-960
272
-400
-32
720
-480
-720
384
1248
-272
-16
-192
-288
976
1136
-592
-240
288
-416
-352
-160
288
256
-1504
-544
224
16
-160
368
64
-1680
-1232
848
608
-432
-416
608
-640
368
304
1648
256
496
-192
336
672
368
-384
-912
-576
288
-160
1472
752
-224
512
480
-416
-80
1536
1248
912
-368
672
-64
-736
-192
-320
-96
-16
-64
-400
-1472
496
-736
-1168
-256
592
-192
32
800
1152
1520
784
528
496
480
384
240
-336
-224
1248
832
240
-368
-704
-1168
1008
1328
1216
240
-272
-688
-1088
-784
-672
384
-464
-992
1184
-16
960
912
-704
-80
-560
-96
80
512
-512
-160
-1248
-960
-656
-1200
-800
-576
-208
-608
-928
-272
-816
-736
672
1568
592
-320
-448
-736
-944
-976
-1488
-464
176
224
-720
-912
80
1568
592
48
-80
1200
1440
768
464
1280
64
-144
-512
-208
-32
-96
176
272
-128
-112
-752
-384
-432
-960
-240
-192
-896
-80
720
16
432
-816
80
288
160
1328
1344
752
384
-768
-112
-256
-672
1056
96
272
-1024
-1104
400
256
-304
-1024
-352
16
-160
656
544
160
-272
672
-272
-480
528
672
576
-336
-432
656
-880
-560
-272
-928
-1616
-208
-112
-1104
-2016
-336
-368
-1376
-1184
272
-112
-80
496
-80
-592
-384
-256
1088
720
160
1248
1392
-352
-1248
-656
800
368
544
-336
-32
-320
512
-544
-400
912
656
224
608
176
-256
640
-720
-1296
-928
-912
0
528
-384
912
176
-176
752
768
816
720
-304
-1024
-1904
928
-640
-832
-272
-1008
-1472
-320
288
80
-672
96
144
512
1216
-416
176
160
400
-48
1168
16
16
144
736
-96
-416
-352
160
464
-448
0
528
208
-288
-304
608
1696
1504
512
-912
-816
-864
48
912
736
496
16
-896
928
336
-1744
688
1088
1024
320
896
320
576
144
-1744
-528
928
816
1024
1552
208
-176
-192
496
1344
144
240
192
-16
576
896
-848
-1568
-96
-832
-1424
336
352
-480
16
1936
1712
432
-496
-432
-592
-560
272
144
176
-1696
-1136
-288
-1120
-1632
-1040
400
1072
672
192
-416
-448
-304
192
752
1632
1008
832
368
0
-528
-176
64
-256
48
240
640
1120
1152
1424
32
1520
928
80
528
1152
992
-192
-480
32
-736
-768
304
-208
832
1296
704
0
-336
-544
-1328
-880
-448
-400
-928
16
160
544
576
320
480
480
-320
720
1120
-16
-144
-96
224
384
32
-544
-1280
-1408
128
224
32
704
560
-768
-112
416
128
-256
-32
-448
-80
-704
-864
-1584
432
816
608
800
-880
96
-608
-896
-1760
-1296
368
-624
-416
-528
304
256
544
-96
-208
-656
-1136
-352
384
592
16
-272
-576
992
336
-480
0
112
720
656
464
-656
-448
720
624
-960
-944
416
-16
1072
256
-1072
-768
112
128
304
-688
-880
-512
256
256
112
336
592
-704
-208
80
496
-624
-912
-1184
-432
-560
-640
-672
144
-768
-800
-1568
-112
384
112
-112
0
-800
-416
-576
-704
-1904
-1216
912
688
32
176
144
-208
-880
-928
176
912
-96
-528
-128
-208
-1040
192
352
912
784
688
144
-112
-64
560
608
-96
-1056
-112
1008
1360
656
-928
-560
784
704
640
-48
-48
304
880
1104
-1088
-400
96
-800
176
-912
912
144
240
-400
160
272
-1536
-16
1168
1024
720
880
752
-256
48
368
848
-48
-448
-608
-1456
-592
-80
-880
64
-688
-96
-848
1328
1472
304
-352
592
-192
960
-112
-144
464
-400
656
832
576
768
208
-224
1344
144
288
-224
512
512
1024
816
688
-80
368
-96
176
-384
-912
-1488
-64
-256
-432
-496
-304
-1344
-1024
656
-352
-192
448
416
80
1104
-752
-448
0
-576
-96
-240
176
1008
816
672
-208
688
800
144
784
-832
-624
64
1216
816
-224
-864
1456
480
-272
-352
-1312
-480
320
496
-608
720
1488
-448
64
480
-544
-160
240
-528
-80
-192
-1328
-1888
0
160
256
736
1520
112
576
624
-656
-464
-304
352
160
368
176
-800
-320
-432
-896
-528
-464
-656
-1440
-464
496
256
-16
-384
-528
144
1424
-592
-1680
-176
-464
-1120
224
160
704
1248
384
480
176
-400
-48
528
160
-896
400
64
-144
144
-1920
-1520
688
1104
192
-1088
-192
-688
880
0
1824
512
-816
176
-496
-288
-400
-352
16
-480
-176
-352
0
-624
144
112
-1056
-416
-272
-464
-336
-128
-544
-352
160
-720
-1344
384
608
208
624
-32
336
1456
80
-832
-1184
624
880
320
800
-16
992
1184
976
832
-528
-544
80
256
656
400
240
-448
-784
496
272
-128
-880
1024
-576
-960
-16
384
480
-144
256
912
640
1216
912
-656
-80
912
496
64
352
352
-528
-1664
-1312
-1360
-80
560
-416
-1184
-624
-720
-240
-784
-144
-80
496
-64
112
-688
-176
160
1248
416
-48
432
-256
-912
512
-320
-336
-736
-128
128
480
1008
1056
-368
-1232
-336
512
-304
1136
1696
1200
1600
-400
-240
16
-48
640
816
-304
0
-32
1152
1696
1376
496
384
400
128
-96
624
496
-672
-656
0
-576
-240
-1360
80
-800
-208
-192
-1216
784
160
-512
-240
-688
48
-464
-496
-128
384
-32
-704
528
288
-496
0
-544
-1088
-1040
-400
-1808
-1584
640
1008
304
48
80
96
432
-288
-64
640
-16
-480
-1360
-576
1808
1808
1280
-896
-1472
-304
192
704
400
-64
64
304
96
-336
-416
-96
-224
192
48
-208
-176
848
-480
-288
704
496
1712
-48
-272
64
912
256
-1088
-224
1264
-176
-480
544
1088
128
-128
-1584
-1888
288
-1104
-240
-320
-48
-848
-896
-256
-848
-1232
-304
800
1136
-1152
48
-480
-864
656
928
32
-288
528
144
-160
384
944
1920
64
-576
32
640
1072
704
512
-608
624
1040
1184
1232
1136
1008
-112
-512
112
560
896
-480
-144
480
1056
-1136
-672
-128
976
240
464
1152
480
688
320
-288
1024
768
736
608
-160
-64
-896
-720
608
240
80
128
1072
768
-864
-864
-240
352
960
496
-512
-528
-352
1040
320
-912
-336
160
-528
-1408
-1440
-864
-352
64
160
208
-960
448
1120
224
1408
544
144
-464
-64
976
-288
-720
208
16
624
1200
176
-368
-48
1024
1632
240
-128
688
768
-304
-1728
-1040
-1184
-512
752
752
576
-272
-688
-352
1072
-272
-352
272
144
304
592
784
656
304
-560
1120
1168
-512
-480
-640
192
592
1088
-208
-304
-1344
-1392
-352
-1088
-464
-512
-1056
-80
272
-64
-224
-640
-48
-384
-496
704
-96
-480
-864
-816
448
976
512
592
112
576
960
1200
496
1568
1328
304
912
1888
304
-1440
-736
752
448
-416
-1296
-240
1248
1952
-256
16
-944
-1344
-448
-800
-1632
-1936
-576
-736
1152
528
-1344
-160
-736
16
864
-416
-96
272
96
176
544
1248
720
272
-368
-144
-64
-16
256
-160
384
-64
-176
64
320
1040
-64
-704
-544
-176
-144
-208
0
-544
48
-480
-448
-960
192
1408
1952
192
-512
-416
-1728
-336
-1808
-800
496
-176
-992
544
176
-128
192
528
-800
-400
-512
-1552
64
480
400
720
400
-144
352
1296
240
-1504
-1104
-1904
304
-736
-560
-448
0
160
544
1712
112
400
-16
976
880
-128
-576
-896
-176
-112
-800
-464
-512
-512
880
1184
288
-288
-1312
-528
-672
-560
-1152
-528
-400
-848
128
128
608
656
336
576
-192
-224
-1008
560
16
400
784
816
576
-1120
-928
144
272
560
512
-1344
-976
112
-192
-448
-48
-528
-560
32
1600
1248
1120
112
-176
432
-496
-960
-992
528
64
-1360
80
-400
-16
-528
240
-624
-1664
-608
816
1248
688
608
48
-48
432
192
400
432
-320
-672
400
176
688
1088
384
-64
-624
-1200
-32
416
272
224
544
-880
-1616
-944
-1456
-608
-144
1072
720
416
976
944
992
0
608
928
304
-272
-432
64
272
368
448
336
-400
-752
-256
-592
-1040
-384
-128
-608
-848
416
448
1184
464
48
0
0
1152
-496
-32
448
304
-240
-112
-512
-1376
-160
416
-704
-416
32
624
496
-336
-1088
-592
-1040
-240
-176
304
352
-208
-16
-112
96
-544
512
1280
400
832
352
-272
-400
640
-368
-784
-32
-336
64
-784
-1152
-240
-608
-160
-400
-240
560
-208
-560
-64
-208
-128
256
-320
-368
656
128
368
960
432
816
336
-640
-800
-1296
-944
-640
-1280
-608
-1072
-1488
-176
-528
-960
-992
-464
-128
-144
-688
48
208
288
256
-720
-1280
-832
-112
192
464
192
720
48
224
-576
-144
880
128
688
400
-1040
-1296
-560
-96
32
-96
-1040
-336
-224
480
480
96
-64
768
976
192
800
64
-432
-192
592
-336
1472
144
736
592
896
208
-192
-80
48
-544
-1680
-1680
1232
-176
-1392
-704
-576
352
352
-496
-32
-64
-752
-208
-1040
-1600
-496
-688
288
1968
1456
-688
64
-304
-592
912
-1104
-752
144
-352
864
480
704
-864
-144
992
0
720
576
96
912
704
224
1232
0
-1632
208
464
-672
-1168
-976
-512
-112
-656
-352
864
-1248
-896
-80
-512
224
-912
112
336
352
832
1056
976
-896
-1376
-272
-48
-352
-512
320
1056
592
-256
-624
784
576
352
-1136
-1056
-240
0
-1312
-416
1472
1008
64
-240
-784
336
304
-96
320
720
288
96
-112
-384
-1536
-512
64
-880
-16
-624
-800
-608
-224
-96
160
-96
-176
-624
-416
416
480
208
304
896
208
1072
320
-848
224
128
880
784
64
160
272
176
80
240
96
-128
48
304
-480
1264
512
-320
-816
576
-272
304
-512
-48
-1088
-576
624
1040
1008
-944
-1200
-1040
-16
1648
400
464
32
96
96
176
-528
-1312
-608
-560
-1184
-832
80
-304
-416
576
832
624
-544
-448
-1424
-1328
432
352
-528
768
-336
-432
-272
-224
32
464
-752
-1344
-672
-288
320
32
-720
-1056
32
928
320
448
-496
-784
-480
-432
-800
448
656
544
256
544
-448
-1584
-400
-1520
352
416
-784
-1328
-1552
-128
496
224
-1552
-624
112
208
0
80
32
-512
-864
1648
928
752
608
96
416
-784
512
192
-80
-1072
-976
-576
-624
-816
80
-560
0
272
688
112
720
368
0
-1168
400
432
880
-192
-976
-544
640
-32
128
848
-128
-976
128
160
-720
720
112
224
848
1520
672
640
416
-352
-1040
880
736
304
1168
448
-592
-880
208
608
-336
-624
16
-864
-1312
-976
528
128
864
800
368
-192
480
736
384
32
-64
-688
-112
80
624
0
928
368
-1504
-1728
-1744
-288
-224
-96
448
32
480
1216
816
800
1792
848
432
976
416
752
240
-304
-416
-32
1040
448
-208
576
-112
-64
1232
-432
-464
-208
1232
1648
96
-448
640
448
496
-496
-688
-128
-336
-1152
-592
-800
-480
432
496
-224
128
0
-640
-192
-208
1136
1072
544
256
32
0
416
-208
-352
-576
-368
352
-432
528
32
576
496
1280
-400
-1056
576
-1696
-544
-1072
-832
656
240
48
608
-432
544
528
720
688
-608
336
656
480
960
496
-32
352
1040
720
160
-80
-544
-368
448
448
-464
-128
-496
-48
-880
928
272
112
-896
-512
208
-144
-1232
-1264
304
464
-128
-112
256
144
-432
-384
-128
-224
-688
352
-128
1120
528
-1472
-464
-1056
-1728
640
1088
1296
-208
-48
608
544
192
544
-48
288
480
-416
992
1600
-48
640
192
320
-176
448
-560
-640
-128
16
-912
-640
-288
48
736
448
1328
1040
592
-784
-256
-688
-480
144
-480
32
-640
288
720
-64
-688
-512
-256
-112
592
768
1136
784
-368
208
832
944
640
288
-416
-784
-240
-320
-288
-48
512
-400
-992
432
-160
-240
464
-208
32
32
-480
-352
736
736
144
-464
416
480
-384
-48
896
1088
1920
640
432
-848
-864
80
-320
-704
592
160
-128
720
416
144
288
-624
-592
880
1104
1168
1040
-464
-656
-736
-528
176
-96
784
1024
1952
768
-592
224
576
336
544
544
48
240
-144
-416
624
784
-240
-752
-192
880
1344
1232
224
-672
416
496
-528
-1392
64
-320
336
-240
-1152
-816
528
-208
-144
-192
608
48
-944
432
544
832
16
464
-64
-432
-1424
-560
-464
-272
-592
-48
1472
0
496
1344
16
-736
-48
-48
1216
704
128
256
-16
-96
-384
848
1264
576
480
-240
-320
-256
560
-176
-1056
-528
-400
608
608
-336
-80
752
224
1088
96
1168
-496
-544
-304
-432
-1072
-752
-576
-592
-1648
-1072
-624
-304
-272
-768
-448
256
-64
-288
960
224
-1200
624
384
-48
-864
-80
-688
-1360
-512
-368
0
1168
-96
-368
-928
-896
-224
912
288
64
-624
-176
-112
-1024
-496
816
-624
272
656
-96
-544
-1232
-1504
272
-80
-352
-512
-1920
-800
-672
-448
-1424
-1344
112
-688
-1824
64
64
112
-1232
-352
528
688
-704
-784
-704
-240
320
-928
704
432
-32
-96
480
-640
-1040
-1328
-336
48
96
1008
400
320
1216
32
688
0
704
1040
-416
672
-416
176
288
-480
-304
-128
576
944
400
-512
-192
-1264
-1344
-1488
-1504
-400
-512
-592
400
208
1536
720
192
-400
496
-112
-80
-784
288
-256
-480
-320
0
976
848
1200
784
1120
1280
-416
16
-32
-144
528
-16
-400
544
192
608
528
-32
-16
960
576
-544
-128
416
480
-192
-384
-1232
176
1008
1168
-160
240
592
640
-32
-416
448
-256
-336
80
32
-288
-512
-912
400
16
-128
-224
-944
-208
592
816
240
-1088
-432
80
176
960
-160
-256
32
-160
0
112
128
432
-16
-496
-416
-160
336
80
816
-496
160
-224
208
-432
-384
-384
-32
448
-512
-800
-80
-368
-512
-224
752
336
-864
192
656
144
240
-400
-464
-576
160
-176
544
512
-64
384
-144
-864
-848
-192
-272
-672
-768
-1056
400
-96
-688
-560
-1072
0
176
848
1072
1232
1776
240
-368
-336
-1536
-2000
-144
0
224
0
640
416
1008
384
624
-80
384
272
304
400
64
-576
-336
-640
160
416
1216
1248
288
-400
-64
-464
-784
-1136
-800
560
-528
-144
928
32
-656
320
576
1072
128
-352
-336
176
-576
-832
-1072
-512
-288
608
1056
432
-176
-880
-960
-656
736
224
-112
656
304
256
-944
-256
240
880
464
368
432
-1392
-1200
1216
-176
-960
-1216
-1616
-544
-832
-112
400
912
1040
32
-848
-400
-912
-176
768
480
432
-1280
-80
-464
-224
320
-368
-176
288
-1440
-592
1088
1344
688
-240
-560
-1120
-736
-560
432
48
-864
-1680
-1872
-1184
-1472
-224
224
320
-912
128
1392
112
-1600
368
256
592
1200
-464
-144
80
-368
-160
-576
592
-96
384
160
-160
1088
816
80
-384
-272
272
-80
960
912
-208
-336
624
608
-256
-1200
-144
256
256
-1168
-864
928
848
288
352
384
-320
240
-992
-944
-160
-976
-1520
-96
480
272
256
-16
256
-32
-384
-672
368
-144
-208
-320
-48
208
192
-400
720
64
-928
-944
-640
-560
-784
-48
-592
144
-352
-224
-192
-944
-656
368
-224
-832
-1104
-32
-112
1152
1136
912
256
-128
736
560
-272
-784
-64
912
640
-256
-1376
-560
1024
704
1136
128
-464
-112
-672
-208
928
400
96
800
-96
320
-720
112
-672
-1248
-1152
-416
-224
368
688
672
0
224
1104
-160
-768
-272
96
864
64
-272
-960
-752
16
608
-128
-64
-1760
-80
-832
-96
-368
-48
-544
-16
-528
112
480
-544
-528
192
400
240
224
656
112
-224
1264
1088
64
-96
1664
960
352
784
848
128
1440
224
464
608
64
-240
-640
32
160
128
-544
208
-1200
-480
1280
-208
-496
-432
-256
-256
-448
-336
864
608
784
-64
48
-176
256
-720
-640
896
1472
240
224
544
-192
288
224
736
752
1040
560
-320
768
416
-560
-608
80
-272
-576
144
-112
-1808
-336
1232
688
752
912
912
560
0
-848
336
640
-160
-144
176
-384
-1632
656
912
160
-160
-1232
608
-64
1168
880
1184
-112
-432
432
240
160
-720
544
528
544
1152
736
-48
16
864
528
384
576
-928
384
656
0
-560
-368
-496
-1216
-1568
-1408
-144
480
176
304
384
-192
-448
-1008
-592
176
-944
-720
-544
-480
-720
112
368
496
768
-544
-272
144
496
592
64
192
480
272
-768
176
-480
-1616
-720
448
896
-224
224
-64
-688
-768
-224
800
224
576
32
-256
-352
-496
-272
32
1168
1088
-880
-768
16
96
-784
-1392
192
48
848
-704
-1392
-752
-384
16
-768
784
896
208
400
-1184
48
1664
560
32
-576
-336
-864
464
-992
-896
176
224
-720
1072
928
-384
-1008
0
-752
-352
432
-704
-1536
-1872
448
288
128
592
736
-1056
-768
160
-320
352
16
144
160
368
-384
1072
-592
-96
-128
-112
-128
-1264
-800
512
128
1088
-144
-720
480
1648
640
384
-192
-272
-208
192
240
-64
864
656
144
240
0
-400
-816
-848
112
-224
-48
624
304
-544
432
496
-272
-560
-656
0
-1472
-352
368
1552
1360
1232
1072
1088
1424
544
656
16
112
768
224
768
960
1024
32
-1296
-112
752
400
1248
784
592
1488
-48
272
-416
256
1072
-464
-416
368
1216
480
-432
176
1664
1392
432
-64
624
-512
-784
112
816
864
-368
-1072
-288
-1408
-816
144
208
-96
-384
-544
1440
640
-480
-1568
-1152
352
736
432
-336
-512
-32
-208
16
192
624
-1312
512
1456
752
32
-80
-1104
-256
768
208
816
-688
-272
208
544
1120
-160
448
-512
-864
-928
-80
272
896
400
-304
-224
-848
-560
-688
-688
-1008
-416
128
1088
-1024
-1216
-400
576
864
112
-640
240
-64
608
224
-304
-416
-1024
-544
816
272
-192
496
864
560
704
848
-96
192
-1168
-416
304
304
-160
320
560
512
-608
-944
-848
-976
-592
-80
-176
-544
48
-32
592
96
496
-240
544
-272
-448
384
432
-384
144
-208
-752
-896
288
448
-208
288
1088
736
-608
-1200
-128
160
-80
496
-736
48
-48
0
704
1072
-224
512
96
816
320
384
-1360
-1632
-784
-800
-1552
-1504
-608
-64
576
-416
624
-256
-496
-960
-96
864
-368
1136
672
-160
-16
736
224
208
656
-816
-704
288
-288
-896
-832
-1088
-16
896
864
624
560
-304
-160
-704
176
-320
-704
-464
80
-304
-576
-48
1040
448
128
736
256
-848
-1872
272
528
160
1600
1504
-176
304
-64
48
-224
896
1136
464
1072
320
-272
-160
-608
-1152
-1376
-688
-1152
96
672
208
-496
-1440
-1152
-1328
-256
16
416
560
-528
-480
464
1344
976
-144
256
368
160
-672
304
480
144
-1344
1040
912
64
64
-624
-496
432
-352
432
624
176
-1712
-976
-112
-112
96
-848
-1248
-704
-1328
752
64
-992
-864
48
-16
-1056
-576
-16
304
272
-208
128
-320
-256
-864
-448
-1168
-944
592
208
64
-448
-464
-768
992
-48
-128
-1040
-176
320
528
192
-48
-192
-160
-304
-160
-704
-1248
-880
96
48
192
16
-736
-656
192
-464
-1616
-944
-256
-544
-976
272
384
0
-320
-560
-640
-1088
752
1488
816
-384
-288
704
352
-224
-944
-1104
192
-1184
-192
32
480
-80
-128
928
688
1200
-1120
-16
848
-608
-416
832
32
448
736
-352
-560
928
544
-880
-1008
-608
-48
-224
-736
384
192
-304
-592
528
-1424
-1776
-496
736
-160
1360
1360
48
-528
-48
-464
-720
-640
32
576
656
528
288
480
352
832
224
80
448
384
784
272
64
-32
128
480
816
-656
-1248
-256
-816
-1520
-688
208
592
-272
656
-288
-624
-1344
-208
272
848
784
240
-1424
-448
896
1024
-432
-1120
272
384
384
896
624
272
-192
608
1600
80
96
784
304
-1040
208
208
-208
512
-1040
-880
-240
-304
-144
656
-176
-32
1248
352
176
544
480
-512
224
336
1056
672
-288
-736
-1392
-416
-432
-272
-1360
-864
-368
544
-528
-416
704
-64
864
1408
688
592
-1440
-1088
96
144
288
1168
-64
-608
416
-112
304
-160
112
192
-400
-816
208
144
304
80
624
-240
-624
-320
144
592
416
176
128
144
128
480
672
80
576
176
-272
-1760
-32
-1248
-96
-48
1984
1232
368
-608
-496
-320
-544
-1072
-1136
144
656
384
496
-560
304
1200
1056
432
960
160
-416
224
624
96
-576
-352
272
-80
16
-96
-544
-1488
-320
-432
-1040
-736
-400
464
832
1168
1168
1248
32
-112
240
624
96
-1168
608
240
-16
240
-80
-288
128
512
576
-160
160
592
-704
-848
912
-224
-608
432
-1232
-528
896
896
-752
-960
-304
416
-144
-48
832
448
144
-800
-80
912
384
-656
-368
-1360
-592
448
-592
-192
208
1136
800
-64
464
-192
-464
-592
-144
-256
-160
-80
-544
-176
-432
-128
-560
-144
-112
128
-416
304
976
96
576
304
704
512
-560
-1328
-336
64
-608
912
288
336
592
192
-48
352
16
-1168
-720
-240
-32
-608
-352
-704
-1184
-1568
-784
-752
336
368
576
-240
-960
128
160
-1040
-592
432
1072
224
48
-32
848
560
208
-432
-656
-768
-640
-288
-432
-192
224
208
-512
-192
256
912
496
624
-480
48
-336
448
-1056
-880
0
272
784
528
-272
-512
-368
-640
-480
0
800
128
416
96
-64
-352
-736
864
32
-352
-832
-32
-496
-1024
288
448
896
224
-160
448
208
64
-64
640
864
1280
1744
1168
976
864
1456
1648
1472
224
768
1008
848
496
-16
1024
-336
-720
-672
-720
-352
-368
-1600
-1488
-272
800
816
-96
-1072
-112
-560
-720
-720
-144
-96
-16
-848
-1040
-1360
-672
160
80
-608
-960
112
112
-352
544
1312
512
-528
-464
-736
-1200
-224
-144
64
512
192
912
704
608
1408
416
-656
-768
-768
192
-48
-1488
-672
-160
-400
-64
48
-464
32
128
-112
400
-224
-32
-64
672
32
256
368
224
1168
912
720
336
640
-336
-64
-752
-1136
-544
-768
-704
-1152
-112
-384
-1104
-944
624
352
-816
-688
16
416
112
256
-32
-704
448
144
-768
960
64
-176
-752
-1168
-1904
-64
480
-1008
880
976
64
-480
-240
32
160
-1744
-896
-624
-848
-624
144
496
64
-464
464
-304
-960
-544
-1440
-1056
400
-544
80
-32
-976
-272
624
1328
240
-1024
-464
-1152
-176
-880
-336
-656
-832
-640
-256
-256
-768
-608
-368
-400
16
-64
112
576
-304
-672
672
240
672
288
-144
1168
1360
1632
-96
-208
112
848
368
256
-864
-432
-432
16
-304
288
880
864
-144
784
-16
-432
480
1328
1584
304
1008
1008
-448
384
128
-256
64
-640
-272
-192
-496
80
-1568
144
16
-1424
-496
608
96
32
-496
-480
-768
-640
-1056
-144
336
-448
48
-944
-832
368
1424
-32
1088
1376
-816
736
784
48
-480
-32
848
-480
-368
16
656
-496
-528
672
960
800
16
-816
-304
752
-112
80
272
32
1088
944
1200
288
128
576
240
672
352
544
-144
560
-752
1552
1616
544
720
-688
-768
-144
352
32
-432
128
448
480
-16
640
48
368
208
-704
576
208
-352
-112
512
-608
624
1696
528
-384
256
560
704
-48
496
1296
272
144
192
-736
-128
-208
-928
368
208
-528
160
544
1568
800
752
528
-704
-1184
-656
1264
1984
-768
-480
-784
-528
544
800
1424
432
304
1056
-592
-160
272
-144
624
1408
1936
1344
-752
384
1424
304
-416
48
32
1296
576
-144
336
-496
192
-400
912
-144
-576
-256
-192
-272
-1008
80
400
1024
-496
880
-384
-608
-672
160
416
-352
1088
-432
-1200
-272
96
288
144
-544
528
320
-1136
384
1632
1104
-16
-416
-96
-1312
-656
-976
-176
-832
368
400
0
464
-368
-448
704
-544
192
-64
-512
944
832
-288
-208
32
-560
256
688
352
768
352
-64
272
256
512
976
960
496
-800
-1184
96
1056
720
224
400
1168
1152
1024
48
-912
-208
128
416
-64
-336
-592
-656
640
1408
-272
-1248
-1312
-528
1056
64
-208
176
976
784
1088
1120
-592
-112
816
-192
384
176
-384
-32
1536
816
288
624
608
720
-64
-1520
-480
288
176
-656
32
-640
512
1136
-320
-1040
-880
-1328
-688
-528
544
1072
912
1072
560
384
-704
-944
-1568
-624
0
1232
624
80
-144
-512
-768
-384
-752
-176
-448
-1040
128
528
928
912
-880
-336
-736
-1200
-672
1088
544
-1456
-800
1328
512
336
848
-320
-816
-192
-208
-32
-848
-208
-1536
-336
1504
240
-976
48
-160
-512
-112
-528
-368
-512
-288
-416
832
1104
512
352
1216
544
720
864
656
-192
880
480
80
-208
-544
176
-736
960
368
-688
208
-1008
448
1376
1664
1472
448
-640
80
1328
544
48
-816
160
736
1008
80
-560
464
-16
-592
-176
96
-400
-864
-496
272
528
848
96
336
-512
1120
176
96
-832
-432
-896
304
-176
-400
-288
-640
144
160
672
-624
-992
-352
-224
-96
1024
528
-416
-528
-448
48
64
496
1168
704
656
-320
720
-352
-192
192
1392
592
128
1120
-80
704
160
-256
672
1024
-896
448
256
-1280
-896
736
48
368
848
80
-384
-352
928
80
1152
192
128
-352
-80
-160
736
-272
720
-16
-144
-1024
-1488
-800
512
256
32
-1136
96
560
176
1040
80
736
-32
64
-304
272
336
-688
112
640
96
560
192
64
-432
-1040
-288
-96
192
80
368
-288
816
720
384
464
448
-416
-864
-496
1056
-64
64
-848
-384
-112
16
48
-304
-240
576
560
64
256
-576
528
416
1040
1328
-384
288
1248
1360
240
-784
-1008
800
352
-1376
-752
-784
112
32
-144
576
640
-192
-640
-976
-1840
64
-80
-624
592
608
-160
-464
-1456
-352
-1040
64
-928
-80
1424
624
-464
-496
448
32
448
288
672
-32
-832
416
96
-64
128
240
320
96
-864
-1696
-160
-400
640
-368
-656
816
1584
96
-832
-208
-336
-80
336
512
224
592
608
208
-736
336
-112
576
928
16
-880
304
32
-272
-208
-832
-608
-64
176
208
-32
976
80
-336
544
112
-112
-416
240
-512
-944
-1664
256
576
-64
208
-688
560
832
64
-880
-1216
-1616
-1648
-720
-80
-288
-128
-1664
-592
-544
176
-368
-400
-448
-624
-336
768
1312
-1920
-1552
-432
-240
-1040
-848
-720
112
-160
192
-16
-48
-400
-592
-1072
0
848
720
-1104
-352
-416
-432
480
528
-544
-1296
-608
-16
128
736
640
208
464
-80
-64
-176
1104
768
-1136
80
832
672
-432
-1168
-432
-512
-656
-1648
-928
160
592
1104
32
144
0
800
-176
-160
-1104
-704
0
-128
-1488
-16
-1376
-1536
-1216
-1248
-592
-208
256
-336
-736
-656
-1008
-1616
-1104
272
384
816
-688
-80
480
192
576
320
-672
336
96
-432
448
1184
1664
160
-672
-1568
352
912
112
-240
-336
672
-688
-432
-752
-1072
-1728
-1424
-240
-16
112
-64
-272
-1056
96
1376
16
-640
-1760
-1136
-128
-560
16
1040
1008
288
-336
-688
144
320
80
-704
-336
368
352
192
-864
-1152
-224
-320
64
-256
-736
-1184
480
1568
1584
1888
480
-1072
-1200
608
368
-528
368
-96
-144
1184
368
64
-48
-256
-368
544
1024
-224
400
528
1152
-112
-848
384
1520
496
-1056
-528
-352
576
848
240
48
784
-176
1104
752
-496
0
-1936
-272
-400
-1104
-208
-272
-144
-192
496
-80
-48
-32
1024
1184
1056
400
-512
48
832
704
1200
720
192
-1104
-864
-176
-272
-336
1280
1024
496
-96
736
800
592
0
-192
-368
576
704
848
-464
-512
400
64
-832
0
1040
240
-240
-464
-64
-416
576
1712
320
-240
-48
-912
848
-176
-608
-928
288
-160
-448
256
-528
-1056
256
1792
592
-848
-368
144
240
256
-272
-848
-448
-16
64
496
80
848
-368
80
80
-96
1264
608
192
672
448
-400
-128
-208
32
64
832
1216
464
64
1248
496
896
-112
384
-304
-1072
-1536
-1280
32
1536
320
1120
64
816
-64
144
-480
-240
-144
-112
288
-256
-144
656
688
320
1120
352
592
496
352
-368
-800
-1232
-512
-208
-816
448
-96
64
32
224
480
-672
-944
304
96
736
1024
352
-1248
112
288
80
400
-272
0
16
464
1312
944
560
672
176
784
448
1120
1040
-848
-880
1120
256
96
448
864
176
1248
320
-688
-1136
-48
752
96
-352
-512
-48
-400
1152
800
544
512
544
688
704
160
160
64
288
240
464
-496
-752
-272
-720
-1040
64
752
-368
-752
-1072
-528
464
240
-1152
544
-96
-656
-864
-896
-416
-912
-80
704
656
144
-1056
-832
-848
-656
1024
1040
48
-592
304
544
240
-528
416
1088
992
0
-48
-736
688
-80
-64
-448
-400
144
-272
-576
-528
848
-16
-496
-496
-432
240
-816
-432
672
96
-304
528
752
336
560
624
-1872
-1088
-1088
-1680
-384
288
-592
-144
352
-208
-304
-640
-1216
-1632
-1536
-1280
-1184
-832
640
1168
224
-288
-304
-288
-720
-224
96
144
144
-768
-416
-224
-576
-944
-1136
-224
-416
-80
-240
-1648
-304
688
1488
480
192
-240
-128
-336
-1280
-32
240
-208
-1312
-832
-976
-1312
-512
-560
-192
-672
-800
416
96
-528
-832
-832
240
-1088
-688
1200
592
-592
160
-160
-272
-1088
-1472
-640
384
208
-1296
-336
1008
592
-704
320
48
1104
528
-432
256
176
-1488
-1264
80
-896
-544
1296
400
-448
-448
-560
-400
-32
208
-688
-240
320
-336
-1088
416
1056
976
-128
144
448
192
-640
-1024
-16
608
352
432
560
112
736
1920
1504
1040
512
832
-16
-112
320
560
992
784
1008
544
368
160
-448
-672
-48
960
-1056
-1280
48
368
-592
-352
-1200
-512
-112
1104
64
192
192
656
688
96
16
176
240
-928
416
288
192
-128
-32
-224
-144
-256
-112
128
-176
-880
-336
-176
0
1152
1296
352
-1056
-512
-336
1200
576
960
-992
-1024
1056
528
-432
-288
-816
-704
-624
-1536
-576
-928
-1072
-400
352
400
992
32
-560
48
1088
-352
832
736
1008
896
-608
-80
-112
-1376
-128
-112
-704
480
912
384
1216
928
-496
912
912
256
-96
-720
-64
752
-80
-64
-512
-96
-576
352
432
-80
-688
-304
-32
64
-464
-160
288
64
-416
1120
-112
-480
-928
-16
720
-608
304
-256
-1456
-1248
-928
-464
-1536
-688
0
368
-224
-592
16
1024
-624
-1216
368
-160
640
1296
528
-320
-384
-64
1120
1280
-32
-112
-736
-944
-896
528
-224
-1280
-1136
-192
-464
1408
544
-1008
400
1312
-64
-368
-176
-608
-80
800
304
-912
-720
480
-928
816
400
-208
-544
112
-432
-368
-528
-688
528
304
1152
-48
384
208
-112
-1168
-336
432
992
848
208
176
640
1536
736
1968
1264
528
144
-464
896
1104
576
864
608
-1376
-848
128
448
1120
544
880
832
368
832
1488
1872
1216
-816
-16
1248
1056
1024
800
256
-496
304
704
80
224
128
464
816
384
-528
-256
128
80
-976
-1280
-976
-1184
-1744
-1280
224
448
-976
-464
448
-720
-192
768
-128
1024
-432
576
800
400
512
-336
-784
320
480
-512
736
1200
-720
512
624
624
1152
-80
400
432
32
-752
-656
-880
-896
-1136
-176
1184
528
480
992
0
64
1152
848
-464
48
-224
-336
-656
880
976
-48
-992
240
112
400
-704
-224
16
112
-608
960
432
-480
240
224
-64
-672
-192
816
32
-112
336
352
944
272
16
768
544
-384
-64
400
-528
-1264
-32
272
576
-528
-176
-1232
-1456
-976
-944
-816
-304
-176
352
-64
304
704
144
944
-128
-416
-1680
-720
-16
464
576
384
864
1008
208
-416
176
320
-144
-1328
-608
-384
128
-32
112
1360
912
-672
-848
-400
-1120
-1440
-80
256
1328
688
-256
224
-496
784
816
544
1520
816
-80
-512
1088
784
576
48
-592
-1136
256
-672
-320
624
16
64
-944
-640
-256
1024
384
-1216
-1792
-544
-656
-864
-864
-656
-608
-464
16
368
16
-528
384
-368
-1472
-720
-784
-624
-960
432
336
-48
192
1152
400
-256
192
736
656
784
528
-112
-48
608
240
1184
400
560
976
1088
832
560
-112
-256
-384
112
-880
-1664
144
1024
1056
-80
-832
448
288
-32
-208
-704
-800
-688
192
480
-400
0
416
656
-96
864
320
-336
-464
176
-336
-592
144
736
736
-400
1120
-32
-352
-64
-560
-1392
-544
768
224
-624
800
-272
336
352
160
-832
624
-48
-512
704
832
144
400
-752
-880
-304
-480
384
-32
-384
-16
-1248
-16
464
368
-128
-256
288
-400
320
-448
-576
-1152
-96
-912
-752
-720
16
544
400
-1520
-1088
1008
-688
-704
-144
1280
1136
736
1136
768
608
128
1392
1184
-416
-720
32
1168
560
-208
-1216
-640
-512
-240
-736
16
48
-416
-512
96
656
-1296
-1216
1632
1248
672
144
-480
688
-208
-976
-208
752
176
256
464
144
208
-304
-128
-352
1024
1088
1024
624
224
-400
-64
-576
-432
736
336
-576
-928
-544
192
1088
720
432
320
-112
-480
720
848
16
-528
-592
-864
-1968
-1280
-352
-624
880
736
176
512
-544
-800
-1136
-432
368
-448
-96
-144
768
1264
352
-256
128
-1216
-1200
-496
-176
-32
-960
-624
-128
-64
-1216
-48
-704
-192
-432
-1232
496
288
624
64
-1328
-720
576
32
320
80
-608
80
-672
-736
-496
-800
896
688
160
48
-368
-480
672
-288
-288
-256
-208
-736
128
-192
-112
160
384
320
608
-464
176
-272
-1520
-1008
-512
-464
-384
-576
-176
-848
336
144
-272
112
-304
-16
256
16
848
608
400
400
128
-32
896
368
144
-448
16
-496
-432
752
992
416
64
192
-80
-224
-848
-464
272
-528
-656
-1152
-1408
-1056
-384
-208
-544
-400
-288
-848
-496
-128
-1200
-736
-1104
-1088
-208
832
352
-416
784
-256
-160
448
576
320
-1152
-112
-144
-16
-816
-928
80
224
-1184
-128
-736
1024
-208
-576
784
96
-160
16
144
-240
144
-320
-80
-1824
-1888
-272
80
832
672
416
-816
-928
576
656
-112
224
-80
-304
-176
-224
592
944
1024
1328
1472
816
-800
-368
272
-336
-288
288
208
400
384
-1136
-896
-144
352
640
64
96
1008
1024
-784
-80
752
384
1136
736
48
-240
-768
-512
256
1168
848
-832
352
544
-640
-48
304
432
704
832
704
112
928
1120
-112
-64
560
-384
400
-896
-304
16
-240
-1408
-192
-112
-416
-16
-544
-576
-480
32
-480
240
1344
368
-160
544
-864
688
1440
1392
464
-112
736
448
1728
160
96
560
-800
-1376
-288
752
752
-176
-592
480
-128
-1120
640
624
752
656
-224
-1312
96
432
-176
-1328
192
-176
-384
-304
-208
-288
-784
-928
-768
-1088
-64
-64
-688
-432
-1584
-1200
-144
224
-592
80
288
560
-432
48
-288
1008
880
-640
-48
688
-1232
-1344
-1424
0
656
-384
-1376
864
784
720
-224
-240
384
960
-16
-848
-976
-320
-608
-352
-864
-576
-480
512
608
-240
-944
-64
-400
-720
-960
-912
368
-48
-384
112
-160
48
96
-512
272
96
-480
32
96
-608
-16
256
-272
-144
-32
-1648
-944
128
-656
-688
112
-80
528
816
736
-144
-16
-48
112
-112
-400
-528
368
-48
-16
160
-48
-368
-560
240
368
-16
-576
320
-544
80
304
-1056
-1264
-736
-480
-752
-400
416
640
0
176
528
1136
496
-544
-592
224
112
304
96
64
-352
-128
-256
144
-160
-704
-784
288
528
-576
-1088
48
1568
1184
928
-400
-736
432
-32
288
320
1280
688
-1312
-944
400
-272
-576
-256
-720
80
-160
448
224
1408
0
1152
-96
576
32
1120
-96
224
1088
176
768
384
-368
-736
-1792
-976
448
-464
-272
496
1120
512
1040
160
-112
-704
-1200
-624
736
272
-480
-176
416
432
624
96
-624
-768
64
112
1472
464
-848
-1072
112
1136
-496
0
1632
1376
1824
1168
640
656
784
480
-832
752
1408
512
176
-448
544
112
-304
352
-896
-432
80
320
-576
816
688
-400
-352
-880
176
192
-304
-288
-32
1040
848
1216
352
384
1280
96
720
544
384
448
192
-512
-448
480
16
-1072
-784
1648
0
128
-112
160
336
-288
1184
720
400
528
-192
688
352
256
400
256
16
1344
64
368
368
624
224
384
464
416
-176
-432
-720
576
-208
16
-1104
-1104
-1072
448
1920
1200
1328
880
32
464
96
1232
-16
-656
-544
-768
496
1136
-112
-160
240
-176
-288
544
1840
80
-816
-960
48
1392
368
-48
944
1056
528
-224
-272
-960
-336
16
-592
496
576
-80
-272
800
688
-416
-528
432
608
960
560
-304
-272
368
-464
64
-32
80
576
496
1120
176
-160
176
416
320
224
-800
-480
608
432
-480
-1152
240
-336
-1136
64
128
672
-160
-112
416
-48
1072
304
-384
352
816
960
-384
320
224
1024
304
-80
448
-384
-480
160
368
160
-816
528
576
-896
-1392
128
-592
-256
-240
-1056
-1152
-240
448
-544
-1072
-336
-512
-368
432
-832
-720
-320
-960
80
-224
192
208
592
336
624
672
-320
96
-288
-880
-960
-1872
-320
1088
-144
-368
-128
-624
-1248
-1040
208
480
-224
592
96
-576
1152
960
432
336
-16
-288
-48
-1040
976
1056
848
-80
528
960
-432
-1472
176
-80
464
912
-720
-1536
-240
-96
336
-208
-32
-336
-560
128
-432
240
400
-864
-352
0
-208
-288
416
-592
-288
-688
16
496
1008
976
-112
-816
-320
-1296
-112
112
576
288
-160
0
-656
-688
-736
-1184
-416
176
-448
-1040
-528
160
992
1568
-464
-912
-1008
-1264
-368
-2016
-96
720
32
-928
240
96
-80
-112
432
-1056
-896
240
-832
-1248
-1424
496
192
496
368
640
-272
0
416
-80
624
768
96
48
192
64
-688
496
528
400
-672
-1216
48
624
-288
-848
-448
-384
576
-544
-528
-576
1008
96
-16
832
-432
-368
464
224
-816
-1344
400
672
128
-576
-944
-112
-208
-1232
-1312
0
416
176
800
1216
-688
-240
432
160
416
-112
784
144
736
768
1120
272
-928
704
-224
-256
-2000
-768
752
-32
-1344
-1584
-1392
208
96
640
688
384
1456
784
-160
-768
-256
240
784
-992
-1248
-1824
-736
0
-608
-416
-288
-240
128
48
-272
1008
-112
480
-240
-1024
544
-80
-352
336
1456
1232
496
-592
-992
-464
-272
-704
-944
-1216
16
288
608
656
1184
-512
-176
-320
-48
-832
-640
-256
-528
-192
-1216
-752
-1056
-1520
-1200
-320
-672
-432
-496
-304
-304
-544
256
704
944
512
576
-496
-1536
-880
1024
-320
-400
-96
208
240
-240
-896
96
880
1248
-672
640
848
-1632
-320
640
-320
-128
176
560
656
-512
-432
736
1088
1072
-352
-1568
-1568
-64
-1040
-384
1552
848
-240
-272
-1536
-1008
-336
464
560
368
304
-352
-1456
-704
96
-320
-976
-752
448
768
240
160
-544
656
96
-272
800
-112
112
-752
992
1568
528
-336
720
416
-256
-192
-800
-480
-432
-496
-992
176
192
1152
1056
960
336
1088
704
224
448
-992
-32
-848
-384
496
-512
-320
-704
-640
-208
464
-768
-1904
-1344
-176
288
-1424
-512
-192
-544
512
864
1072
656
-144
112
1024
976
32
848
384
464
-80
592
544
-848
-992
-816
-1568
-656
-672
-1392
-128
608
32
128
736
96
16
448
352
16
96
464
-416
928
240
-160
-112
608
752
112
1088
-800
-1008
-1200
-736
368
-16
-1024
-640
-544
-1472
-736
304
-464
80
-480
-112
432
1008
960
-288
528
656
-192
-448
128
512
-112
448
592
-32
-96
480
752
-736
-1312
-144
288
-512
-1264
-1840
928
448
-672
-960
-1056
-1056
-560
160
480
-256
-896
-544
-112
-192
512
512
608
688
-352
-1328
-416
-992
-368
-1120
-64
32
-1504
-1344
-544
320
-304
-256
-208
-256
80
-160
-576
-352
-272
176
-288
-976
-432
448
-944
-1584
432
-1104
-496
144
-1072
-96
-400
-48
80
-144
-1136
-464
-1120
-1008
-32
64
208
-320
336
1584
736
352
592
48
-1104
-976
320
256
-832
-704
576
-288
80
576
256
-208
-976
-272
480
-576
-352
-96
480
432
480
176
448
816
368
1184
576
1184
1296
1024
528
544
816
512
640
768
496
800
560
-224
0
240
-784
-368
-48
880
576
112
592
640
-96
-944
-480
-320
-1024
-336
-48
-688
-2032
-720
-320
-320
432
416
-560
-800
-64
-512
-784
-688
-880
-208
-976
128
1344
-288
-128
224
832
-144
0
-624
-1168
1248
736
1008
-512
-160
-256
1008
976
1312
1328
-1232
368
1072
880
-80
32
800
368
-528
-800
-272
-1152
64
1024
64
512
-272
32
640
-64
-112
-1536
-912
-528
192
784
-448
-272
208
464
144
624
720
448
736
-800
-224
-1344
-352
800
1072
1136
608
-736
-1728
-1200
-336
1008
48
1056
1072
128
-336
-688
-896
-128
960
432
-688
-496
-1008
-784
-832
128
-224
288
-256
-16
-96
64
-368
48
-352
160
1120
496
-720
-336
416
-512
-544
-368
64
1408
560
-576
256
576
208
384
432
480
1184
576
528
-32
-576
736
1184
720
320
592
640
-384
736
-224
576
1472
608
32
112
224
640
512
-624
-672
432
544
256
352
464
528
-528
240
-112
640
-432
48
544
896
112
704
-80
-640
-1008
-512
-448
-80
-368
32
-384
-112
-192
352
-208
-1216
0
176
-304
-1184
16
368
-176
-864
-112
208
-176
288
-240
-416
768
944
-912
32
384
-384
-1312
-1264
-32
-192
-880
-640
816
400
80
1552
1488
-544
16
336
-464
416
544
64
160
688
848
-320
-1216
192
1264
416
-208
-384
-880
528
752
784
128
80
656
-704
-464
160
752
256
224
48
-160
-1232
-880
-272
-640
-128
-1056
-224
-224
-368
336
1552
704
-448
-48
288
-400
-1344
272
656
160
112
336
1312
1008
-96
-432
-848
240
1104
-96
400
-224
-256
464
224
192
-528
64
-752
-1072
-192
464
544
224
-128
-672
-144
512
-208
144
544
32
672
432
1040
32
-1424
160
464
784
352
-1184
-1152
592
512
784
-80
336
80
-32
288
864
144
592
736
224
112
-528
-144
-176
704
576
928
320
288
160
352
352
96
-400
-240
1184
-560
-1280
-608
784
544
160
304
-128
-720
592
160
576
-16
-960
-1280
16
-640
-1120
-128
-144
-688
832
768
-16
1184
1296
624
-64
96
912
496
48
720
1184
512
-432
-48
-528
1152
448
-544
240
624
336
-656
-336
1120
-288
-784
672
48
-800
336
672
-160
-480
704
304
688
672
-48
224
-96
-1056
-96
1936
1392
832
144
16
32
-576
-1728
-960
704
944
48
-528
-272
592
704
208
-480
-864
-208
-1856
-1232
880
2016
1136
48
208
432
-752
160
272
-160
-768
-1344
-816
96
112
-608
96
480
-320
1520
1408
784
-960
-512
-1088
-688
-48
512
352
976
592
224
-448
-864
272
800
432
848
368
736
80
80
-832
-720
512
592
-592
320
1392
592
-608
400
-464
48
-816
-1792
-1776
-960
288
-976
160
-768
-1360
-672
864
1056
1168
176
-1376
-656
624
272
-1248
-496
0
672
576
768
1008
-144
-832
-880
-880
-160
-64
-80
448
944
-240
-16
1024
720
304
-736
-128
96
272
-304
-576
640
1920
992
656
80
-176
160
-624
-656
-1536
-496
-176
496
640
-304
-784
-832
-144
-160
-1488
576
48
240
48
-176
-784
1312
1616
-368
-720
-16
-336
-720
-1008
400
704
-160
304
496
640
-160
-512
256
272
-192
-80
-1744
-1824
-432
-368
-1088
176
-288
-640
880
-80
576
64
144
-160
-288
-368
-64
160
-192
-432
448
224
864
464
544
1792
1456
-80
896
976
-512
-304
800
704
-208
-368
-384
-864
-1888
-1104
-752
-256
-400
-160
-352
-1104
-1200
-1040
-64
-16
112
0
-976
32
-224
464
320
656
-272
64
-16
-608
336
992
512
-384
-560
80
0
464
688
16
0
-1024
240
160
832
288
-32
-400
240
576
-704
-752
-1120
-1504
-928
0
16
-336
-448
368
464
48
-1136
-944
-560
-48
672
304
320
672
496
16
-1632
-1104
640
1072
848
528
800
-592
-880
16
1024
208
-400
-800
-128
-224
-80
-480
-928
-1008
1152
672
1376
976
-288
-1104
-960
1024
1104
288
-1072
-768
-752
-768
-560
112
480
896
736
-432
208
1440
368
-416
-160
688
-656
-704
720
-1072
-1168
-16
-112
-256
752
656
416
1152
608
1376
192
304
432
768
736
208
-128
-656
-736
560
640
1152
-128
-112
656
656
1344
-592
-896
672
976
-416
80
-528
-1312
-528
16
384
1984
512
-864
1072
864
-496
-272
-224
-912
-816
592
272
272
1376
784
320
-80
64
480
896
592
352
304
-640
-80
272
752
1216
96
-304
-1360
-1392
-416
-192
-656
-1120
48
112
-992
-160
1024
832
-128
656
-208
-32
-224
480
192
576
800
656
-1152
-144
544
352
560
1184
1296
128
-512
-160
368
176
848
960
-688
-128
1440
1488
256
-656
272
-720
-736
160
144
-864
-1296
-1088
336
992
-224
240
144
336
-304
-784
-880
256
432
192
144
-64
-1072
-208
-496
-448
-336
-144
-672
240
768
560
320
96
480
1040
368
672
768
688
352
528
400
432
688
464
16
80
128
-32
944
-720
-704
1184
1376
176
-496
1120
944
944
-304
-736
-224
-368
-1120
-384
384
-592
64
48
0
16
288
-432
-128
48
-240
192
-1120
-640
-1040
-656
240
-160
-192
-336
-832
560
464
816
688
-208
-912
544
80
-192
-496
-80
-704
-368
1120
-624
-1280
96
-1344
-1472
-160
176
-592
896
-96
144
1248
-400
-896
784
720
1280
720
928
-192
-16
528
1072
64
64
-704
-768
-96
-1728
-464
416
608
1504
1584
112
608
912
752
144
2032
1264
-208
304
464
-608
-320
576
384
32
-96
-400
-576
-288
-1776
-1248
-704
-336
448
304
1344
848
144
-64
-1696
-1200
736
928
128
752
352
-352
-688
-1296
-1152
-224
-192
-608
-1536
-1328
-432
-592
960
384
-640
704
672
1216
560
-1024
-448
-176
144
128
256
-224
-528
-560
1312
1184
-48
336
-352
-32
-496
-960
-336
-656
-896
384
-656
-1216
-80
288
-784
-192
-768
496
-224
-480
-384
-112
-384
-160
0
-48
-1232
-112
-704
-32
-1264
-144
-1264
-384
-320
96
704
-128
-320
-352
448
912
-336
-256
-1104
-192
-320
-304
592
1296
1088
1344
64
496
-256
-48
720
1344
-432
-848
304
320
-16
-464
-1728
-752
-256
144
144
-816
-736
-96
-688
-832
880
544
288
-512
1072
608
112
-48
32
-816
144
64
240
416
-224
-880
-672
576
736
1040
432
-784
-624
-720
64
1360
-240
-128
-448
112
432
1024
1728
1376
-192
-16
-112
-848
-1248
-112
-496
-912
-1088
-976
48
-128
224
-80
-272
-400
-400
240
512
64
-432
-144
240
128
160
-1056
-1200
-256
704
1024
-32
208
576
-288
752
880
736
-128
-384
-496
-1168
-496
-272
112
-304
-2000
-448
688
-464
-480
-160
-544
-608
560
304
-208
-256
-256
288
-16
-16
240
-528
384
-144
112
448
1296
496
96
-32
-416
-640
-1568
-736
-608
576
1104
160
-624
128
-336
-416
-608
-240
576
304
-16
-736
-528
-912
-224
-1136
-560
1056
800
-160
-896
-1568
208
928
80
560
-512
-768
832
1520
1104
-912
-592
576
-48
-816
192
-128
-272
576
-144
-1040
-448
832
768
-336
-1168
448
288
-32
-16
-48
-800
-384
-704
-544
320
976
-96
64
704
288
16
176
-448
-448
0
208
-272
-304
-176
-1584
656
-304
-544
-560
416
-1104
-1568
-1408
-432
1152
912
-320
32
-1440
-1664
-784
-832
-592
1008
-128
-32
-384
320
-432
-1040
-1024
-1808
-1440
-656
-128
-624
-640
64
-1088
-48
544
928
928
512
1168
1168
896
-576
-640
256
-48
608
992
144
-960
-736
-912
-896
-944
176
320
128
-304
-1328
400
-304
16
368
-400
1040
512
944
480
1232
336
-480
-512
-368
1280
768
208
1504
976
-384
-32
-1424
-784
-944
-768
-464
-480
416
528
32
176
1136
-208
-1424
-1248
-512
-400
-864
-896
-1056
464
864
224
784
1120
656
624
448
-80
-80
-192
-288
-256
80
224
-240
-1232
576
192
-432
-208
-768
-1072
-800
-912
-864
-64
-704
-864
-1872
384
1104
-64
208
528
-656
16
256
496
-864
-704
-1152
-1392
-880
-768
-608
-288
-592
-1008
-1728
-736
-944
-432
800
1664
1616
160
400
800
1376
1648
1376
720
384
-928
-768
-1168
432
848
1264
768
144
1232
16
-416
-272
1072
-352
-336
-672
-512
16
-784
-432
480
128
-272
-1072
-1040
-304
496
80
-320
-464
336
-416
0
-160
-800
-1328
400
-144
-960
-160
-368
544
416
-976
-800
-336
-352
-256
-640
128
1168
-16
-752
-1072
-1040
464
-240
-928
-32
208
-944
-592
0
-384
288
-16
-672
1040
1296
1200
1184
1104
304
-1008
192
-128
928
976
208
720
64
96
-544
-64
512
304
672
512
896
-896
-832
-192
-848
1328
2016
-48
800
656
1008
-464
-96
-992
128
1152
112
352
-1488
-1264
0
-576
-528
-736
-32
-432
-1264
48
464
-192
176
-736
944
944
432
64
-48
208
-96
-368
-384
864
432
-1040
-144
432
496
-128
-192
144
1840
1120
-544
-1904
-1776
-432
768
656
48
-1280
-176
-320
-304
48
496
1344
224
720
896
160
336
1680
768
864
464
96
-192
-464
-544
-224
416
-976
-1008
352
-992
-1200
-848
-1088
-784
-112
16
400
1296
-400
-1024
-1600
624
1504
208
256
224
-240
448
528
-384
-432
944
208
-128
16
32
32
-400
-496
80
1248
704
32
-1344
-1168
-384
976
128
-960
-96
1152
480
0
-256
-1168
-128
336
-192
736
752
144
-432
-528
1024
800
-1152
192
896
-896
96
1312
832
1056
480
144
-176
16
-576
-160
-1376
-128
-640
-80
416
16
-528
-736
-720
304
-912
-96
-720
-32
-320
-816
-160
-400
-176
-560
416
1376
1056
544
-128
-224
-64
-80
-1168
736
864
-112
32
480
208
-64
560
912
-448
-304
1216
1072
96
-256
752
528
1360
512
-704
-752
-352
-576
-1184
-1136
-128
144
-512
576
992
1056
1072
1312
-32
-752
-1904
-816
-528
-656
-496
1056
-512
-432
-848
-464
192
-464
-32
0
832
624
736
1392
96
-192
-544
416
-144
32
-16
880
1520
976
-1328
-864
-816
-1712
0
-320
656
224
128
-1520
-528
496
-64
-448
-592
176
-1216
-1264
-480
-272
-320
-416
-688
-816
16
96
-224
-1056
-1216
288
1936
336
208
16
-384
-640
736
432
-576
-960
-368
432
160
656
0
-176
-128
240
1312
272
-96
928
1632
864
1056
432
-512
656
640
480
736
-608
-960
-320
-608
192
1344
-192
-512
-496
-1136
336
-352
-672
1664
1296
784
304
208
-784
-416
-144
672
1104
1136
128
-928
-1056
-400
-1104
-592
688
480
-1472
-1136
464
848
1088
-64
-1232
-160
448
-304
416
128
-240
-800
128
1232
448
816
448
720
1104
800
688
384
256
656
-976
-64
144
-896
-1008
-80
48
352
1120
80
-160
96
1696
400
688
336
-160
1136
480
-1056
-896
-480
480
800
480
-176
16
464
1904
224
-32
896
1312
-624
-480
-224
-320
-1520
-288
-672
336
112
-240
816
80
-320
-320
400
-192
-1120
-288
624
160
-224
-448
-912
-880
-1280
48
672
1088
1680
784
-768
-608
48
0
-80
496
1120
192
-336
-1584
-32
304
176
224
432
96
-656
-608
272
128
-272
-400
384
560
1248
-240
-304
-112
-1008
-560
288
-896
1296
816
-48
320
976
112
416
1328
976
576
736
1296
1088
656
880
528
240
544
400
-64
144
1232
1584
640
-112
-528
-672
-352
112
-1072
-1520
-400
-512
-96
496
160
-128
-320
-368
-400
-464
-800
-256
-896
-224
1184
544
1360
896
160
224
-624
-1872
-768
-1520
-672
432
-432
384
944
32
1232
48
16
0
-816
-592
560
208
544
-368
-432
400
384
-656
624
2016
288
832
1488
1168
1664
1376
576
128
864
368
-336
-32
816
1296
752
-160
128
1776
1472
240
-32
928
944
752
368
-1120
-240
-336
64
480
720
-928
-848
-368
112
464
1152
272
-1056
96
464
352
-640
-1376
-352
-768
64
496
-464
768
1104
1056
912
-384
-720
208
528
-64
-848
-1296
-224
80
1696
976
400
-112
-32
704
-112
-560
-480
-496
-256
-496
-960
496
16
-1680
-1104
800
-48
416
-64
-256
-832
-880
-208
-512
368
304
256
-272
416
-624
-16
64
-176
-128
-352
352
240
-800
-1328
-32
