0
-16
-16
-16
-16
-16
-16
-16
-16
-16
-16
-32
-16
0
16
16
16
16
16
0
-16
-32
-16
-16
-16
-16
-16
-16
-16
-16
-16
-16
-16
0
16
16
16
16
16
0
-16
-16
-16
-16
-16
-16
-32
-32
-16
-16
-16
-16
-16
0
16
16
16
16
16
0
-16
-16
-16
-16
-16
-32
-32
-32
-32
-16
-16
-16
-16
0
16
0
16
32
16
16
0
-16
-32
-32
-32
-32
-32
-32
-16
-16
-16
-16
-16
0
16
16
16
16
16
16
0
-32
-32
-16
-32
-32
-16
-16
-16
-16
-16
-32
-16
0
16
16
16
32
16
16
0
-16
-32
-16
-32
-16
-16
-16
-16
-16
-16
-32
-16
0
16
16
16
16
16
16
0
-16
-16
-16
-16
-16
-16
-16
-16
-16
-16
-32
-16
0
16
16
16
32
32
16
0
-16
-16
-16
-16
-16
-16
-16
-16
-16
-16
-16
-16
0
16
16
16
32
32
16
0
-16
-16
-16
-16
-16
-16
-16
-16
-16
-16
-16
-16
0
16
16
16
16
32
16
0
-16
-16
-16
-16
-16
-32
-16
-16
-16
-16
-16
-16
0
16
16
16
32
16
16
0
-16
-16
-16
-16
-16
-16
-16
-16
-16
-16
-16
-16
0
16
16
16
16
16
16
0
-16
-16
-16
-16
-32
-32
-16
-16
-16
-16
-16
-16
0
16
16
16
16
16
16
0
-16
-16
-16
-16
-16
-16
-16
-16
-16
-16
-16
-16
0
16
32
16
16
16
16
0
-16
-16
-16
-16
-32
-32
-16
-16
-16
-16
-16
-16
0
16
16
16
32
32
16
16
-16
-16
-16
-16
-16
-16
-16
-16
-16
-16
-16
-16
0
0
16
16
16
16
16
0
-16
-16
-16
-16
-16
-16
-16
-16
-16
-16
-16
-16
0
0
0
16
16
32
16
0
-16
-16
-16
-16
-16
-16
-16
-16
-16
-16
-16
-16
-16
0
16
16
16
16
16
0
-16
-16
-16
-16
-16
-16
-16
-16
-16
-16
-16
-16
0
0
0
0
16
32
16
16
-16
-16
-16
-16
-16
-16
-16
-16
-16
-16
-16
-16
0
16
16
16
16
32
16
16
0
-16
-16
-16
-16
-16
-16
-16
-16
-16
-16
-16
-16
0
16
16
16
16
16
16
-16
-16
-16
-16
-16
-16
-16
-16
-16
-16
-16
-16
0
0
16
16
16
16
16
0
-16
-16
-16
-16
-16
-16
-16
-16
-16
-16
-32
-32
-16
16
16
16
16
16
16
0
-16
-16
-16
-16
-32
-32
-16
-16
-16
-16
-16
-32
-16
0
16
16
16
16
16
0
-16
-16
-16
-16
-32
-16
-32
-16
-16
-16
-32
-16
0
16
16
16
16
16
16
-32
-32
-32
-16
0
16
16
16
16
16
0
-16
-16
-16
-16
-16
-16
-32
-32
-16
-16
-16
-16
-16
0
16
16
16
16
32
0
-16
-32
-16
-16
-16
-16
-32
-32
-16
-16
-16
-16
0
0
16
16
32
32
32
16
0
-16
-16
-16
-16
-32
-32
-32
-16
-16
-32
-32
-16
0
16
16
32
32
32
16
0
-16
-16
0
-16
-32
-32
-32
-32
-32
-32
-32
0
16
32
32
32
32
16
0
0
-16
-16
-16
-16
-16
-16
0
-16
-16
-16
-32
-16
0
0
16
16
16
16
16
0
-16
-16
-16
0
0
0
0
-16
-16
-16
-16
0
16
32
16
16
16
16
0
-32
-48
-48
-32
-32
-16
-16
0
0
0
0
-16
-16
0
16
16
16
32
32
16
0
-16
-16
-16
-16
-16
-16
-16
-16
-16
-16
-16
0
16
16
16
16
32
32
32
0
-16
-16
-16
-32
-32
-32
-16
-16
-16
-16
-16
0
16
16
32
32
32
32
32
16
-16
-16
-16
-16
-32
-32
-32
-32
-16
-16
-16
0
16
32
32
32
32
32
32
32
0
-16
-16
-32
-32
-32
-32
-32
-32
-16
-16
-16
0
16
32
48
48
48
32
32
0
-16
-32
-32
-32
-16
-16
0
-16
-16
-16
-16
-16
0
-16
-16
0
16
16
0
-16
-16
-16
-16
-32
-32
-16
-16
-16
-32
-32
-32
-16
0
16
16
16
16
16
0
-16
-16
-16
-16
-16
-16
-16
-16
-16
-16
-32
-16
0
0
0
0
0
16
0
-16
-32
-16
0
0
0
0
0
-16
-16
-16
-16
-16
16
16
16
0
-16
0
-16
-32
-48
-32
0
0
0
-16
-32
-16
0
16
16
32
48
48
32
32
16
0
0
0
-16
-16
0
0
-16
-32
-48
-48
-32
-48
-48
-48
-16
-16
0
0
16
16
0
0
-32
-32
-32
-32
-32
-32
-32
-32
-16
-16
-16
-16
0
16
16
16
32
32
16
0
-16
-16
-32
-32
-32
-32
-48
-32
-32
-32
-48
-32
-16
16
32
48
80
64
48
32
-16
-32
-48
-64
-48
-32
-16
-16
-16
-16
-16
-16
16
32
32
32
48
48
32
48
32
16
16
0
-32
-48
-32
-16
16
32
32
48
48
64
64
64
48
32
16
16
0
-32
-32
-32
-48
-48
-32
-32
-48
-32
-16
0
32
48
48
48
16
-32
-48
-48
-32
0
16
32
16
16
-16
-48
-32
-16
-32
-48
-64
-64
-16
16
16
16
48
16
-16
0
16
16
16
0
-16
-16
-32
-64
-16
0
16
48
32
16
32
48
64
80
80
96
80
0
-48
-64
-64
-64
-80
-48
-48
-64
-64
-96
-96
-48
-16
-16
32
96
144
192
176
96
48
48
16
16
32
48
48
48
80
112
0
-128
-144
-96
16
96
64
32
16
-16
-64
-96
-32
32
32
32
48
48
64
48
32
16
32
32
32
48
32
-32
-80
-80
-64
-80
-16
48
64
64
0
-16
16
48
48
32
128
160
64
-16
-48
-80
-96
16
112
128
160
144
64
-96
-272
-192
-112
-112
-48
0
80
176
192
144
32
-128
-80
112
144
32
-64
-160
-208
-128
-80
0
48
0
32
160
224
144
48
-96
-144
-144
-96
-16
48
112
64
0
-48
-48
-96
-48
32
32
0
0
-32
-32
16
0
-16
48
80
32
16
64
-64
-160
-80
64
128
80
96
96
128
128
64
-32
-96
-112
-112
16
32
-64
-112
-64
-128
-144
-64
112
256
208
80
-32
-48
-32
-16
16
16
48
80
64
-16
-112
-112
0
32
64
112
32
-48
-96
-80
-16
16
-16
-64
16
192
256
112
-112
-32
96
0
-96
-144
-112
-80
-48
0
16
16
80
112
192
112
-64
-160
-96
-32
-16
-16
32
80
16
32
96
48
-80
-128
-32
112
192
80
-160
-96
80
208
224
128
0
-64
-256
-240
-112
48
160
256
272
32
-176
-144
0
48
32
-16
-176
-240
-176
-48
128
160
160
192
96
-96
-176
-32
192
272
96
-80
-128
-144
-176
-80
112
32
-144
-144
0
64
-16
-16
80
176
48
-80
-32
32
0
-96
-128
-96
-32
16
80
208
144
-80
-160
-112
-16
64
112
0
-160
-256
-256
-48
112
96
-16
0
48
80
176
96
-144
-160
64
400
544
416
48
-272
-368
-336
-272
-192
-64
16
48
64
64
128
160
160
48
-64
16
0
-112
-256
-192
160
464
512
192
-384
-480
-176
-48
96
288
304
192
-80
-144
112
160
0
-240
-368
-336
-208
48
224
272
192
32
96
160
192
112
16
-16
-64
48
-80
-192
-224
-96
-96
-96
-32
128
160
80
32
0
0
128
208
112
-96
-224
-112
32
-16
-192
-368
-368
-224
-32
128
160
48
-32
144
288
160
96
0
-32
64
64
-32
-64
16
-144
-256
-16
256
288
176
32
-144
-208
-144
48
16
-48
-128
-96
-16
-64
-96
-128
-48
16
32
64
16
16
64
32
32
-48
-64
-128
-224
-160
-128
48
272
208
-64
-176
-16
224
336
224
-48
-128
-128
-240
-192
-64
-32
-144
-112
-96
-16
80
128
288
352
48
-240
-176
-16
32
48
192
240
80
-336
-400
-128
-80
48
144
192
160
32
16
80
32
-256
-336
-128
0
-64
-96
-48
-16
0
48
-16
-32
112
208
144
-16
-96
-96
-32
-32
-64
-176
-240
-144
64
176
192
128
-48
-32
48
48
0
-32
-48
-112
-144
-80
16
192
240
16
-32
16
80
64
128
224
192
-80
-192
-48
-80
-112
-144
-224
-128
16
48
144
320
208
32
-48
-48
-144
-224
-160
0
32
32
48
-144
-256
-96
32
96
192
320
352
224
-16
-176
-144
-80
-192
-192
-112
-112
-112
80
272
240
-112
-240
-64
48
96
112
160
256
256
0
-208
-192
-224
-176
-32
16
-32
-80
-128
-80
-16
48
112
96
-112
-128
-64
48
-16
-128
-96
0
-48
-224
-192
128
416
464
288
304
128
-144
-96
-112
-352
-464
-256
-32
160
176
16
-64
16
144
192
160
0
-240
-288
-128
32
-16
-96
-96
-112
-96
-64
-96
-16
128
192
160
64
16
64
160
80
-128
-160
16
384
496
192
0
-160
-352
-304
-336
-304
-48
96
16
48
144
224
192
64
-160
-448
-496
-128
240
176
0
16
112
80
16
32
80
48
48
32
64
0
-48
32
48
-128
-320
-192
-16
0
0
64
64
64
64
-32
0
80
112
80
-64
-128
-192
-144
32
176
304
192
-16
-288
-224
-32
224
256
112
-128
-144
-240
-176
-48
48
16
-80
-96
96
176
48
-208
-240
-80
-48
64
240
224
240
240
96
0
-208
-416
-320
-208
-160
-112
-80
16
272
240
96
48
48
-16
-16
16
-16
0
-32
-48
-208
-144
-16
16
32
-112
-144
-32
-16
16
96
272
224
32
-80
-144
16
208
96
-48
-192
-288
-176
-240
-192
16
48
96
64
32
48
192
112
-144
-224
-112
-48
32
224
320
272
240
64
-96
-208
-192
-128
32
-48
-160
-144
-48
96
176
48
-48
-16
-160
-208
-64
144
176
-48
-208
-160
-32
-16
-64
-160
-144
-32
0
-64
48
80
32
-32
-96
-32
48
96
96
0
-48
-48
-32
-16
-112
-192
-192
-64
48
96
112
32
48
48
-32
-48
48
-16
-64
-32
-48
-112
-64
-48
-48
64
208
144
-96
0
336
400
32
-320
-336
-288
-272
-160
-144
-144
-16
48
112
144
64
32
32
96
144
80
-32
-48
64
112
128
-16
-112
-96
-176
-80
32
-32
-32
64
144
224
192
16
-64
-96
0
-16
-96
-112
-176
-192
-176
-48
16
0
96
192
176
32
-160
-160
-48
48
112
-112
-240
-208
-64
240
336
96
-192
-144
-16
16
16
144
192
128
-80
-256
-192
-128
-64
-16
32
144
80
-16
0
80
-80
-128
32
80
-32
-96
-112
-128
-96
-16
16
16
160
288
208
112
-80
-176
-80
0
-64
-80
80
48
-128
-128
-112
-112
-96
-160
-128
-48
-32
32
112
176
224
128
16
-48
-64
-80
-64
-16
32
0
-32
32
144
144
-80
-192
-64
-16
0
32
-16
-128
-160
-96
96
112
80
96
112
96
-128
-240
-80
32
64
48
-64
-192
-128
-64
48
96
48
-80
0
80
32
32
16
0
96
128
48
0
32
48
-64
-96
32
160
160
-128
-288
-96
80
80
0
-16
80
96
-96
-240
-144
0
128
192
160
112
-112
-224
-112
-48
16
64
48
64
144
96
-32
-32
80
16
-96
-208
-128
-32
-64
-32
-64
-80
96
160
96
80
0
-64
-144
-160
-160
-32
80
80
32
-16
-80
-64
64
80
-32
-48
-80
-64
-48
0
0
16
-32
-48
-112
-64
48
144
96
16
-32
-128
-96
-16
96
208
144
144
-16
-224
-112
-48
-176
-256
-208
-160
-16
160
96
-48
-112
-80
32
96
208
272
224
112
-64
-96
48
-32
-224
-224
-128
-144
-192
-96
-64
-16
0
80
80
32
16
80
80
80
-16
-64
48
160
176
80
-64
-160
-112
-16
-32
-48
-112
-32
-64
-48
32
-32
0
80
192
176
96
128
192
-64
-224
-144
-32
-32
-112
-96
-96
-16
48
144
32
-160
-240
-176
-16
32
-48
-32
96
160
160
144
32
-80
-64
-16
64
64
-16
-64
16
-32
-64
-32
32
-16
-96
-48
16
32
0
144
80
-112
-144
-64
16
-16
32
80
0
-64
0
112
16
-176
-176
-208
-240
-96
112
160
64
0
16
0
48
176
176
-96
-288
-144
16
32
16
32
16
-32
-128
-64
0
-48
-96
-32
64
144
160
112
0
-96
-80
-16
16
32
48
96
208
304
288
160
-48
-272
-336
-224
-64
-48
-96
-144
-80
16
16
16
-48
-80
-16
48
0
-32
48
160
176
-16
-160
-112
16
32
-32
-96
-112
-16
192
176
16
-96
-32
16
0
16
32
144
144
0
-96
-80
16
16
-80
-176
-208
0
112
32
-32
-16
48
0
-112
-192
-144
0
80
144
176
160
64
-16
-16
-128
-80
128
80
-112
-144
-32
-16
-48
-144
-240
-288
-256
-96
32
176
224
192
192
256
192
-16
-160
-160
-48
-16
-16
0
16
32
32
-64
-240
-192
16
112
48
-112
-128
0
32
48
32
-16
0
64
48
-32
-64
-96
-80
-48
-112
-96
-16
16
16
0
16
32
48
48
-48
-32
80
128
32
-80
-80
0
80
64
-80
-128
-96
-48
-48
-64
-112
-112
64
192
112
32
64
96
16
-32
-48
-32
0
96
192
208
48
-160
-128
-96
-96
-96
-64
-32
48
16
-64
32
64
48
32
-64
-160
-80
16
-48
-112
-64
0
-16
-32
16
96
32
0
32
16
32
48
48
48
0
-16
-32
-16
80
128
80
-96
-192
-144
-64
-48
-48
-64
-96
16
96
96
0
-96
-48
48
32
-80
-176
-144
32
32
0
-32
-96
-96
-32
-16
32
80
16
-16
-16
-16
-16
16
-48
-112
-48
64
112
32
0
-64
-48
96
176
64
16
32
-112
-48
96
64
48
-80
-144
-64
-64
-128
-112
-48
-16
-64
-96
-16
80
48
0
48
32
-64
-80
-80
-16
48
128
224
32
-160
-240
-128
0
-48
-48
32
48
48
64
48
0
16
96
48
-96
-96
64
256
176
-144
-432
-288
0
80
64
48
-16
-64
-48
-16
112
96
-16
-112
-112
-48
-32
-80
-96
-64
-16
48
112
144
112
16
-80
-16
-16
0
128
128
64
16
-48
-32
-160
-304
-64
224
256
96
-64
-32
48
-80
-160
-128
-64
16
16
16
48
112
112
-80
-288
-384
-176
128
304
192
-32
-32
16
16
48
48
-16
32
0
-64
-48
-32
0
0
-32
-160
-192
-32
128
96
0
0
-32
-96
-144
-80
64
112
16
32
96
80
-128
-224
-80
32
-32
-32
-32
0
48
48
16
32
32
16
64
32
16
16
-80
-192
-256
-96
96
176
64
-144
-256
-144
16
48
0
96
144
144
16
16
48
96
-32
-176
-176
-96
-64
0
32
16
-32
16
96
96
-32
-64
-16
-64
0
-96
-112
-48
-80
-48
96
160
128
96
64
-80
-112
-144
-160
-144
-112
-16
144
192
112
16
-16
-96
-128
16
160
64
-80
-48
0
16
-32
-128
-96
-144
-176
-128
48
160
192
128
16
-144
-16
144
240
144
-144
-272
-192
-32
112
80
-48
-192
-112
0
48
176
208
144
80
-96
-80
32
-16
-64
-80
-80
-32
0
-32
-32
-96
-208
-112
-32
0
80
96
144
144
64
0
-64
-32
64
48
-96
-160
-96
-48
80
176
144
64
32
-64
-144
-160
-80
96
256
160
-192
-272
-112
48
48
48
64
96
112
0
64
48
-128
-256
-224
-160
-96
16
176
144
48
-48
-80
-32
-16
0
-16
-16
48
192
288
176
-112
-192
-112
-144
-192
-176
-32
64
32
0
-32
-32
-32
-48
-48
-16
0
0
16
0
-16
0
16
48
48
48
96
128
144
0
-48
-128
-160
-96
-112
-96
-80
-64
-96
-80
48
128
160
192
96
-32
-112
-64
-16
0
16
48
80
32
-96
-160
-160
48
160
96
0
-48
-80
-32
-32
0
-16
16
144
112
32
32
32
80
16
-48
-64
-96
-176
-144
-16
16
-16
16
0
-16
-32
-32
-32
-16
32
80
48
0
16
48
-16
-64
-32
0
0
0
16
-80
-144
-80
0
32
48
0
-48
-16
-32
-16
0
-32
-64
-128
-96
-16
64
96
48
48
112
16
-80
-112
-96
-32
16
16
-32
-48
0
-16
-96
-144
-144
-32
144
208
160
64
32
0
-16
-32
-128
-176
-128
-32
16
32
128
224
288
176
0
-176
-112
-16
-16
-16
112
192
112
-80
-208
-144
-64
-48
0
16
-16
-64
-80
-112
-144
-128
-48
32
48
32
16
32
64
16
-16
-32
0
48
96
16
48
128
112
64
0
-64
-48
-128
-144
-112
-112
16
96
64
48
48
16
32
48
-16
-96
-176
-224
-176
-80
16
32
16
-16
0
32
48
48
32
48
64
64
32
-16
-32
-48
-64
-112
-96
80
192
80
0
-48
-32
0
-32
-32
16
80
64
64
64
16
-48
-176
-224
-144
-16
64
48
32
80
80
32
0
-32
0
32
0
-32
-16
-64
-48
-32
-64
-80
-48
-64
-16
0
-16
48
112
128
176
112
32
0
-64
-64
-48
-48
-16
-32
-16
-48
-48
0
-16
-128
-144
-80
0
128
128
96
80
16
-32
-96
-112
-80
-48
-64
-16
32
48
16
-64
-80
-128
-80
48
48
32
80
80
32
16
-16
-80
-112
-128
-48
96
160
176
128
-16
-112
-144
-128
-48
16
0
0
48
80
16
-32
-32
-16
-16
-48
-48
0
16
-32
-64
16
32
16
96
48
-112
-112
-32
48
32
-64
-80
-128
-80
0
16
32
48
64
32
64
64
48
80
80
48
-64
-112
-80
-16
48
64
-16
-80
-32
-16
-16
-32
-64
-16
0
64
96
48
0
-48
-80
-64
-80
-32
-32
16
48
16
-32
0
16
-32
-80
-80
-16
64
96
0
-64
-64
-64
-80
-80
16
48
64
48
-32
-16
16
32
-32
-80
-80
-80
0
48
-32
-80
-48
48
96
112
112
48
0
48
32
-64
-112
-112
-80
-32
16
64
32
-48
-32
0
-48
-16
32
112
128
16
-112
-128
0
16
-80
-112
-64
16
16
16
0
16
96
96
16
80
144
64
-48
-128
-144
-144
-32
64
32
-16
0
16
80
-16
-112
-96
-48
48
112
96
112
96
-32
-80
-96
-96
0
16
-16
-64
-32
32
32
-96
-176
-80
-32
16
32
16
-16
-64
-80
-64
-32
16
16
0
32
96
176
128
-16
-80
-128
-192
-224
-160
16
48
0
-16
0
96
96
144
112
0
-64
-64
-48
0
-32
-32
0
48
16
-64
-32
-16
-80
-96
-48
80
64
16
0
-16
-16
16
16
-32
-64
16
48
-48
-16
-32
-48
-32
-16
48
112
80
-16
-64
-80
-64
0
-16
-64
-32
48
48
48
32
48
96
80
0
-32
0
16
-48
-64
-96
-96
-48
16
-48
-96
-16
64
-48
-128
-16
128
176
144
16
-32
-16
16
-64
-80
-32
-80
-112
-96
-80
-32
-16
0
-16
-16
-16
-16
48
64
64
-16
-32
0
-32
-16
32
0
-48
-96
-96
-48
-48
-64
-48
-16
64
64
32
16
16
32
16
0
48
80
80
64
0
-96
-64
-64
-80
-64
16
64
48
-48
-64
-96
-16
112
224
240
128
-48
-128
-128
-64
-16
64
64
-32
-80
-16
0
-64
-96
-96
-96
48
192
208
16
-48
0
-32
-80
-16
16
0
-32
-16
-32
-64
-80
-64
0
64
32
-48
-16
32
16
-64
-96
-80
-32
-16
16
48
64
80
64
32
-32
-80
-48
16
96
112
0
-128
-112
-48
-16
-32
-64
-96
-32
16
48
32
-32
-96
-64
16
80
96
96
0
-80
-128
-112
-80
-64
-16
16
-16
-16
-48
-80
-64
32
64
80
64
-32
-64
0
16
0
-16
32
64
-32
-80
32
144
80
-80
-160
-128
-64
-16
32
48
48
16
0
16
32
48
0
0
-48
-96
-16
96
96
32
-32
-64
-48
-80
-16
96
64
-80
-112
-80
0
32
32
-16
-64
-32
80
128
16
-48
-48
-64
-112
-128
-48
-16
0
16
-16
-16
0
0
16
0
16
32
-16
-80
-48
-16
0
-32
-32
-32
-16
16
48
64
48
16
-32
-48
-32
-48
0
96
16
-144
-112
-64
-48
-64
-64
-16
48
64
32
80
112
96
32
-48
-16
32
0
-16
-96
-128
-112
-112
-80
-48
-16
32
16
48
96
96
16
-32
16
80
96
64
16
-32
-48
-32
0
0
16
32
48
-16
-80
-96
-112
-80
0
32
32
0
-16
16
0
0
48
64
16
48
48
32
32
16
-48
-112
-160
-160
-80
-32
16
48
-16
-48
-16
-16
0
32
0
-16
-16
-16
16
48
0
-32
-48
-48
-32
-32
32
96
64
-48
-112
-64
-32
-48
-48
-32
16
48
96
48
-48
-48
48
128
112
64
0
-64
-128
-128
-48
-16
-32
-64
-32
-48
-32
0
-32
-48
-48
32
144
144
48
0
-80
-32
16
-16
-32
-48
-96
-64
64
112
96
0
-112
-128
-64
-64
0
0
-16
32
48
-16
-48
0
112
176
128
48
-32
-112
-128
-96
-96
-64
-32
-16
16
-16
-16
16
0
-16
16
96
128
32
-80
-48
0
-16
-96
-128
-128
-64
16
32
48
64
48
16
16
48
32
-16
-16
-16
32
0
-112
-144
-112
-80
-16
16
-16
0
32
48
32
0
64
128
96
-16
-48
-64
-16
32
-32
-64
-144
-144
32
96
32
16
-32
0
0
-64
-16
32
80
48
0
-32
-48
-64
-80
-48
-32
-16
0
16
0
-48
-48
-16
-16
-16
32
128
176
128
-96
-160
-96
-64
-80
-32
0
32
64
32
-16
-64
-64
0
48
112
96
32
0
0
16
0
-128
-128
-32
-16
80
112
-32
-64
-64
-64
0
48
32
48
16
-64
-64
32
32
-16
-32
-48
0
48
112
128
-32
-144
-144
-112
-16
64
64
80
16
-32
-80
-80
32
64
-48
-128
-16
16
80
144
192
224
112
-48
-144
-192
-160
-80
-32
-96
-128
-128
-48
32
80
48
32
64
64
48
-32
-128
-64
0
-32
-80
-48
-16
32
48
80
32
-112
-128
-16
-16
-32
-32
-48
32
176
192
96
16
0
16
80
32
0
-64
-64
-112
-208
-128
0
64
16
-64
-112
-128
-160
-128
-48
48
80
64
80
64
80
80
80
48
32
64
144
96
-80
-160
-144
-176
-208
-144
-64
16
32
80
96
32
0
32
32
48
32
16
-16
0
48
32
16
-16
-48
-48
-48
-96
-112
-112
-16
48
64
32
-32
16
64
16
-16
16
32
16
16
0
-16
-112
-144
-80
-64
-80
-64
-32
32
80
48
16
0
0
-16
-16
32
80
-16
-64
16
80
48
16
32
-32
-48
32
112
48
-48
-80
-96
-80
-96
-144
-112
-16
-16
0
96
128
112
112
96
80
-48
-160
-112
-16
96
48
-64
-112
-144
-128
-112
-48
-16
-32
0
64
64
64
32
16
-16
-16
-16
16
32
0
-16
-16
-32
-32
-48
-32
-48
-96
-48
16
48
32
16
48
112
96
-16
-96
-32
32
64
64
0
-16
0
-16
0
-48
-144
-144
-96
-80
-32
48
80
80
0
-64
-48
-16
0
32
64
96
96
32
-64
-128
-160
-64
16
16
0
-32
-32
16
64
48
48
96
96
16
-16
-16
-16
-16
16
16
-64
-96
-64
-64
-32
0
-16
-64
-48
16
80
80
0
-64
-48
-16
-32
-48
-32
0
-16
-16
-32
-48
-32
-16
0
-48
0
112
64
32
48
16
0
-48
-96
-128
-48
48
112
128
80
-48
-80
-64
-16
48
0
32
32
-16
0
16
16
-16
-64
-112
-160
-112
-16
-16
-64
-64
32
64
48
96
80
32
-64
-80
-64
-16
0
-16
-48
-32
-64
0
144
208
272
272
176
-32
-144
-208
-288
-144
-32
-16
-48
-96
-64
0
48
32
32
16
32
80
-16
-64
-48
16
16
-16
16
32
16
-32
-64
-80
-32
16
64
64
112
160
160
96
-96
-192
-144
-48
64
-48
-80
0
80
64
0
-48
-32
0
32
32
48
-32
-176
-96
-96
-144
-96
0
64
112
128
192
256
96
-144
-176
-128
-64
-16
0
-32
-48
-128
-176
-208
-208
-128
16
128
192
224
112
48
16
0
-16
0
0
0
-16
-64
-96
-192
-240
16
192
208
96
32
16
-16
-48
-16
0
16
32
64
16
-16
64
128
32
-192
-320
-128
48
64
32
-48
-16
32
-64
-128
-80
48
64
64
80
0
-96
-128
-64
32
0
-32
-16
0
0
0
16
0
-16
-32
48
64
48
48
32
0
48
64
-80
-64
-32
-16
48
16
-48
-64
0
16
48
128
224
208
32
-176
-160
-160
-144
-128
-80
16
16
-128
-128
-96
-48
64
96
112
112
32
64
80
16
-64
-32
16
48
-16
-160
-32
64
32
-16
-64
-64
-16
16
32
64
16
-32
-16
0
-16
-64
-64
-32
32
96
80
32
-32
-80
-80
-16
112
112
48
-48
-128
-192
-176
-64
48
64
48
-48
-96
-32
0
32
16
-16
-32
0
32
32
64
80
32
16
0
48
96
16
-112
-176
-96
-64
-80
-64
-16
0
0
32
32
16
16
64
112
80
-80
-160
-96
-16
96
112
32
-64
-112
-64
0
16
-16
0
-48
-96
-32
16
32
48
16
0
16
-16
-64
-64
-32
32
32
32
112
128
64
-32
-128
-144
-128
-32
80
128
80
-32
-112
-160
-32
64
64
112
32
-80
-96
-80
-16
32
32
32
-16
16
96
32
-80
-112
-64
-64
-80
-144
-112
144
224
176
64
-80
-80
-80
-64
-48
32
96
96
80
112
96
-128
-176
-128
-80
-32
0
-48
-128
-144
-112
-32
80
176
208
160
96
-48
-160
-112
-32
-16
16
16
-64
-96
-64
-48
-64
-96
-80
48
192
224
96
0
16
-80
-160
-128
-96
-64
-16
-16
-16
-32
-80
-48
0
48
64
96
80
32
16
-16
-80
-144
-128
-64
16
112
80
-32
-64
-64
-96
-48
-16
128
256
176
48
-32
-32
-64
-112
-48
48
32
-48
-48
-32
48
16
-64
-48
-80
-96
0
16
16
48
0
-16
-96
-176
-32
64
64
80
48
0
48
64
48
-16
-32
-16
-32
-80
-144
-128
-96
0
48
-16
-16
16
-16
-16
16
16
32
32
0
16
-16
-48
-128
-144
-96
-32
48
112
112
112
16
16
144
160
80
-112
-208
-96
32
48
112
80
-96
-176
-192
-176
-96
-16
64
128
144
96
0
-112
-80
-32
-80
-80
-16
0
80
128
-16
-80
-80
-96
-64
-32
16
112
112
64
48
-16
16
144
80
-32
-112
-96
-80
16
96
64
32
-16
-32
-80
-96
-64
32
48
64
16
-48
-64
-48
-48
-64
-64
-80
-64
32
32
0
0
0
-16
16
32
48
32
-16
0
0
80
128
80
-64
-208
-176
-80
64
112
128
80
32
16
-32
-112
-128
-80
-32
0
0
0
16
16
32
-32
-96
-128
-32
32
32
0
-32
-32
16
32
32
48
0
-32
-80
-144
-128
-32
48
64
80
32
-80
-128
-32
48
64
48
48
32
32
32
32
80
96
-16
-96
-80
-80
-96
-48
-48
-64
-80
-48
64
144
144
80
32
64
16
-48
-160
-240
-176
-96
-16
32
80
64
0
-48
-32
-48
-32
48
48
64
48
0
-32
0
48
-32
-112
-96
-64
-64
-48
-16
32
48
48
16
48
144
160
96
-80
-176
-144
-112
-96
-96
0
80
112
160
144
32
-96
-128
-96
-80
-32
-32
-48
-64
-64
-96
-16
0
-32
-32
0
-16
-16
32
48
32
16
0
-48
-32
-32
-16
0
16
48
32
16
-32
-16
48
96
144
144
160
80
-128
-208
-144
-48
16
48
16
-48
16
48
-32
-32
-32
-80
-64
-16
0
-48
-80
-48
-32
-48
-48
-32
64
96
48
0
-48
48
112
32
0
-16
32
80
48
-64
-128
-128
-32
112
128
80
0
-144
-144
-48
32
80
80
0
-48
-64
-32
-32
-64
-144
-144
-64
48
96
64
-16
-64
-64
-32
48
64
80
80
48
32
48
0
-48
-80
-112
-176
-176
-32
64
96
64
-64
-128
-64
48
16
16
112
176
128
80
16
-80
-80
-80
16
64
96
128
128
-64
-224
-240
-160
-32
48
32
16
48
64
64
-16
-64
-32
-16
16
-16
-96
-176
-96
-32
-16
48
64
80
48
0
0
0
64
112
64
-16
-32
-48
-64
0
32
0
-48
-80
-32
48
16
0
32
48
48
-16
-80
-112
-32
64
48
48
-16
-64
-96
-48
32
112
112
16
-64
-32
0
16
0
-16
32
16
16
64
32
-16
-96
-32
-32
-96
-112
16
144
176
96
-32
-112
-16
32
32
-32
-64
16
16
-48
-96
0
64
64
48
-80
-96
-32
0
16
16
32
80
64
80
32
-160
-224
-128
-64
32
128
128
48
-32
-48
48
64
0
-48
-112
-80
-64
-48
-64
16
64
32
-96
-176
-64
80
112
48
-64
-80
-80
-96
-64
0
64
32
-48
-32
0
0
-16
0
32
16
-64
-64
-80
-32
48
128
112
0
-96
-32
32
0
-80
-96
-64
16
96
112
64
0
-32
-112
-128
-80
-32
48
-32
-48
64
80
64
-16
-16
32
48
-64
-64
-16
-16
16
-64
-160
-160
-96
-16
-32
-48
-48
0
48
64
96
112
112
64
16
-16
-48
-64
-32
0
-32
-64
-48
-32
-64
-80
-48
0
0
16
64
16
32
16
-16
-32
-64
16
160
208
48
-144
-160
-112
-96
-64
-64
-16
96
176
176
-48
-80
-16
-16
-80
-128
-64
0
16
16
-48
-64
-32
-32
-32
-80
-64
0
64
96
32
-32
-32
-16
-48
-48
0
96
96
80
64
0
-16
-32
-48
-48
-16
-16
-16
16
48
16
32
32
-16
-48
-96
-144
-144
-32
32
48
64
48
16
-48
-112
-144
-144
-96
80
128
128
160
144
64
32
-16
-80
-32
-32
-96
-128
-64
0
16
-16
-96
-144
-96
112
240
224
96
48
16
-48
-112
-112
-64
-32
-48
-64
-32
0
80
96
0
-32
-64
-112
-80
-32
16
32
-16
16
64
96
64
0
-48
-144
-144
-64
-48
-32
0
0
16
16
48
16
-48
-80
-96
-64
-32
-16
-32
16
32
16
16
16
0
48
96
64
16
-32
-48
-80
-48
32
32
-16
16
32
-32
32
144
112
0
-64
-80
-48
64
80
64
32
-144
-224
-80
-16
-16
16
0
-80
-96
-48
0
80
160
288
224
0
-224
-224
-80
-16
16
-32
-32
16
48
64
32
-64
-160
-160
-96
0
0
-16
0
-16
-32
-16
32
48
0
-32
0
16
0
-16
-64
-80
-64
-32
-48
-48
-32
16
96
64
-16
48
48
-32
16
80
48
0
0
-32
-64
-96
-112
-112
-128
-64
-48
-96
-112
-80
32
96
64
48
96
96
16
0
-32
-96
-80
16
64
64
48
16
-16
-96
-144
-64
160
224
176
128
64
48
0
-64
-144
-144
-32
48
96
16
-32
0
-48
-112
-128
-80
-48
-64
-32
16
32
16
-16
-32
-16
-32
-48
0
16
32
32
48
32
-16
-64
-64
-48
-112
-96
0
16
16
0
0
-16
0
32
48
64
48
16
16
-64
-80
-32
16
32
-16
-96
-96
-80
-16
80
80
48
-16
-80
-96
-48
32
48
0
-96
-80
32
48
32
32
0
-16
0
16
64
64
0
-80
-112
-64
-48
-16
32
16
48
112
48
-48
-64
-48
0
-16
0
16
32
32
-32
-48
-32
-32
-48
-48
-16
0
48
64
16
16
0
-64
0
48
64
48
32
0
-32
-32
-16
-48
-96
-112
-80
-32
96
128
-48
-64
-48
-64
-48
-32
0
32
-16
-48
0
80
96
96
64
-16
-96
-144
-128
-128
-112
-32
32
32
32
48
64
48
48
32
32
112
96
16
-32
-128
-128
-64
-64
-80
-64
-32
0
64
64
32
48
80
16
-48
-16
-16
-16
0
-16
-32
-32
0
-16
-64
-96
-160
-80
48
80
64
48
-16
16
64
96
80
32
-80
-128
-80
-80
-48
0
48
96
32
-32
-32
0
32
32
32
-32
-64
-48
-80
-64
-80
-64
0
16
0
32
64
64
0
0
0
-48
0
0
-32
16
32
-16
-48
-32
-32
0
32
0
-80
-96
-48
16
16
-32
-16
16
64
112
112
64
-32
-64
-48
-16
-16
0
48
48
-48
-160
-144
-48
16
64
80
64
0
16
112
96
0
-144
-176
-112
0
32
0
32
32
16
16
0
0
32
64
48
-64
-80
-16
32
48
16
-16
-32
32
64
-16
-48
-64
-64
-32
0
0
-48
-64
32
16
64
176
208
80
-112
-144
-128
-96
-32
-32
-48
-48
32
32
0
0
-16
-80
-80
16
16
-32
-16
64
64
0
0
16
0
-32
-64
-32
-16
-32
-96
-96
-64
0
32
48
32
-16
-32
-16
32
16
-16
0
16
64
64
16
-96
-96
-80
-48
48
128
64
48
-32
-96
-112
-112
32
64
0
-32
-64
-64
-48
16
16
-32
-48
32
144
160
16
-128
-144
-96
-16
80
144
48
-48
-48
-48
-64
-80
-64
0
0
0
0
32
80
128
64
-32
0
64
48
-32
-80
-64
-80
-96
-80
-48
16
112
48
0
16
-32
-80
-48
-64
-80
16
48
80
48
-16
0
16
32
48
16
-16
-80
-144
-96
-80
-112
-96
16
64
80
48
32
64
96
48
0
-32
-16
64
128
144
80
-16
-176
-224
-192
-144
-80
0
48
32
-16
-16
0
-32
16
96
96
32
-64
-96
-96
-80
-32
-16
-48
-64
-64
-16
64
64
32
16
48
48
80
64
0
-32
-32
-16
16
48
-16
-32
-64
-96
-64
16
48
16
-48
-64
-80
-32
96
96
-16
-96
-128
-128
-112
-32
64
48
48
80
48
32
0
-32
-32
-32
-80
-32
0
0
-32
-48
16
112
112
64
0
-144
-96
-32
0
32
32
16
32
80
80
32
-64
-128
-96
-80
-48
0
-32
-32
32
0
-48
-32
0
32
48
48
32
-16
-64
-64
-80
0
64
0
-48
16
112
112
16
-112
-144
-80
-48
-16
0
16
64
48
16
-48
-96
-64
0
0
-32
-64
-32
0
32
64
16
16
80
96
0
16
32
16
16
-48
-112
-48
-16
16
-48
-160
-128
-48
-16
32
64
112
160
160
80
-16
-48
-112
-128
-48
-32
-48
-64
-48
-48
-32
16
96
112
80
-16
-48
32
64
32
-32
-32
16
48
16
-64
-80
-112
-96
-16
-32
-80
-96
-16
32
16
16
16
64
112
32
-64
-48
-16
32
48
32
16
-48
-48
-64
-64
-32
-16
-16
-16
-32
-64
-80
32
128
176
176
48
-80
-96
-48
-32
-16
32
32
0
-80
-176
-144
-64
0
-16
0
0
16
48
32
64
16
16
-48
-64
-16
48
32
-48
-80
-32
32
96
112
48
16
-16
32
80
16
-48
-112
-80
-64
-16
48
64
64
16
-32
-32
-16
-32
-16
-16
-48
-48
0
-16
-80
-80
16
48
0
0
-48
-64
-16
32
112
176
144
0
-32
-80
-160
-96
-48
-64
-32
16
64
16
-32
-32
-48
-80
-80
-64
-32
32
80
80
96
64
-32
-16
16
-16
16
32
-16
-16
0
0
-96
-144
-112
-32
64
96
64
-48
-96
-80
-16
80
96
128
96
48
0
-80
-96
-80
-64
-64
-96
-80
-16
32
48
-16
-96
0
128
96
0
-32
-16
-64
-112
-80
0
0
0
0
16
-16
-80
-96
-112
-64
-16
0
64
48
32
96
128
144
240
208
-32
-176
-176
-64
-16
-32
-96
-128
-128
-64
-16
0
-32
-48
0
48
64
48
32
0
-48
-80
-32
32
16
-16
-64
-128
-96
16
80
48
-32
-80
0
64
80
64
32
48
16
-48
0
32
64
80
112
112
-32
-112
-80
-80
-112
-96
-32
-16
-32
-64
-96
-112
-32
48
64
48
16
32
80
80
-16
-112
-96
0
80
80
0
-64
-96
-128
-160
-112
16
96
112
64
16
16
48
96
0
-144
-96
16
64
16
-48
-48
-16
80
80
16
16
32
-32
-48
-80
-112
-80
-64
-16
64
32
16
96
96
16
-48
-48
-16
0
16
32
48
-32
-96
-112
-112
-112
-128
-48
48
112
128
112
80
-32
-64
0
16
-32
-64
-48
-32
-32
-32
-48
-64
-112
-112
16
96
80
0
-16
32
64
32
0
-16
0
0
0
0
-32
-16
-16
-64
-96
-96
-32
32
48
32
0
16
96
144
112
-32
-144
-144
-128
-48
-16
32
64
48
-48
-80
-80
-64
-32
0
16
32
96
112
-16
-48
64
48
-16
-112
-64
-16
32
48
48
32
-16
-32
-64
-64
-64
-96
-32
32
32
32
0
-16
0
-16
-32
-80
-64
0
32
16
-16
-32
-32
0
16
32
32
48
96
96
32
-96
-32
0
32
0
-80
-48
0
-32
-48
-80
-48
-32
-32
32
16
0
64
80
32
16
16
32
-16
-64
-96
-96
-80
-32
16
16
-16
-16
32
32
16
16
64
64
32
48
48
48
-32
-96
-80
-80
-96
-96
-64
-48
-48
-32
16
32
16
16
0
16
80
80
16
0
32
64
80
16
-96
-96
-48
-32
-80
-32
32
-16
-32
-32
-80
-48
-16
48
64
16
-96
-112
-32
-16
-32
16
48
80
64
16
0
-16
-16
-16
-32
-16
-32
-80
-16
16
32
32
0
-32
32
-16
-32
-16
0
16
-16
-48
0
48
48
32
-32
-64
-48
-16
0
0
-64
-80
0
48
48
64
96
96
32
-32
0
16
16
0
32
0
-128
-208
-128
-48
-48
-32
16
32
16
0
0
16
16
0
0
48
80
96
48
-32
-112
-80
-16
32
32
16
-32
-32
-16
-32
-48
-32
32
48
-16
0
64
0
-32
-64
-64
-64
-64
-16
32
48
-16
-32
-48
-64
-48
-16
16
64
48
48
64
48
-16
-48
64
128
64
-80
-128
-80
-48
-48
-80
-80
-32
-16
16
96
48
0
-16
-64
-64
-32
32
48
0
-32
-16
-16
-16
-32
-32
-48
-48
-16
0
16
64
32
32
32
16
-64
-48
0
16
16
-32
-80
-48
0
0
0
0
-32
-64
16
48
32
0
48
48
48
-32
-80
-16
48
96
80
-16
-48
0
-16
-48
-16
0
-32
-48
-16
16
48
32
-48
-96
-128
-112
16
96
80
48
16
-16
16
64
80
-32
-160
-96
-32
0
32
0
0
16
64
64
32
-48
-96
-32
0
-32
-48
-48
16
32
48
64
80
16
-64
-64
-16
16
32
-16
-112
-160
-96
0
0
-32
-32
-16
-16
32
64
64
48
0
-48
-16
0
0
64
32
-64
-80
-64
16
48
0
-32
-48
-48
32
112
112
96
80
48
64
16
-112
-128
-32
-64
-64
-96
-96
-32
-16
-32
-48
-32
48
80
16
0
32
48
64
32
-16
-48
-112
-80
32
64
0
-48
-16
16
32
48
32
-32
-64
-80
-16
96
128
96
16
-32
-80
-80
-32
-32
-64
-64
-48
-48
-16
48
48
48
16
16
-16
-16
-16
16
0
-64
-96
-16
32
80
80
-48
-96
-32
-32
-64
-80
0
80
80
32
-80
-96
-80
-32
16
16
32
32
80
96
80
32
-96
-112
-16
64
96
16
-16
16
-16
-64
-112
-128
-96
48
112
64
-16
-64
-80
-32
0
-16
-32
-32
0
32
48
48
32
16
-32
16
64
80
48
-16
-48
-32
0
-64
-96
-64
-32
0
0
-16
-64
-16
80
96
64
48
-32
-32
-16
16
64
32
-32
-32
-16
-16
-16
-80
-80
-48
-32
-32
16
32
32
0
-32
-48
-64
-80
-48
-16
-32
-48
32
32
0
32
80
144
128
80
0
-96
-96
-112
-64
-32
-32
0
16
-16
16
48
-32
-80
-32
32
64
80
64
48
32
32
-32
-112
-128
-96
-80
-80
-64
-48
-16
48
64
16
32
48
32
32
48
64
-16
-32
-16
-32
-48
-64
-80
-64
-80
-16
96
160
192
144
80
96
48
-112
-208
-176
-64
-16
16
-16
-32
-32
-48
-48
-32
-32
-16
32
0
-48
-16
0
16
0
16
48
80
80
32
-32
-112
-80
-16
-32
-48
-16
-16
0
16
-32
-48
0
64
64
80
48
-48
-96
-64
0
64
48
-16
-48
0
32
64
16
-80
-128
-144
-128
-64
32
80
48
16
64
48
64
112
64
16
-80
-96
-112
-80
-64
-64
-32
32
-16
-48
-32
48
96
32
0
32
96
144
112
64
32
-80
-128
-96
-80
-32
16
16
-16
-64
-96
-48
48
96
64
-80
-96
32
48
0
-64
-112
-128
-112
-80
-32
16
64
112
80
32
0
16
80
96
32
-32
-64
-48
-48
-32
-16
-16
-32
-48
-64
-80
-48
16
80
144
160
80
16
-64
-32
-48
-64
-80
-112
-80
0
32
16
0
-16
-32
-48
16
96
64
-32
-80
-48
0
48
16
-32
-80
-80
0
80
64
-16
32
96
96
80
-64
-80
-48
-96
-64
-16
16
16
-32
0
32
80
80
-16
-64
-80
-64
-16
-16
-48
-80
-48
-48
-32
80
176
128
16
-128
-112
16
64
-16
-80
-80
-96
-80
-16
32
48
0
0
32
64
96
80
0
-96
-112
-96
-16
32
32
16
-16
-32
-64
-64
-16
-16
-48
-96
-16
48
32
16
0
0
0
-48
0
48
48
32
16
-16
-112
-144
-96
-64
16
48
64
48
0
-48
-32
32
64
48
0
0
96
128
16
-112
-96
-96
-64
-48
0
0
-64
-32
-32
-32
16
48
96
64
-16
-64
-32
-16
-16
80
96
48
-16
-16
64
64
-80
-144
-96
-80
0
64
80
32
-48
-64
-32
-48
-64
0
80
64
-48
-64
-32
0
0
32
112
128
96
64
-32
-32
-80
-176
-208
-160
-64
48
96
96
64
0
-48
-16
48
32
0
0
0
0
-32
-48
-64
-64
-80
-48
32
80
80
80
80
64
0
-16
-32
-48
-16
0
48
16
-96
-96
-16
0
-48
-64
-48
-64
-80
-48
32
48
0
32
16
16
16
0
-32
-80
-48
-16
32
64
32
48
80
64
-32
-128
-112
0
64
80
16
-16
-32
-64
-64
-32
80
160
176
80
-96
-160
-128
-80
-96
-160
-160
-96
0
80
128
112
96
48
-16
-48
-64
-32
-16
-32
-32
-16
-16
16
0
-64
-160
-144
0
112
192
144
32
0
-48
-32
32
32
-32
0
0
0
-64
-80
-32
-48
-64
-80
16
128
176
128
-16
-32
-16
-64
-112
-144
-144
-64
32
64
32
-80
-96
16
48
32
32
32
0
-16
0
48
48
16
-80
-144
-112
0
96
128
80
-16
-32
-32
0
32
0
-64
-128
-64
-16
48
96
80
48
-16
-64
-80
-32
0
32
16
-48
-16
96
16
-80
-112
-80
-48
32
64
80
128
64
-16
-80
-96
-80
-48
-32
48
80
48
-32
-80
-128
-112
16
64
32
16
80
112
48
0
0
-48
-96
-80
-16
64
80
48
-64
-144
-96
0
80
64
0
-32
-32
0
0
-32
-64
-80
-80
-64
-48
-16
16
48
-16
-16
32
48
48
0
32
48
16
32
-32
-48
-16
0
-16
-32
-48
-48
-48
-48
-32
0
16
0
-16
-48
-16
32
0
-32
-32
0
48
80
64
0
16
-16
-48
-48
0
16
80
96
16
-64
-64
0
-16
-48
0
32
-16
-16
-16
-48
-80
-96
-48
-16
32
48
32
16
-16
-32
-16
-48
0
0
0
0
32
16
-48
-32
16
48
32
-16
-16
-32
0
0
-16
48
0
-48
32
-16
-32
-32
-48
-48
-32
-32
-48
-16
32
16
0
-48
-64
-48
-16
64
96
64
80
80
16
-80
-96
-80
-64
-64
-48
-48
-48
-16
16
0
-48
-80
-64
48
80
96
96
64
0
-32
32
32
-16
-32
-80
-64
0
32
-32
-64
-80
-80
-16
16
32
64
32
-16
-16
-16
0
16
-16
-48
-80
-96
-64
16
48
80
48
-16
0
16
80
96
32
0
-48
-64
16
-16
-80
-32
-32
-64
-80
0
16
32
64
32
32
48
64
64
-32
-128
-80
-64
-64
-16
32
16
-32
-32
-64
-96
-64
-32
-48
-32
32
48
64
80
32
32
32
-16
-48
-48
-16
0
16
-16
-32
-16
-32
-64
-64
16
64
48
48
16
-32
-16
48
80
48
32
0
-96
-48
64
64
-64
-144
-192
-144
-16
80
64
32
-32
-48
0
64
48
-16
-64
-48
-48
-16
32
48
0
-64
-80
-64
16
64
-16
-32
0
80
64
-16
0
0
-32
-32
-16
16
-16
-80
-112
-32
16
64
96
96
16
-16
-48
-80
-48
0
16
0
-32
-64
-32
-32
-80
-80
-32
0
32
16
-16
-16
0
32
112
160
80
-80
-96
-64
-16
0
32
-16
-128
-112
-16
80
144
160
32
-96
-144
-80
0
32
64
0
-64
16
64
48
-16
-80
-48
0
0
-16
-32
-16
0
16
32
0
-64
-32
16
-32
-64
-48
-32
32
16
-48
-32
32
112
128
96
0
-112
-96
-48
-64
-64
0
32
16
-16
48
64
64
0
-64
-16
80
64
-64
-128
-80
64
160
112
16
-48
-112
-128
-32
16
0
-48
-64
-48
0
16
-32
-48
-64
-48
16
112
144
48
-48
48
128
128
144
32
-112
-128
-32
32
64
32
0
-144
-208
-48
64
144
112
16
0
-16
-48
16
112
128
16
-160
-240
-128
-16
16
-32
-96
-96
-112
-48
16
16
0
-16
16
64
96
48
-32
-80
-80
-16
16
0
0
-16
-32
0
16
-16
-80
-112
-16
80
48
32
80
64
48
48
16
16
16
-32
-16
48
-16
-16
-64
-128
-128
-80
48
32
-32
-16
-48
-96
-112
-16
80
48
-32
-64
-48
-16
32
64
0
-64
-64
-32
16
48
64
80
48
16
-16
-32
-16
32
112
160
80
-112
-176
-80
-32
-16
16
64
48
32
64
64
0
48
-16
-112
-80
-96
-112
-48
-48
-64
0
32
0
-48
-48
0
48
80
112
16
-48
-80
-64
-64
-64
-32
-48
-32
-48
-80
-32
0
0
16
-16
-48
0
96
112
32
-48
-64
-48
0
32
32
-32
-96
-80
0
16
0
0
0
-16
-16
80
80
0
-32
-32
-64
-64
48
112
96
-32
-192
-160
0
48
16
-32
-48
-32
-32
-32
-32
-32
48
32
-48
-32
16
0
32
48
0
-48
-48
-16
-16
-16
0
32
32
32
16
-16
0
16
80
96
-16
-64
-32
-32
-48
-16
32
16
-32
-32
-32
-32
0
-16
-64
-32
16
48
32
0
-48
-80
-96
-32
48
64
32
32
0
32
80
48
-48
-96
-80
-48
-32
0
0
-16
-32
-64
-64
0
48
32
32
32
0
-16
0
16
48
96
80
-32
-112
-64
-64
-80
-48
16
-32
-48
0
16
16
48
80
32
-80
-64
-32
-48
-16
-16
0
48
0
-48
-16
0
-48
-48
0
0
0
16
16
-16
-48
0
0
16
32
16
-16
0
16
16
16
0
-64
-96
-48
0
0
32
48
32
-16
-64
-80
-16
-32
16
96
80
32
16
16
16
-32
-64
-32
-16
-64
-80
-80
-96
-64
-48
-16
0
0
64
96
32
-16
0
48
48
80
64
0
-80
-112
-112
-80
-32
32
48
48
64
16
16
32
-32
-16
16
0
16
48
16
-64
-112
-96
-80
0
-32
-96
-64
64
96
64
112
112
96
16
-64
-64
-48
0
-16
-64
-112
-112
-112
-64
-32
-16
64
144
96
48
16
16
80
48
-48
-144
-144
-96
-64
-48
-48
0
48
32
-32
-80
-32
0
16
48
80
144
208
128
-64
-176
-128
-64
-32
-32
16
0
-32
-80
-80
-32
32
64
16
0
-32
0
32
16
0
-32
0
80
80
16
-96
-112
-64
-48
-32
-16
-32
-64
-64
32
64
64
32
48
32
-16
-16
-32
-48
-16
-16
-32
-48
48
144
176
80
-128
-144
-16
0
-16
-80
-96
-48
32
16
-16
16
80
80
80
16
-16
-48
-80
-112
-32
128
176
80
-64
-176
-144
-16
64
32
-48
-64
32
48
64
96
48
32
32
-48
-64
-32
-64
-80
-64
-32
-16
-16
16
32
16
-16
-64
0
80
144
144
-48
-240
-208
-32
48
0
-32
-32
16
80
112
80
48
0
-64
-96
-96
-96
-48
-64
-80
-80
-32
48
32
-16
32
96
96
80
144
208
192
48
-224
-272
-144
-96
-64
-32
-48
-80
16
80
48
32
0
64
128
112
64
-16
-80
-128
-96
-48
16
16
-64
-32
-16
16
32
0
0
48
96
64
16
0
-16
-96
-112
-48
16
64
48
-48
-112
-112
-32
80
128
48
0
-16
0
16
32
48
-32
-144
-192
-128
48
112
64
32
32
96
128
128
16
-80
-96
-64
-64
-96
-112
-64
-64
-96
-80
-16
48
16
-32
-48
-80
-64
32
48
-48
-32
16
32
32
16
-16
-32
-16
16
64
64
-16
-32
0
64
32
-48
-96
-160
-96
16
80
96
80
128
96
-16
-144
-128
-32
16
0
-16
0
80
64
0
-96
-128
-96
-48
0
0
32
48
64
16
-32
-96
-64
0
48
64
32
-48
-64
-64
-80
-112
-48
0
0
32
64
96
112
96
48
-48
-112
-96
-32
-16
-48
-64
-64
-64
-32
16
16
0
-16
-32
-32
-32
0
64
96
64
16
0
16
16
-64
-160
-96
-32
64
64
-48
-64
-16
16
-32
-80
-64
32
144
160
80
-64
-96
-16
64
80
-16
-176
-144
-80
16
48
32
0
-32
0
48
48
48
32
48
32
-32
-96
-112
-64
32
32
16
32
0
-16
16
16
0
-16
-32
-80
-80
-48
-16
-16
-32
-16
48
112
80
0
-48
32
160
112
-80
-48
16
32
0
-80
-128
-96
-80
-64
-48
-64
-32
16
32
0
-48
-48
-32
-16
16
32
48
32
48
64
32
-16
-96
-32
0
0
-48
-112
-112
-32
0
-16
-48
-16
32
64
128
160
112
80
32
0
-64
-128
-96
-64
-32
-16
16
48
-48
-208
-176
-48
80
32
-16
16
16
64
80
16
32
64
64
16
-64
-112
-80
0
0
-48
-16
16
48
0
-16
32
64
64
16
-48
-64
-32
-16
-64
-48
16
80
80
48
-48
-96
-32
16
80
64
-48
-96
-112
-80
16
96
80
-32
-128
-96
-32
-32
-32
-16
48
16
16
32
0
-32
-96
-64
-32
-16
0
-16
-16
-16
0
32
32
16
-64
-48
48
-32
-80
0
80
96
80
0
-32
0
0
0
0
-16
32
64
32
-112
-112
64
144
64
-32
-80
-32
-32
-48
-48
-48
-16
48
0
-48
-16
48
64
80
112
96
-80
-144
-48
-64
-32
0
80
208
224
80
-80
-176
-160
-64
-32
-16
-32
-96
-112
-64
16
16
16
0
-16
-16
0
32
112
128
32
-80
-96
-48
-16
-16
-64
-96
16
64
48
48
80
128
64
-32
-96
-80
0
32
16
16
16
-48
-112
-144
-112
-96
-64
-16
32
80
80
64
16
-16
0
16
48
64
16
48
32
0
-16
-64
-112
-128
-128
-96
16
64
0
32
48
112
144
80
-128
-192
-48
80
80
32
16
0
-32
32
64
0
-64
-64
-64
-64
-48
0
64
64
32
48
48
-16
-64
-64
-32
16
0
-48
-128
-96
-80
-96
-32
64
112
48
-32
0
16
48
16
-80
-128
-64
16
48
0
-64
-64
-16
-16
-48
-64
-16
32
16
-32
-48
48
112
32
-64
-48
16
32
32
0
-48
-32
16
32
0
-48
-32
64
144
112
16
-32
96
96
64
0
-96
-96
-96
-16
-48
-112
-144
-128
-64
-80
-96
-48
16
48
32
64
96
96
64
0
0
48
32
16
48
48
0
16
0
-112
-144
-128
-80
-32
0
0
48
96
64
0
-32
-48
-32
32
112
80
16
-32
-96
-80
-64
-48
-32
-16
16
32
-16
-48
-64
-80
-16
0
0
-48
-32
16
64
32
-32
-64
-32
-32
-48
-80
-48
16
-48
-80
-16
32
64
32
0
-16
-16
48
144
128
-32
-80
-32
32
48
16
-16
16
16
-16
48
64
-16
-112
-128
-128
-112
-64
-32
-16
16
80
128
128
176
160
-80
-208
-128
-64
16
16
-16
-48
-64
-48
-48
-64
-48
-16
32
64
64
32
0
-16
0
48
16
0
32
-16
-48
-80
-96
-48
-16
-48
-64
-32
48
80
96
16
48
96
64
16
-80
-128
-64
0
64
80
64
32
0
-112
-144
-96
-64
-32
-48
-96
-80
-64
64
160
112
80
-32
-64
16
128
176
96
0
-160
-208
-32
48
48
16
-64
-48
-96
-64
48
96
32
-64
-32
-16
0
32
32
0
-32
-112
-96
-32
-16
-32
-16
0
32
48
64
144
128
-48
-160
-112
0
0
-48
-32
0
-32
-16
48
96
16
-64
-112
-80
0
32
96
128
96
0
-160
-176
-96
-32
-32
32
32
-48
-32
-80
-112
-16
48
96
64
16
32
80
112
32
-48
-96
-96
-80
-80
0
112
96
64
0
-128
-112
-96
0
32
32
32
80
128
64
48
32
48
96
64
-48
-48
-64
-160
-224
-208
-48
96
64
-16
-48
-80
-48
16
16
64
32
-32
-16
-16
0
16
16
-32
-80
-64
16
48
16
16
16
-32
-64
-16
128
240
160
-48
-160
-32
0
-16
-112
-144
-48
112
80
-16
-128
-64
16
32
32
-16
-32
-48
-80
-64
-96
-48
32
48
-16
-80
-32
48
16
0
-16
0
0
0
0
16
64
32
-32
-32
-64
-80
-80
-80
-48
16
48
32
0
-16
0
16
16
32
16
-32
-80
-96
-48
48
48
16
32
16
64
160
144
48
-48
-112
16
16
-48
-80
-96
-80
-112
-80
16
112
112
32
-64
-192
-128
64
80
0
-16
-16
80
48
0
0
0
16
-48
-112
-48
32
144
176
112
-48
-96
32
0
-48
0
-16
-64
-48
-16
-16
0
-16
-64
-96
-64
-16
32
48
64
112
96
32
-128
-208
-80
32
32
64
32
-16
0
-16
-32
-48
-80
-96
-64
-64
-32
80
112
48
-64
-160
-80
64
64
128
112
16
-48
-96
-64
-16
-64
-96
-128
-112
-32
128
144
32
0
32
32
64
64
64
64
48
-48
-128
-80
-16
-16
-80
-160
-176
-128
-96
-64
-64
48
160
96
64
64
64
96
144
112
96
112
112
16
-192
-208
-128
-96
-128
-160
-160
-64
32
32
16
16
-48
-16
64
96
80
64
16
48
64
64
48
0
-48
-112
-160
-160
-48
32
0
-16
-80
-64
16
80
80
48
48
64
64
16
-48
-32
32
48
-48
-96
-80
32
112
32
-80
-80
-48
0
0
-80
-128
-48
64
48
0
-16
0
-48
-64
-48
0
32
48
48
32
0
-16
-16
-32
-80
-112
-32
80
64
-16
-96
-48
-16
16
64
48
16
112
160
112
32
-48
-96
-64
-64
-96
-112
-80
0
16
-80
-128
-80
0
64
16
-48
-80
16
112
80
-16
-16
64
64
16
-32
-96
-48
16
-32
-80
-48
48
80
32
-16
-48
-32
0
-16
-48
-48
0
32
32
0
-64
-80
-32
64
64
64
80
16
0
64
16
-112
-128
-80
0
48
48
48
16
-48
-128
-160
-64
32
0
-48
-64
-64
-32
16
32
16
16
48
144
160
64
-16
-112
-96
-48
-48
-48
32
16
-48
-112
-80
-80
-64
-16
32
80
96
128
112
48
-32
-112
-48
16
16
0
-80
-80
-48
-112
-96
-64
-32
0
64
144
192
160
160
80
-64
-176
-160
-48
32
0
-32
-96
-80
-48
-32
-64
-80
-48
32
64
32
0
-32
0
16
0
-16
-16
-32
-64
-48
0
16
32
16
-16
-16
0
16
48
64
32
-32
-96
-48
32
16
0
0
-48
-64
-48
0
48
0
-64
-32
-16
-16
0
0
16
0
-16
48
48
-16
-80
-96
-64
16
48
16
0
-16
-64
-64
-64
-48
-64
-64
-32
-16
-16
0
48
64
32
16
0
0
32
16
-16
0
0
32
16
-16
-48
-80
-64
0
32
16
-16
0
0
16
80
128
128
48
-48
-112
-64
-64
-64
-32
-48
-96
-64
16
64
80
32
-16
-32
-32
-32
16
32
-16
-32
-48
-32
-32
-48
-16
16
0
16
48
48
-16
-64
-32
16
0
-48
-64
-80
-64
-48
-16
0
-16
0
0
32
64
64
32
32
32
32
16
-16
-80
-128
-128
-128
-64
0
32
0
-32
-32
-16
16
32
32
16
0
-16
-32
16
32
-32
-80
-128
-112
-16
48
48
-16
0
32
0
0
64
64
48
16
-48
-64
-64
-48
-32
0
-32
-64
-48
-32
-16
-16
-16
0
16
0
0
16
0
-16
0
-16
-32
-16
16
32
16
16
-16
-32
-32
-32
-16
-16
16
16
16
16
16
0
-16
-32
-48
-48
-16
-16
-16
-16
-48
-48
0
-16
-16
0
48
64
32
16
16
16
48
48
0
-80
-80
-48
-16
-32
-48
-48
0
16
32
64
80
64
32
32
0
-16
-16
-48
-48
-16
0
0
16
0
-64
-64
-48
-32
-48
-16
16
16
0
0
32
48
32
-16
-32
-64
-64
-32
-48
-48
-16
-16
-16
-32
-48
-16
0
-16
0
16
0
0
-16
-48
-16
0
16
0
0
-16
-16
-32
-32
-32
-48
-48
-32
-32
-16
-16
0
16
16
0
0
16
0
-48
-64
-16
32
0
-16
-32
-32
-32
-16
-16
0
0
16
16
16
16
0
0
-16
-48
-48
-16
16
0
-16
-16
0
0
0
16
16
16
16
16
0
-16
-16
0
-16
-32
-32
-16
-16
-32
-32
-32
-16
0
0
16
16
16
32
16
16
-16
-32
-16
-16
-16
-16
-32
-32
-16
-16
-32
-32
-16
0
16
16
16
16
16
0
-16
-32
-32
-32
-16
-32
-32
-16
-16
-16
-16
-32
-16
0
16
16
16
16
16
0
-16
-32
-32
-32
-32
-32
-32
-32
-32
-16
-16
-16
0
0
16
16
16
16
16
0
-16
-32
-32
-32
-32
-32
-32
-32
-32
-16
-16
-16
-16
0
16
0
16
16
16
0
-16
-32
-32
-32
-32
-32
-32
-32
-32
-32
-32
-32
-32
-16
0
0
0
0
0
-16
-16
-32
-16
-16
-16
-32
-32
-32
-32
-32
-32
-32
-16
0
16
16
16
16
16
0
-16
-32
-48
-48
-64
-64
-80
-64
-64
-64
-64
-48
-32
-16
0
16
16
16
0
-16
-32
-48
-48
-48
-48
-64
-64
-48
-48
-48
-48
-48
-32
-16
0
0
0
0
0
-16
-48
-64
-80
-80
-80
-64
-64
-48
-48
-48
-48
-48
-32
-16
0
0
0
0
-16
-16
-48
-64
-64
-64
-64
-48
-48
-48
-48
-32
-32
-48
-32
-32
-16
-16
-16
-16
-16
-32
-48
-64
-64
-64
-64
-48
-48
-32
-32
-32
-32
-32
-32
-16
0
0
0
0
0
-16
-32
-48
-48
-48
-48
-48
-64
-64
-64
-48
-48
-48
-32
-16
0
16
16
16
0
0
-16
-32
-32
-32
-48
-48
-48
-32
-32
-32
-32
-32
-32
-16
0
0
0
0
0
0
-16
-32
-16
-16
-32
-32
-32
-32
-32
-32
-32
-32
-32
-16
0
0
0
0
0
0
0
-32
-32
-32
-32
-32
-16
-16
-16
-16
-32
-32
-16
-16
0
0
0
16
16
0
0
-32
-32
-32
-32
-32
-32
-32
-16
-16
-32
-32
-16
0
16
16
16
16
16
16
0
-16
-32
-32
-16
-32
-32
-32
-16
-16
-16
-16
-16
0
16
16
16
32
32
16
0
-16
-32
-32
-32
-32
-32
-32
-16
-16
-16
-16
-16
0
16
16
16
32
32
16
0
-16
-16
-16
-16
-32
-32
-16
-16
-16
-16
-16
-16
0
16
16
16
32
16
16
0
-16
-16
-16
-32
-32
-32
-32
-16
-16
-16
-16
-16
0
16
32
32
32
32
16
0
-16
-16
-16
-16
-32
-16
-32
-16
-16
0
-16
-16
0
16
16
16
16
16
16
0
-16
-16
-16
-16
-32
-16
-16
-16
-16
-16
-16
-16
0
16
32
32
32
32
16
0
-16
-16
-16
-16
-16
-16
-16
-16
-16
-16
-16
-16
0
16
16
16
16
32
16
0
-16
-16
-16
-16
-32
-16
-16
-16
-16
-16
-16
-16
0
16
32
32
32
32
32
16
-16
-32
-16
-16
-16
-16
-16
-16
-32
-16
-16
-16
0
16
16
16
16
32
16
0
-16
-32
-32
-16
-16
-32
-16
-16
-16
-16
-16
-16
0
16
16
16
16
16
16
0
-16
-16
-16
0
-16
-16
-16
-16
-16
-16
-16
-16
16
16
16
16
16
32
16
0
-16
-16
-16
-16
-16
-32
-32
-16
0
-16
-16
-16
0
16
16
16
32
32
16
16
0
-16
-16
-16
-16
-16
-16
-16
-16
-16
-16
-16
0
16
32
32
32
16
16
16
0
-16
-16
-16
-32
-16
-16
-16
-16
-16
-16
-16
0
16
16
16
32
16
16
16
0
-16
-16
-16
-16
-16
-16
-16
-16
-16
-16
-16
0
16
16
32
32
16
16
16
0
-16
-16
-16
-16
-16
-16
-16
-32
-16
-16
-16
0
16
16
16
32
32
16
0
-16
-16
-16
-16
-16
-16
-16
-16
-16
-16
-16
-16
0
16
16
16
16
16
16
0
-16
-16
-16
-16
-16
-16
-16
-16
-16
-16
-16
-16
0
16
16
16
16
16
16
0
-16
-16
-16
-16
-16
-16
-16
-16
-16
-16
-16
-32
-16
16
16
16
16
16
16
16
-16
-16
-16
-16
-32
-32
-32
-16
-16
-16
-16
-32
-16
0
16
16
16
16
16
16
0
-16
-16
-16
-32
-16
-16
-16
-16
-16
-16
-16
-16
0
16
16
16
16
32
16
0
-16
-16
-16
-16
-16
-16
-16
-16
-16
-16
-16
-16
0
16
16
16
16
16
16
-16
-16
-16
-16
-16
-32
-32
-16
-16
-16
-16
-16
-16
0
16
16
16
32
32
16
0
-16
-16
-16
-16
-16
-16
-16
-16
-16
-16
-16
0
16
16
16
32
32
16
16
0
-16
-16
-16
-16
-32
-32
-16
-16
-16
-16
-16
-16
0
16
16
32
32
32
16
0
-16
-16
-16
-32
-32
-16
-16
-16
-16
-16
-16
-16
0
16
16
16
16
32
16
0
-32
-32
-16
-16
-32
-32
-16
-16
-16
-16
-32
-16
0
16
16
16
32
16
16
0
-16
-16
-16
-16
-16
-16
-32
-32
-16
-16
-32
-16
0
16
16
16
16
16
16
-16
-32
-32
-16
-16
-16
-16
-16
-32
-16
-32
-32
-16
0
16
16
16
32
16
16
0
-16
-32
-32
-16
-16
-16
-16
-32
-32
-16
-32
-16
0
16
16
16
16
16
16
0
-16
-16
-16
-32
-32
-32
-32
-32
-16
-16
-16
-16
0
16
16
16
16
16
0
0
-16
-16
-16
-32
-32
-32
-16
-16
-16
-16
-16
-16
0
16
16
16
16
16
16
0
-16
-16
-16
-32
-32
-32
-32
-16
-16
-16
-16
-16
0
16
16
16
16
32
16
0
-16
-16
-16
-16
-32
-32
-16
-16
-16
-16
-16
-16
0
16
16
16
16
16
16
0
-16
-16
-16
-16
-16
-16
-16
-16
-16
-16
-16
-16
0
16
16
16
16
16
16
16
-16
-16
-16
-16
-32
-16
-16
-16
-16
-16
-16
-16
0
16
16
16
16
16
16
0
-16
-16
-16
-16
-16
-16
-16
-16
-16
-16
-16
-16
0
16
16
16
16
16
16
0
-16
-16
-16
-32
-32
-32
-16
-16
-16
-16
-16
-16
0
16
16
16
16
16
16
0
-16
-16
-16
-16
-16
-16
-16
-16
-16
-16
-32
-16
0
16
16
16
16
16
16
0
-16
-16
-16
-16
-16
-32
-16
-16
-16
-16
-32
-16
0
16
16
16
16
16
16
0
-16
-16
-16
-16
-16
-16
-16
-16
-16
-16
-16
-16
0
16
16
16
16
16
16
0
-16
-16
-16
-16
-16
-16
-32
-32
-16
-16
-16
-16
0
16
16
16
16
32
16
16
-16
-16
-32
-32
-32
-32
-16
-16
-16
-16
-16
-16
0
16
16
16
16
16
16
0
-16
-16
-16
-16
-16
-16
-16
-16
-16
-16
-16
-16
0
0
16
0
16
16
16
0
-16
-16
-16
-16
-16
-16
-16
-16
-16
-16
-16
-16
-16
0
16
16
16
16
16
0
-16
-16
-16
0
-16
-16
-32
-16
-16
-16
-32
-32
-16
0
16
16
16
16
16
0
-16
-16
-16
-16
-16
-16
-16
-16
-16
-16
-16
-16
0
16
16
16
16
32
16
0
-16
-16
-16
-16
-16
-16
-16
-32
-16
-16
-32
-32
-16
16
16
16
16
16
16
0
-16
-16
-16
-16
-32
-32
-16
-16
-16
-16
-16
-16
-16
0
16
16
16
16
16
16
-16
-16
-16
-16
-16
-16
-16
-16
-16
-16
-16
-16
0
0
16
16
16
16
16
0
-16
-16
-16
-16
-16
-16
-16
-16
-16
-16
-16
-16
0
0
16
16
32
32
16
0
-16
-32
-16
-16
-16
-16
-16
-16
-16
-16
-16
-16
0
0
16
16
16
16
16
0
-16
-16
-16
-16
-16
-16
-16
-16
-16
-16
-16
-16
0
16
16
16
16
16
16
0
-16
-16
-16
-16
-32
-16
-16
-16
-16
-16
-16
-16
-16
0
16
16
16
16
16
16
0
-16
-16
-16
-32
-32
-32
-16
-16
-16
-16
-32
-16
0
16
16
16
16
16
0
0
-16
-16
-16
-16
-32
-16
-16
-16
-16
-16
-16
-16
0
16
16
16
16
16
16
-16
-16
-16
-16
-16
-16
-16
-16
-16
-16
-16
-16
0
0
16
0
0
16
16
16
-16
-16
-16
-16
-32
-32
-32
-16
-16
-16
-16
-16
0
0
16
16
16
16
16
0
0
-16
-16
-16
-16
-16
-16
-16
-16
-16
-16
-16
-16
0
16
16
16
16
16
0
0
-16
-16
-16
-16
-32
-16
-16
-16
-16
-16
-16
-16
0
16
16
16
16
16
0
0
-16
-16
-16
-16
-16
-16
-16
-16
-16
-16
-16
-16
0
0
16
16
16
16
0
0
-16
-16
-16
-16
-32
-32
-16
-16
-16
-16
-16
0
0
0
16
16
16
16
16
0
-16
-16
-16
-16
-16
-16
-16
-16
-16
-16
-16
-16
0
0
16
16
16
16
0
0
-16
-16
-16
-16
-32
-32
-32
-16
-16
-16
-16
-16
0
16
0
0
16
16
16
0
-16
-16
-16
-16
-16
-16
-32
-16
-16
-16
-32
-16
0
16
16
16
16
16
16
0
-16
-16
-16
-16
-16
-32
-16
-16
-16
-16
-16
-16
0
16
0
0
16
32
16
0
-16
-16
-16
-16
-32
-32
-32
-32
-16
-16
-16
-16
0
16
16
16
16
16
0
0
-16
-16
-16
-16
-16
-16
-16
-16
-16
-16
-16
-16
0
16
16
16
16
16
16
0
-16
-32
-16
-16
-16
-16
-16
-16
-16
-16
-16
-16
0
16
16
16
16
16
0
0
-16
-16
-16
-16
-16
-16
-32
-32
-16
-16
-32
-16
0
16
16
16
16
16
16
0
-16
-16
-16
-16
-16
-16
-16
-16
-32
-32
-32
-16
0
16
16
16
16
16
0
0
-16
-16
-16
-16
-16
-16
-32
-32
-32
-16
-32
-16
0
16
16
0
0
16
0
0
-16
-16
-16
-32
-32
-32
-16
-16
-32
-16
-32
-16
-16
16
16
16
16
16
0
0
-16
-16
-16
-32
-32
-16
-32
-32
-32
-32
-32
-16
0
16
16
16
16
16
16
0
-16
-32
-32
-32
-32
-32
-32
-16
-16
-16
-32
-16
-16
0
16
16
16
16
16
0
-16
-16
-16
-32
-32
-16
-16
-16
-32
-32
-32
-32
-16
0
16
16
16
16
16
0
-16
-16
-16
-16
-32
-32
-16
-16
-16
-16
-32
-32
-16
0
0
0
16
16
16
0
-32
-32
-32
-32
-16
-16
-16
-16
-16
-16
-32
-32
-16
0
16
16
16
16
0
0
-16
-32
-16
-16
-32
-32
-32
-16
-16
-16
-16
-16
-16
0
0
16
16
16
0
0
-16
-32
-32
-32
-32
-32
-16
-16
-16
-32
-32
-32
-16
0
16
16
16
16
16
0
-16
-32
-32
-32
-32
-32
-32
-32
-16
-16
-16
-16
-16
0
0
0
16
16
0
0
-16
-32
-32
-32
-32
-32
-16
-16
-16
-32
-32
-32
-16
0
16
0
0
16
16
0
-16
-16
-16
-16
-32
-16
-32
-32
-32
-16
-32
-32
-16
0
0
0
0
0
0
-16
-16
-32
-32
-32
-32
-32
-32
-32
-32
-16
-32
-32
0
0
16
16
16
16
16
0
-16
-16
-16
-16
-32
-32
-32
-32
-32
-16
-32
-32
-16
0
0
16
16
16
16
0
-16
-32
-16
-16
-32
-32
-32
-32
-16
-16
-16
-16
-16
0
16
16
0
16
16
0
-16
-32
-32
-32
-32
-32
-32
-32
-16
-16
-32
-32
-16
0
16
16
16
16
16
0
-16
-16
-16
-16
-32
-32
-32
-16
-16
-16
-32
-32
-16
0
0
0
0
16
16
0
-16
-32
-32
-32
-32
-32
-32
-32
-32
-32
-32
-32
-16
0
0
0
0
16
16
0
-16
-16
-16
-16
-32
-32
-16
-16
-32
-16
-16
-32
-16
0
0
0
16
16
16
0
-16
-16
-16
-16
-16
-16
-32
-32
-32
-16
-16
-16
-16
0
16
16
16
16
0
0
-16
-16
-16
-16
-32
-32
-32
-32
-32
-16
-16
-32
-16
0
0
0
16
16
16
0
-16
-32
-32
-16
-32
-16
-32
-32
-32
-32
-16
-32
-16
0
16
16
0
0
16
0
-16
-32
-32
-32
-32
-32
-32
-32
-32
-32
-32
-32
-16
0
0
0
16
16
16
0
-16
-32
-32
-32
-32
-32
-32
-32
-32
-32
-16
-16
-16
0
0
0
0
0
16
0
-16
-32
-32
-32
-32
-32
-32
-32
-32
-32
-32
-32
-16
0
0
0
16
16
16
0
-16
-16
-16
-32
-32
-32
-32
-16
-32
-16
-32
-32
-16
0
0
0
16
0
0
0
-16
-32
-16
-16
-32
-16
-16
-16
-16
-16
-32
-32
-16
0
0
0
0
16
0
0
-16
-32
-16
-16
-32
-32
-32
-16
-32
-16
-32
-32
-16
0
16
16
16
16
0
0
-16
-32
-32
-16
-32
-32
-32
-32
-32
-16
-32
-32
-16
-16
0
16
16
16
16
0
-16
-32
-32
-16
-32
-32
-32
-32
-32
-16
-16
-32
-16
0
0
0
16
16
16
0
-16
-32
-32
-32
-32
-32
-16
-32
-32
-16
-16
-32
-16
-16
0
0
0
16
16
0
-16
-32
-32
-16
-16
-32
-32
-16
-16
-16
-16
-32
-16
0
0
0
0
16
16
0
-16
-32
-32
-32
-32
-16
-32
-16
-16
-16
-32
-32
-16
0
16
16
16
16
0
0
-16
-32
-32
-16
-16
-32
-32
-32
-16
-16
-16
-16
-16
0
0
0
16
16
16
16
0
-16
-16
-32
-32
-32
-32
-16
-32
-16
-16
-32
-16
0
16
16
16
16
16
0
-16
-32
-32
-32
-32
-16
-16
-32
-32
-32
-32
-32
-16
-16
0
0
0
16
16
16
0
-16
-32
-32
-32
-32
-32
-32
-32
-32
-32
-32
-32
-16
16
16
16
16
16
0
-16
-32
-32
-32
-32
-32
-32
-32
-32
-32
-32
-32
-32
-16
0
16
16
16
16
16
0
-32
-32
-16
-32
-32
-32
-16
-16
-32
-32
-32
-16
0
0
16
16
16
16
16
0
-16
-32
-32
-32
-32
-32
-32
-32
-16
-16
-16
-16
-16
0
16
16
16
16
16
0
-32
-32
-16
-16
-32
-32
-32
-16
-16
-16
-32
-16
-16
0
16
16
16
16
16
0
-32
-32
-32
-32
-32
-32
-32
-32
-32
-32
-32
-16
-16
0
16
0
0
16
16
0
-32
-32
-16
-16
-32
-32
-32
-32
-32
-16
-32
-16
0
0
0
0
16
16
16
0
-16
-32
-32
-32
-32
-16
-32
-32
-32
-32
-32
-32
-16
16
16
16
16
16
16
0
-16
-16
-16
-16
-32
-32
-32
-32
-16
-16
-32
-16
0
0
0
16
16
16
16
0
-16
-16
-16
-32
-32
-16
-32
-16
-16
-32
-32
-32
0
16
16
16
16
16
16
0
-16
-16
-16
-16
-32
-32
-32
-32
-16
-16
-32
-32
-16
16
16
16
16
16
16
0
-16
-32
-32
-16
-16
-16
-32
-16
-16
-32
-32
-16
0
16
16
16
16
16
16
0
-16
-32
-32
-32
-32
-32
-32
-32
-32
-16
-32
-32
-16
0
16
16
32
16
16
0
-16
-32
-32
-32
-32
-32
-32
-16
-32
-16
-16
-16
-16
0
16
16
16
16
16
0
-16
-16
-32
-16
-16
-32
-32
-32
-32
-32
-32
-16
-16
0
16
16
16
16
16
0
-16
-16
-16
-32
-32
-32
-32
-16
-16
-16
-16
-16
0
0
0
16
16
16
16
0
-16
-16
-16
-16
-32
-32
-32
-32
-32
-32
-32
-32
-16
0
16
16
16
16
16
0
-16
-32
-16
-16
-32
-32
-32
-16
-16
-16
-32
-32
-16
0
16
16
16
16
16
0
-16
-32
-32
-32
-16
-16
-16
-32
-32
-16
-32
-32
-16
0
16
16
16
32
16
0
-16
-32
-32
-16
-32
-32
-32
-16
-16
-16
-32
-32
-16
0
16
16
16
32
16
0
-16
-32
-32
-16
-32
-16
-32
-32
-32
-16
-16
-16
-16
0
16
16
16
16
16
16
-16
-32
-16
-16
-32
-32
-32
-32
-32
-16
-16
-16
-16
0
16
16
16
32
16
0
0
-16
-16
-32
-32
-32
-32
-32
-32
-16
-16
-32
-16
0
16
16
16
16
16
0
-16
-32
-32
-16
-32
-32
-32
-16
-16
-16
-16
-16
0
0
16
0
16
32
16
0
-16
-16
-16
-32
-32
-32
-32
-16
-16
-16
-16
-16
0
0
16
16
16
16
16
0
-16
-32
-16
-16
-16
-16
-16
-16
-16
-16
-16
-16
-16
0
16
16
16
32
16
0
-16
-32
-16
-16
-16
-32
-16
-16
-16
0
0
-16
-16
0
16
16
16
16
16
16
0
-16
-16
-16
-16
-16
-16
-16
-32
-16
-16
-16
-16
0
16
16
16
16
16
16
0
-16
-16
-16
-16
-32
-16
-16
-16
-16
-16
-16
-16
0
16
16
16
16
32
16
0
-16
-32
-16
-16
-16
-16
-16
-16
-16
-32
-32
-16
0
16
16
16
16
16
16
0
-16
-16
-16
-16
-32
-32
-16
-16
-16
-32
-32
-16
0
16
16
16
32
16
16
0
-16
-16
-16
-32
-16
-16
-16
-16
-16
-16
-32
-16
0
16
16
16
16
16
16
-16
-32
-16
-16
-16
-32
-32
-16
-16
-16
-16
-16
-16
0
16
16
16
16
16
16
0
-16
-16
-16
-16
-16
-16
-32
-16
-16
-16
-16
-16
16
32
32
16
32
32
32
0
-16
-16
-16
0
-16
-16
-16
-16
-16
-16
-16
-16
-16
0
0
0
16
16
16
0
-16
-16
-16
-16
-16
-16
-16
-16
0
-16
-16
-16
16
32
32
32
16
16
16
16
0
0
-16
-16
-16
-16
-32
-16
-16
-32
-16
-16
0
0
0
16
16
16
16
0
-32
-32
-32
-32
-48
-32
-32
-16
-16
-16
-32
-16
0
16
16
16
16
16
16
0
-16
-16
-16
-16
-32
-32
-48
-48
-32
-16
-16
-16
0
16
16
16
32
32
16
0
-16
-32
-32
-16
-16
-16
-16
-32
-32
-16
-32
-16
-16
0
16
16
16
32
16
-16
-32
-32
-16
-16
-16
-16
0
0
-16
-16
-32
-16
0
16
32
32
16
16
16
0
-16
-16
-16
-32
-16
0
0
0
-32
-32
-16
-16
0
16
32
32
16
16
16
16
-16
-16
0
0
-16
-16
-16
-16
-32
-16
-16
0
16
16
-16
0
16
32
16
16
-16
-16
0
-16
-16
-32
-16
-16
-16
-16
-16
-16
0
32
64
48
16
16
32
0
-32
-16
-16
-16
0
0
-16
-32
-16
-16
-16
0
16
16
16
32
32
16
16
0
0
-16
0
-16
-16
-16
-16
0
0
16
16
32
64
48
0
-32
0
32
32
16
0
-32
-48
-32
-16
-16
-16
0
0
-16
-32
-16
0
16
32
16
0
0
16
-16
-16
-16
-32
-16
-16
-32
-32
-16
-16
-16
-16
-16
-16
0
0
16
32
32
16
0
-16
-32
-16
0
32
48
16
0
32
48
-16
-96
-80
0
96
128
128
48
-32
-48
-64
-32
-16
-32
-48
-32
-16
-16
0
16
-16
-64
-48
0
32
48
48
32
0
-16
-16
-32
0
0
-32
-32
0
32
16
0
-16
-48
-32
0
0
48
48
16
0
16
0
0
0
0
-16
0
-16
-32
-64
-48
0
32
32
0
-16
-48
-48
16
64
80
64
16
-32
-48
-32
-64
-32
0
-32
-48
0
16
32
0
-32
-16
-16
16
48
48
64
80
80
32
-32
-48
-32
-64
-80
-64
-32
-16
0
0
16
0
16
48
48
32
32
16
-16
-32
-64
-80
-48
-32
-32
-32
-48
-32
0
0
16
16
32
32
16
0
-16
-32
-16
-16
-32
-32
-32
-32
-16
-16
-48
-48
-16
16
16
16
16
32
16
-16
-64
-64
-32
0
32
16
-48
-48
16
16
-32
-48
0
0
0
16
16
16
16
0
-48
-80
-80
-48
0
16
-16
-16
0
-16
-16
-16
0
16
16
16
0
0
16
16
-16
-32
-32
-16
0
-16
-16
-16
-16
-16
0
-16
-16
-16
16
48
48
32
0
0
0
-16
-32
-32
-48
-32
0
-16
-48
-48
-16
-16
-16
0
32
32
16
16
32
16
0
-16
-16
-32
-32
-48
-32
-16
-48
-32
-16
-32
-16
16
32
16
32
32
16
16
0
-16
-16
-16
-16
-32
-16
-32
-32
-16
-16
-32
0
16
16
0
0
16
32
16
0
-16
-32
-16
-32
-32
-32
-16
-16
-16
-32
-32
0
16
16
0
0
16
32
16
0
-32
-32
-16
-32
-16
-32
-16
-16
-16
-16
-32
-16
0
0
0
0
16
16
16
-16
-32
-32
-32
-32
-16
-16
0
0
-16
-16
-16
-16
-16
0
0
0
16
16
0
-16
-16
-16
-16
-32
-32
-32
-32
-32
-16
-16
-32
-16
-16
0
16
16
16
16
0
-16
-32
-32
-32
-32
-32
-32
-32
-32
-16
-16
-16
-16
-16
0
16
16
16
16
0
-16
-32
-32
-32
-32
-16
-32
-32
-32
-32
-16
-16
-16
0
16
16
16
16
16
16
0
-16
-32
-32
-16
-16
-32
-32
-32
-32
-32
-32
-16
0
16
16
16
16
16
16
0
-16
-32
-32
-32
-32
-16
-16
-16
-16
-16
-32
-16
0
16
16
16
16
16
0
0
-16
-16
-16
-16
-16
-32
-32
-32
-16
-16
-32
-16
0
16
16
16
0
16
0
-16
-16
-16
-16
-32
-32
-32
-32
-32
-16
-16
-16
-16
-16
0
0
16
16
16
0
-16
-32
-16
-16
-32
-32
-32
-32
-32
-16
-16
-16
-16
-16
0
16
16
16
16
16
0
-16
-32
-32
-32
-32
-32
-32
-32
-32
-16
-16
-16
-16
0
0
0
16
16
16
0
-32
-32
-32
-32
-32
-32
-32
-32
-32
-16
-32
-16
0
0
16
16
16
16
0
0
-32
-32
-32
-16
-32
-32
-16
-16
-16
-32
-32
-32
-16
0
0
0
16
16
0
0
-16
-16
-16
-32
-32
-32
-32
-16
-16
-16
-32
-32
-16
16
16
16
16
16
16
0
-16
-16
-16
-32
-32
-32
-32
-16
-16
-16
-32
-32
-16
0
0
0
16
16
16
0
-16
-16
-32
-32
-32
-32
-32
-32
-32
-32
-32
-16
0
16
16
16
16
16
16
0
-16
-32
-32
-16
-32
-32
-32
-32
-32
-16
-16
-16
0
16
0
0
16
32
16
0
-32
-32
-32
-16
-16
-32
-16
-16
-32
-32
-32
-16
0
0
16
16
16
16
16
0
-16
-32
-16
-16
-16
-16
-16
-16
-16
-16
-16
-16
-16
0
16
16
16
16
16
0
-16
-16
-16
-16
-32
-32
-16
-16
-16
-16
-32
-32
-16
0
16
32
32
16
0
0
-16
-16
-16
-16
-32
-32
-32
-16
-16
-16
-32
-16
0
0
16
16
16
16
16
0
-16
-16
-16
-16
-16
-32
-32
-16
-16
-16
-16
-32
0
0
16
16
16
16
16
0
-16
-16
-16
-16
-16
-16
-32
-32
-16
-16
-16
-16
0
16
16
16
16
16
16
0
-16
-16
-16
-16
-16
-16
-16
-16
-16
-16
-16
-16
0
16
16
0
16
16
16
0
-16
-32
-16
-16
-16
-16
-16
-16
-16
-16
-16
-16
-16
0
16
16
32
16
16
0
-16
-16
-16
-16
-16
-16
-16
-16
-16
-16
-16
-16
0
16
16
16
32
32
16
0
-16
-32
-32
-16
-16
-16
-16
-16
-16
-16
-16
-16
0
0
16
32
16
16
16
16
-16
-16
-16
-16
-16
-16
-16
-16
-16
-16
-16
-16
-16
0
16
16
16
16
16
16
-16
-16
-16
-16
-16
-32
-32
-16
-32
-16
-16
-16
0
16
16
16
16
16
16
16
-16
-16
-16
-16
-16
-16
-16
-16
-16
-16
-16
-16
-16
0
16
16
16
16
16
16
0
-16
-16
-16
-16
-32
-32
-16
-16
-16
-16
-16
0
0
16
16
16
16
32
0
0
-16
-16
-16
-16
-16
-16
-32
-32
-16
-16
-16
0
16
16
16
16
16
16
16
0
-16
-16
-16
-16
-32
-16
-16
-16
-16
-16
-16
0
0
16
16
16
16
32
16
0
-16
-16
-16
-16
-16
-32
-16
-16
-16
-16
-16
-16
0
16
16
16
16
16
16
0
-16
-16
-16
-16
-16
-16
-16
-16
-16
-16
-16
-16
0
16
16
16
32
16
16
0
-16
-16
-16
-16
-16
-16
-16
-16
-16
-16
-16
-16
0
16
16
16
16
16
16
0
-16
-16
-16
-16
-16
-16
-16
-16
-16
-16
-16
-16
0
16
16
32
32
16
16
0
-16
-16
-16
-32
-16
-16
-16
-16
-16
-16
-16
-16
0
16
16
16
16
16
16
0
-16
-16
-16
-16
-16
-16
-16
-16
-16
-16
-16
-16
0
16
16
16
32
16
16
0
-16
-16
-16
-16
-16
-16
-16
-16
-16
-16
-32
-16
0
16
32
16
16
16
16
0
-16
-16
-16
-16
-16
-16
-32
-16
-16
-16
-16
-16
0
16
16
16
32
32
16
0
-16
-16
-16
-16
-16
-16
-16
-16
-16
-16
-16
-16
0
16
16
16
16
16
16
0
-16
-16
-16
-16
-16
-16
-16
-16
-16
-16
-16
-16
0
16
16
16
32
32
16
0
-16
-16
-16
-16
-16
-16
-16
-16
-16
-16
-16
-16
0
16
16
16
16
16
16
0
-16
-16
-16
-16
-16
-16
-16
-16
-16
-16
-16
-16
0
16
16
16
16
16
16
0
-16
-16
-16
-16
-32
-32
-16
-16
-16
-16
-16
-16
16
16
16
16
16
16
16
16
-16
-16
-16
-16
-16
-16
-16
-16
-16
-16
-16
-16
0
16
16
16
16
16
16
0
-16
-16
-16
-16
-32
-32
-16
-16
-16
-16
-16
-16
0
16
16
16
16
32
16
0
-16
-16
-16
-16
-16
-16
-16
-16
-16
-16
-16
-16
-16
16
16
16
16
16
16
0
-16
-16
-16
-16
-16
-16
-16
-32
-16
-16
-16
-16
0
0
16
16
32
32
32
16
-16
-16
-16
-16
-16
-16
-16
-16
-16
-16
-16
-16
0
16
16
16
16
16
16
0
-16
-16
-16
-16
-16
-16
-16
-16
-16
-16
-16
-16
0
16
16
16
32
32
16
0
-16
-16
-16
-16
-16
-16
-16
-16
-16
-16
-32
-16
0
16
16
16
16
16
16
0
-16
-16
-16
-16
-16
-16
-16
-16
-16
-16
-16
-16
0
16
16
16
16
16
16
0
-16
-16
-16
-16
-32
-16
-16
-16
-16
-16
-16
-16
0
16
16
16
16
16
16
16
-16
-16
-16
-16
-16
-16
-32
-32
-16
-16
-16
-16
0
16
16
16
16
32
16
16
0
-16
-16
-16
-32
-32
-16
-16
-16
-16
-16
-16
0
16
16
16
16
32
16
16
0
-16
-16
-16
-16
-16
-16
-16
-16
-16
-16
-16
0
0
16
16
16
32
16
0
-16
-16
-16
-16
-16
-32
-16
-16
-16
-16
-16
-16
-16
0
16
16
16
16
16
0
-16
-16
-16
-16
-16
-16
-16
-16
-16
-16
-16
-32
-16
0
16
16
16
16
16
0
-16
-32
-32
-16
-16
-16
-16
-16
-16
-16
-16
-16
-16
0
16
16
16
16
16
0
-16
-16
-16
-16
-16
-16
-16
-16
-16
-16
-16
-16
0
16
16
16
16
16
32
16
-16
-32
-16
-16
-16
-16
-16
-16
-16
-16
-16
-16
-16
0
16
16
16
16
16
16
-16
-32
-16
-16
-16
-16
-32
-32
-16
-16
-16
-16
0
0
16
16
16
16
16
0
-16
-16
-16
-16
-32
-32
-32
-16
-16
-16
-16
-16
-16
0
0
16
16
16
16
0
-16
-16
-16
-32
-32
-16
-16
-16
-16
-16
-16
-16
-16
0
16
16
16
16
16
0
0
-16
-16
-16
-32
-32
-16
-16
-16
-16
-16
-16
-16
0
16
16
16
16
16
16
0
-16
-16
-16
-16
-32
-16
-16
-16
-16
-16
-32
-16
0
16
16
16
16
16
16
0
-16
-16
-16
-16
-16
-16
-16
-16
-16
-16
-16
-16
0
16
16
16
16
16
16
0
-16
-16
-16
-16
-32
-32
-16
-16
-16
-16
-16
0
0
16
16
16
16
16
16
0
-16
-16
-16
-16
-16
-16
-16
-16
-16
-16
-16
0
0
16
16
16
16
16
16
0
-16
-16
-16
-16
-16
-16
-16
-16
-16
-16
-16
0
0
16
16
16
16
32
16
0
-16
-16
-16
-16
-16
-16
-16
-16
-16
-16
-16
-16
0
16
16
16
16
16
16
0
-16
-16
-16
-16
-16
-32
-32
-32
-16
-32
-32
-16
0
16
16
16
16
16
16
0
-32
-32
-32
-32
-32
-16
-16
-16
-16
-16
-16
-16
0
16
16
16
16
16
16
0
-16
-32
-16
-16
-16
-32
-16
-16
-16
-16
-16
-16
0
16
0
16
16
32
16
0
-16
-32
-32
-32
-32
-16
-16
-16
-16
-16
-16
-16
0
16
16
16
16
16
16
0
-16
-16
-32
-32
-16
-16
-16
-16
-16
-16
-16
-16
0
16
16
16
16
16
16
0
-16
-16
-16
-16
-16
-16
-16
-16
-16
-16
-16
-16
0
16
16
16
16
16
16
0
-16
-16
-16
-16
-16
-16
-16
-16
-16
-16
-16
-16
0
16
16
16
16
16
16
0
-16
-16
-16
-16
-16
-16
-16
-16
-16
-16
-16
-16
0
16
16
16
16
16
16
0
-16
-16
-16
-16
-32
-16
-32
-16
-16
-16
-16
-16
0
16
16
16
16
16
16
0
-16
-16
-16
-16
-16
-16
-16
-16
-16
-16
-16
-16
0
16
16
16
16
16
16
0
-16
-16
-16
-16
-32
-16
-32
-16
-16
-16
-16
-16
0
16
16
16
16
16
16
0
-16
-16
-16
-16
-32
-32
-16
-16
-16
-16
-16
-16
0
16
16
16
32
16
16
0
-16
-16
-16
-16
-16
-16
-16
-16
-32
-16
-16
-16
0
16
16
16
16
32
16
0
-16
-16
-16
-16
-32
-32
-16
-16
-16
-16
-16
-16
0
16
16
16
32
16
16
0
-16
-16
-16
-16
-16
-16
-16
-16
-16
-16
-16
-16
0
16
16
16
16
32
16
0
-16
-16
-16
-16
-32
-32
-32
-16
-16
-16
-16
-16
0
16
16
16
16
32
16
0
-16
-16
-16
-16
-16
-16
-32
-16
-16
-16
-16
-16
0
16
16
16
16
16
16
0
-16
-16
-16
-16
-32
-32
-32
-16
-16
-16
-32
-16
0
0
16
16
16
32
16
0
-16
-32
-16
-16
-16
-16
-16
-16
-16
-16
-16
-16
-16
0
16
16
32
16
16
0
-16
-16
-16
-16
-16
-16
-16
-16
-16
-16
-16
-16
0
0
16
16
16
32
16
0
-16
-32
-16
-16
-16
-16
-16
-16
-16
-16
-16
-16
0
16
16
16
16
16
16
0
-16
-16
-16
-16
-16
-16
-16
-32
-16
-16
-16
-16
0
0
16
16
16
16
16
16
-16
-32
-16
-16
-16
-16
-16
-16
-16
-16
-16
-16
0
16
16
16
16
16
16
0
-16
-16
-32
-32
-32
-16
-16
-16
-16
-16
-16
-16
-16
0
16
16
16
0
16
0
-16
-16
-16
-16
-32
-32
-16
-16
-16
-16
-16
-16
-16
0
16
16
16
16
16
0
-16
-16
-16
-16
-16
-16
-32
-32
-16
-16
-16
-32
-16
16
16
16
16
16
16
0
-16
-16
-16
-16
-16
-32
-32
-16
-16
-16
-32
-32
-16
0
16
16
32
32
16
0
-16
-16
-16
-16
-16
-16
-16
-16
-16
-16
-16
-32
-16
0
16
16
16
32
32
16
-16
-16
-16
-16
-16
-32
-32
-16
-16
-16
-16
-16
-16
0
16
16
16
32
16
16
0
-16
-16
-16
-16
-16
-16
-16
-16
-16
-16
-16
-16
0
16
16
16
16
32
16
0
-16
-32
-16
-32
-16
-16
-16
-16
-16
-16
-16
-16
0
16
16
16
32
16
16
0
-16
-16
-16
-16
-16
-16
-16
-16
-16
-16
-16
-16
0
16
16
16
16
16
16
0
-16
-16
-16
-16
-16
-16
-16
-16
-16
-16
-16
-16
0
16
16
16
16
16
16
0
-16
-16
-16
-16
-32
-32
-32
-32
-16
-16
-16
-16
0
16
16
16
16
16
16
0
-16
-16
-16
-16
-16
-16
-16
-16
-16
-16
-16
-16
0
16
16
0
16
16
16
0
-16
-16
-16
-16
-16
-16
-16
-16
-16
-16
-32
-16
0
16
16
16
16
16
16
0
-16
-16
-16
-32
-16
-16
-16
-16
-16
-16
-32
-16
0
16
16
16
16
16
0
0
-16
-16
-16
-16
-32
-32
-16
-16
-16
-16
-32
-16
0
16
16
16
16
16
16
0
-16
-16
-16
-32
-32
-16
-16
-16
-16
-16
-16
-16
0
16
16
16
16
16
0
0
-16
-16
-16
-16
-32
-32
-16
-16
-16
-16
-16
-16
0
16
16
16
32
32
16
0
-16
-16
-16
-32
-32
-16
-32
-32
-16
-16
-16
-16
0
16
16
16
16
16
16
0
-16
-32
-32
-32
-32
-32
-16
-32
-16
-16
-32
-16
0
16
16
16
32
16
16
0
-16
-16
-16
-16
-16
-16
-32
-16
-16
-16
-32
-16
0
16
16
16
16
16
16
0
-16
-16
-16
-16
-16
-16
-16
-16
-16
-16
-16
-16
0
16
16
0
16
16
16
0
-16
-16
-16
-16
-16
-16
-16
-16
-16
-16
-16
-16
0
16
16
16
16
16
0
0
-16
-16
-16
-16
-16
-16
-16
-16
-16
-16
-16
-16
0
16
16
16
16
16
16
0
-16
-16
-16
-16
-32
-32
-16
-16
-16
-16
-16
-16
-16
0
16
16
16
16
16
0
-16
-16
-16
-16
-16
-16
-16
-16
-16
-16
-32
-16
-16
0
16
16
16
32
16
0
-16
-16
-16
-16
-32
-32
-16
-16
-16
-16
-16
-16
-16
16
16
16
16
16
16
0
-16
-32
-16
-16
-16
-16
-32
-32
-16
-16
-16
-16
0
0
16
16
16
16
16
0
-16
-16
-16
-16
-32
-32
-16
-16
-16
-16
-32
-16
0
16
16
16
16
16
16
0
-16
-32
-32
-16
-16
-16
-32
-16
-16
-16
-16
-16
0
16
16
16
16
16
16
0
-16
-16
-16
-16
-16
-16
-32
-16
-16
-16
-32
-16
0
16
16
16
16
16
16
0
-16
-16
-16
-32
-32
-16
-16
-16
-16
-16
-16
-16
0
16
16
16
16
16
16
0
-16
-16
-16
-16
-32
-32
-32
-16
-16
-16
-16
-16
0
16
16
16
16
16
16
0
-16
-16
-16
-16
-16
-16
-16
-16
-16
-16
-16
-16
0
16
16
16
16
16
16
0
-16
-32
-16
-16
-16
-16
-16
-16
-16
-16
-16
-16
0
16
16
16
16
32
16
16
-16
-32
-16
-16
-16
-16
-16
-16
-16
-16
-16
-16
0
0
16
16
16
16
16
16
-16
-32
-16
-16
-16
-16
-32
-16
-16
-16
-16
-32
0
0
16
16
16
16
16
0
-16
-32
-16
-16
-32
-32
-16
-16
-16
-16
-16
-16
-16
0
16
16
16
16
16
16
-16
-16
-16
-16
-16
-16
-16
-16
-32
-16
-16
-16
0
16
16
16
16
16
16
0
0
-16
-16
-32
-32
-32
-16
-16
-16
-16
-16
-16
0
0
16
16
16
16
16
0
-16
-16
-16
-16
-16
-16
-16
-16
-16
-16
-16
-16
0
0
16
16
16
16
16
0
0
-16
-16
-16
-16
-32
-32
-16
-16
-16
-16
-32
-16
0
16
16
16
16
16
16
-16
-16
-16
-16
-16
-16
-16
-16
-16
-16
-16
-32
-16
0
16
32
16
16
16
16
0
-16
-16
-16
-16
-32
-32
-16
-16
-16
-16
-32
-16
16
16
16
16
32
16
16
-16
-16
-16
-16
-16
-16
-16
-16
-16
-16
-16
-32
-16
16
32
16
16
16
16
16
0
-16
-16
-16
-16
-16
-16
-16
-32
-16
-16
-16
-16
0
16
16
16
32
16
0
-16
-16
-16
-16
-32
-16
-16
-16
-16
-16
-16
-32
-16
0
16
16
16
16
16
0
0
-16
-32
-16
-32
-16
-16
-16
-16
-16
-16
-16
-16
0
0
0
16
32
16
16
0
-16
-16
-16
-32
-16
-32
-16
-16
-16
-16
-16
-16
0
0
16
16
16
16
16
0
-16
-16
-16
-16
-16
-16
-32
-16
-16
-16
-16
-16
0
16
16
16
32
16
16
0
-16
-16
-16
-16
-32
-32
-32
-16
-16
-16
-16
-16
0
16
16
16
16
16
0
0
-16
-16
-16
-16
-32
-16
-16
-16
-16
-16
-32
-16
0
16
16
16
32
16
16
0
-16
-16
-16
-16
-32
-32
-16
-16
-16
-16
-16
-16
0
16
16
16
16
16
16
0
-16
-16
-16
-16
-16
-16
-16
-16
-16
-32
-32
-16
0
16
16
16
16
16
16
0
-16
-16
-16
-16
-32
-16
-16
-16
-16
-16
-32
-16
0
16
16
16
16
16
16
0
-16
-16
-16
-16
-32
-16
-32
-16
-16
-16
-16
-16
0
16
16
16
16
16
16
0
-16
-16
-16
-32
-32
-16
-16
-16
-16
-16
-16
-16
0
16
16
16
32
16
16
0
-16
-16
-16
-16
-16
-16
-16
-16
-16
-16
-16
-16
0
16
16
16
16
32
16
0
-16
-16
-16
-16
-16
-16
-16
-16
-16
-16
-16
-16
0
16
16
16
32
16
16
0
-16
-16
-16
-16
-16
-16
-16
-16
-16
-16
-16
-16
0
0
16
16
16
16
16
0
-16
-16
-16
-16
-16
-16
-16
-16
-16
-16
-16
-16
0
16
16
16
16
32
16
0
-16
-16
-16
-16
-32
-32
-16
-16
-16
-16
-16
-16
0
16
32
16
16
16
16
16
-16
-16
-16
-16
-16
-16
-16
-16
-16
-16
-32
-16
0
16
16
16
16
32
16
0
-16
-16
-16
-16
-32
-32
-16
0
-16
-16
-16
-16
0
16
16
16
16
16
16
0
-16
-16
-16
-16
-16
-16
-16
-16
-16
-16
-16
-16
0
16
16
16
32
16
16
16
-16
-16
-16
-16
-16
-16
-16
-16
-16
-16
-16
-16
0
16
16
16
16
16
16
0
-16
-16
-16
-16
-16
-16
-16
-32
-32
-16
-16
-16
0
0
16
16
16
16
16
0
-16
-16
-16
-16
-16
-32
-32
-16
-16
-16
-16
-16
-16
0
16
16
16
16
16
0
0
-16
-16
-32
-32
-32
-32
-16
-16
-16
-32
-16
-16
0
16
16
16
16
16
0
-16
-32
-16
-32
-32
-32
-32
-16
-16
-16
-16
-32
-16
16
16
16
16
16
16
0
-16
-32
-16
-16
-16
-16
-32
-16
-16
-16
-16
-16
0
16
16
16
16
16
16
0
-16
-16
-16
-16
-32
-32
-32
-16
-16
-16
-16
-16
0
16
16
16
32
32
16
0
-16
-32
-16
-16
-16
-16
-16
-16
-16
-16
-16
-16
0
0
16
16
16
16
16
0
-16
-16
-16
-16
-16
-32
-32
-32
-32
-16
-16
-16
0
0
0
16
32
32
16
0
-16
-16
-16
-16
-16
-32
-32
-32
-16
-16
-16
-32
-16
0
16
16
16
16
16
0
-16
-16
-16
-16
-32
-16
-16
-16
-16
-16
-16
-16
-16
0
16
16
16
16
16
0
0
-16
-16
-16
-32
-32
-32
-16
-16
-16
-16
-32
-16
16
16
16
16
16
16
16
0
-16
-16
-16
-32
-16
-16
-16
-16
-16
-16
-16
0
0
16
16
16
16
16
16
0
-16
-16
-16
-16
-32
-16
-16
-16
-16
-16
-32
0
0
16
16
32
16
16
16
0
-16
-16
-16
-16
-16
-16
-16
-16
-16
-16
-32
-16
0
16
32
16
16
16
0
0
-16
-16
-16
-32
-32
-32
-16
0
-16
-16
-16
-16
0
16
16
16
32
32
16
-16
-32
-32
-16
-32
-16
-16
-16
-16
-16
-16
-16
-16
0
16
32
16
16
16
0
0
-16
-16
-16
-16
-32
-32
-16
-16
-16
-16
-16
-16
0
16
16
16
32
16
0
0
-16
-16
-16
-16
-16
-16
-32
-32
-16
-16
-16
0
0
16
16
16
16
16
16
0
-16
-16
-16
-16
-16
-16
-16
-32
-16
-16
-16
-16
0
16
16
16
16
16
16
0
-16
-16
-16
-32
-16
-16
-16
-16
-16
-16
-32
-16
0
16
16
16
16
16
16
0
-16
-16
-16
-16
-16
-32
-32
-16
-16
-16
-32
-16
0
16
16
16
16
16
16
0
-16
-16
-16
-16
-32
-32
-16
-16
-16
-16
-16
-16
0
16
16
16
16
16
0
0
-16
-16
-16
-16
-32
-32
-32
-16
-16
-16
-32
-16
-16
0
16
16
32
16
16
0
-16
-16
-16
-32
-32
-32
-16
-16
-16
-16
-16
-16
0
16
16
16
16
16
16
0
-16
-32
-16
-32
-16
-16
-16
-32
-16
-16
-32
-16
0
16
16
16
16
16
16
0
-16
-32
-32
-32
-32
-32
-16
-16
-16
-16
-16
-16
0
16
16
16
16
32
16
0
-16
-32
-16
-16
-16
-16
-32
-32
-16
-16
-16
-16
0
16
32
16
16
16
16
0
-16
-32
-16
-16
-32
-32
-16
-16
-16
-16
-16
-16
0
16
16
16
32
16
16
0
-16
-32
-16
-16
-16
-16
-32
-16
-16
-16
-32
-16
0
16
16
16
16
16
16
0
-16
-16
-16
-16
-16
-32
-16
-16
-16
-16
-16
-16
0
16
16
16
16
16
16
0
-16
-16
-16
-16
-16
-16
-16
-16
-16
-16
-16
-16
0
16
16
16
16
16
16
0
-16
-16
-16
-16
-16
-16
-32
-16
-16
-16
-16
-16
0
0
16
16
16
16
16
16
-16
-16
-16
-32
-16
-16
-16
-16
-16
-16
-16
-16
0
16
16
16
16
16
16
0
-16
-32
-16
-16
-16
-16
-32
-16
-16
-32
-32
-16
0
16
16
16
16
16
16
0
-16
-16
-16
-16
-32
-32
-16
-16
-32
-16
-16
-16
0
16
16
16
16
16
16
0
-16
-16
-16
-16
-32
-16
-32
-16
-16
-16
-16
-16
-16
0
16
16
16
16
16
0
-16
-16
-16
-16
-32
-32
-16
-16
-16
-16
-16
-16
0
16
16
16
16
16
16
0
-16
-16
-32
-32
-32
-16
-32
-16
-16
-16
-16
-16
0
0
16
16
16
16
16
0
-16
-16
-16
-16
-32
-32
-32
-16
-16
-16
-16
-32
0
0
16
16
16
16
16
0
-16
-16
-16
-16
-16
-16
-32
-32
-32
-16
-16
-16
0
0
16
16
16
16
16
0
-16
-16
-16
-16
-16
-32
-32
-16
-16
-16
-16
-32
-16
0
16
16
16
16
16
0
-16
-16
-16
-16
-16
-16
-16
-16
-16
-16
-16
-16
-16
0
16
16
16
16
16
0
-16
-16
-16
-16
-16
-32
-32
-16
-16
-16
-16
-16
0
16
16
16
16
16
16
16
-16
-16
-16
-16
-16
-16
-16
-16
-16
-16
-16
-16
0
0
16
16
16
16
16
0
-16
-16
-16
-16
-16
-16
-16
-16
-16
-16
-16
-16
0
0
16
16
16
32
32
16
0
-16
-16
-16
-16
-16
-16
-16
-16
-16
-16
-32
-16
0
16
16
16
16
16
0
-16
-32
-16
-16
-32
-32
-32
-32
-32
-16
-32
-32
-16
0
16
16
16
32
16
0
-16
-16
-16
-16
-32
-32
-16
-16
-16
-16
-16
-16
-16
0
16
16
16
16
16
0
-16
-16
-16
-16
-16
-16
-32
-32
-32
-16
-16
-16
-16
0
16
16
16
32
16
16
0
-32
-32
-16
-16
-32
-32
-16
-16
-16
-16
-16
0
0
16
16
16
16
32
16
0
-16
-16
-16
-16
-16
-16
-16
-16
-16
-16
-16
0
0
16
16
16
16
16
16
0
-32
-32
-16
-16
-32
-16
-16
-16
-16
-16
-16
0
0
16
16
16
16
16
16
0
-16
-16
-16
-16
-16
-16
-16
-16
-16
-16
-16
0
0
16
16
16
16
16
16
0
-16
-32
-32
-32
-32
-32
-16
-16
-16
-16
-16
-16
0
16
16
16
32
16
16
0
-16
-16
-16
-32
-32
-32
-32
-16
-16
-16
-32
-16
0
16
16
16
16
16
16
0
-16
-32
-16
-32
-32
-32
-16
-16
-16
-16
-32
-16
0
16
0
16
32
16
16
0
-16
-32
-16
-16
-16
-16
-16
-16
-16
-16
-32
-16
0
16
16
16
16
32
16
0
-16
-16
-16
-16
-16
-16
-32
-16
-16
-32
-32
-16
0
16
16
16
16
16
16
0
-16
-16
-16
-16
-16
-16
-32
-32
-16
-16
-16
-16
0
16
16
16
16
16
16
0
-16
-32
-16
-16
-32
-32
-32
-32
-16
-16
-16
-16
0
16
16
16
16
32
16
0
-16
-16
-16
-32
-32
-32
-16
-16
-16
-16
-32
-16
0
16
16
16
16
16
16
0
-16
-16
-16
-16
-32
-32
-32
-16
-16
-16
-16
-16
0
16
16
0
16
16
16
0
-16
-16
-16
-32
-32
-32
-16
-16
-16
-16
-16
-16
0
16
16
16
16
16
16
0
-16
-16
-16
-16
-16
-16
-32
-32
-16
-16
-16
-16
0
16
16
16
16
16
16
0
-16
-16
-16
-16
-32
-32
-32
-16
-16
-16
-16
-16
0
16
16
16
16
16
16
0
-16
-16
-16
-16
-16
-16
-16
-16
-16
-16
-16
-16
-16
16
16
16
16
16
16
0
-16
-16
-16
-16
-16
-32
-16
-16
-16
-16
-32
-32
-16
16
16
16
16
16
16
16
-16
-16
-16
-16
-32
-16
-32
-16
-16
-16
-32
-16
0
16
16
16
16
16
16
0
-16
-16
-16
-16
-32
-32
-32
-16
-16
-16
-32
-16
0
16
16
16
16
16
16
0
-16
-16
-16
-16
-16
-16
-32
-32
-32
-16
-16
-16
0
16
16
16
16
16
16
0
-16
-16
-16
-16
-16
-16
-16
-32
-32
-32
-16
-16
0
16
16
16
32
32
16
0
-16
-32
-16
-16
-16
-16
-32
-16
-32
-16
-16
-16
-16
0
16
16
16
16
16
0
-16
-32
-16
-16
-16
-16
-16
-16
-16
-16
-32
-32
-16
0
16
16
32
32
16
0
-16
-32
-16
-16
-32
-32
-32
-16
-16
-16
-32
-32
-16
0
16
16
16
16
16
0
-16
-16
-32
-32
-32
-16
-32
-16
-16
-16
-32
-32
-16
0
16
16
16
16
16
0
-16
-16
-16
-32
-32
-32
-32
-16
-16
-16
-16
-16
0
16
16
16
16
16
16
0
-16
-16
-32
-16
-32
-16
-32
-16
-16
-16
-16
-16
-16
0
16
16
16
16
16
16
0
-16
-16
-16
-32
-32
-32
-16
-16
-16
-16
-16
-16
0
16
16
16
16
16
16
0
-16
-16
-16
-16
-16
-32
-16
-16
-16
-16
-16
-16
0
16
16
16
16
16
16
0
-16
-16
-16
-16
-32
-32
-16
-16
-16
-16
-16
0
0
16
16
16
32
16
16
-16
-16
-16
-16
-16
-16
-16
-16
-16
-16
-16
-16
0
16
16
16
16
32
32
0
-16
-16
-16
-16
-16
-16
-16
-16
-16
-16
-16
-16
0
16
16
16
16
32
32
16
-16
-16
-16
-16
-16
-16
-16
-16
-16
-16
-16
-16
0
0
16
16
16
16
16
16
0
-16
-16
-16
-16
-16
-16
-16
-16
-16
-16
-32
-16
0
16
16
16
16
16
16
0
-16
-16
-16
-16
-16
-16
-16
-16
-16
-16
-32
-16
0
16
16
0
0
16
16
0
-16
-16
-16
-32
-16
-16
-16
-16
-16
-16
-16
-16
0
16
16
16
16
16
0
0
-16
-32
-16
-32
-32
-32
-16
-16
-16
-16
-32
-16
0
16
16
16
16
16
16
-16
-32
-32
-32
-32
-32
-32
-32
-32
-16
-16
-16
-16
0
16
16
16
32
16
16
0
-16
-32
-16
-32
-32
-32
-32
-16
-16
-16
-32
-16
0
16
16
16
16
32
16
0
-16
-16
-16
-16
-16
-16
-32
-32
-16
-16
-32
-16
0
16
16
16
16
16
0
0
-16
-16
-16
-16
-32
-16
-16
-16
-16
-16
-16
-16
0
16
16
16
16
16
16
0
-16
-16
-16
-16
-16
-16
-16
-16
-16
-16
-32
-16
0
16
16
16
16
16
0
0
-16
-16
-16
-16
-32
-32
-16
-16
-16
-32
-32
-16
0
16
16
16
16
16
16
0
-16
-16
-16
-32
-32
-32
-32
-32
-16
-16
-16
-16
0
16
16
32
32
32
16
0
-16
-32
-16
-16
-32
-32
-16
-16
-16
-16
-32
-16
0
0
0
16
32
16
16
0
-16
-16
-16
-16
-32
-32
-32
-16
-16
-16
-16
-16
0
16
16
16
16
16
16
0
-16
-32
-16
-16
-16
-32
-32
-16
-16
-16
-32
-16
0
16
16
16
16
16
16
0
-16
-16
-16
-16
-16
-16
-16
-16
-16
-16
-32
-16
0
16
16
16
16
16
16
0
-16
-16
-16
-16
-16
-16
-16
-32
-32
-16
-16
-16
0
16
16
16
16
16
16
0
-32
-16
-16
-16
-16
-16
-16
-16
-16
-16
-16
-16
0
16
16
16
16
16
16
0
-16
-16
-16
-16
-32
-16
-32
-16
-16
-16
-16
-16
0
16
16
16
16
32
16
0
-16
-16
-16
-16
-16
-32
-32
-16
-16
-16
-16
-16
0
16
16
16
16
16
16
0
-16
-16
-16
-16
-16
-16
-32
-16
-16
-16
-16
-16
0
16
16
16
16
16
16
16
-16
-16
-16
-16
-16
-32
-16
-16
-16
-16
-16
-16
0
16
16
16
32
16
16
0
-16
-16
-16
-16
-16
-16
-16
-16
-16
-16
-32
-16
0
16
16
16
16
16
16
0
-16
-16
-16
-32
-32
-32
-16
-16
-16
-16
-16
-16
0
16
16
16
16
16
16
0
-16
-16
-16
-16
-32
-16
-16
-16
-16
-16
-16
-32
-16
0
16
16
16
16
16
0
-16
-16
-32
-32
-32
-32
-32
-16
-16
-16
-16
-16
-16
0
0
16
16
32
16
0
-16
-16
-16
-16
-32
-16
-16
-16
-16
-16
-16
-32
-16
0
16
16
16
16
16
16
-16
-16
-16
-16
-16
-16
-32
-16
-16
-16
-16
-16
0
16
16
16
16
16
16
0
-16
-16
-16
-16
-32
-16
-16
-16
-32
-16
-16
-16
0
16
16
32
32
16
16
0
-16
-16
-16
-16
-16
-16
-16
-16
-16
-16
-16
-32
-16
0
16
16
16
32
16
16
-16
-16
-16
-16
-16
-32
-16
-16
-16
-16
-16
-16
0
16
16
32
16
16
16
0
-16
-32
-16
-16
-16
-16
-16
-16
-16
-16
-16
-16
0
0
16
16
16
16
16
16
-16
-16
-16
-16
-16
-32
-16
-16
-16
-16
-16
-16
0
16
16
16
16
16
16
16
0
-16
-32
-16
-32
-32
-32
-32
-16
-16
-16
-16
0
0
16
16
16
16
16
0
0
-16
-16
-16
-32
-32
-16
-16
-16
-16
-16
-16
-16
0
16
16
16
16
16
16
0
-16
-16
-16
-32
-16
-16
-32
-16
-16
-16
-32
-16
0
16
16
16
16
16
16
0
-16
-16
-16
-16
-32
-32
-16
-16
-16
-16
-32
-16
0
16
16
16
32
16
16
-16
-16
-16
-16
-16
-16
-32
-32
-16
-16
-16
-16
-16
0
16
16
16
16
16
16
-16
-32
-32
-16
-16
-32
-32
-32
-32
-16
-16
-16
-16
0
16
16
16
32
32
16
-16
-32
-32
-16
-32
-16
-16
-16
-16
-16
-16
-16
-16
0
16
16
16
16
32
16
0
-16
-16
-16
-16
-16
-32
-32
-32
-16
-16
-16
-16
0
16
16
16
16
16
16
0
-16
-16
-16
-32
-16
-16
-16
-16
-16
-16
-32
-16
0
16
16
16
16
16
16
0
-16
-32
-16
-32
-16
-16
-16
-16
-16
-16
-32
-16
0
16
16
16
16
16
16
0
-16
-16
-16
-32
-32
-16
-16
-16
-16
-16
-32
-16
0
16
16
16
16
16
16
0
-16
-16
-16
-32
-16
-16
-16
-16
-16
-16
-32
-16
0
16
16
16
16
32
16
-16
-32
-32
-16
-16
-32
-32
-16
-16
-16
-16
-32
-16
0
16
16
16
16
16
16
0
-16
-16
-16
-16
-16
-32
-32
-32
-16
-16
-16
-16
0
16
16
16
16
16
16
0
-16
-32
-16
-16
-32
-32
-16
-16
-16
-16
-32
-16
0
16
16
16
16
16
0
0
-16
-32
-32
-16
-16
-16
-16
-16
-16
-16
-32
-16
0
16
16
16
16
16
16
0
-16
-16
-16
-16
-32
-32
-16
-16
-16
-16
-16
-16
0
16
16
16
16
16
16
0
-16
-16
-16
-32
-16
-16
-16
-16
-16
-16
-16
-16
0
16
16
16
32
16
16
0
-16
-16
-16
-16
-32
-32
-32
-32
-16
-16
-16
-16
0
0
16
16
32
32
16
0
-16
-16
-16
-32
-32
-32
-32
-16
-16
-16
-32
-16
0
16
16
16
16
32
16
0
-16
-16
-16
-16
-32
-32
-32
-16
-16
-16
-32
-16
0
16
16
16
16
16
16
0
-16
-16
-16
-16
-16
-16
-16
-16
-16
-16
-32
-16
0
16
16
16
16
16
16
0
-16
-16
-16
-16
-16
-16
-16
-16
-16
-16
-16
-16
0
16
16
16
16
16
16
0
-16
-16
-16
-16
-16
-16
-16
-16
-16
-16
-16
-32
-16
16
16
16
16
16
16
0
-16
-16
-16
-16
-32
-32
-32
-16
-16
-16
-16
-16
0
16
16
16
16
16
16
0
-16
-16
-16
-16
-32
-32
-32
-16
-16
-16
-16
-16
0
0
16
16
16
32
16
16
-16
-32
-32
-16
-32
-32
-32
-16
-16
-16
-32
-16
-16
0
16
16
16
16
16
0
-16
-16
-16
-16
-32
-32
-32
-16
-32
-16
-32
-32
0
16
16
16
16
16
16
16
-16
-32
-16
-16
-16
-16
-16
-16
-16
-16
-32
-32
-16
0
16
32
16
16
32
16
-16
-16
-16
-16
-16
-32
-16
-16
-16
-16
-16
-16
-16
16
16
16
32
16
0
0
-16
-16
-16
-16
-16
-16
-16
-16
-16
-16
-16
-32
0
16
16
16
16
16
16
0
-16
-16
-16
-16
-16
-32
-32
-16
-16
-16
-16
-16
-16
0
16
16
16
32
16
0
-16
-16
-16
-16
-16
-16
-32
-16
-16
-16
-16
-16
0
16
16
16
16
16
16
0
-16
-16
-16
-16
-32
-16
-16
-16
-32
-16
-16
-16
0
0
16
16
16
16
16
16
-16
-32
-32
-16
-16
-16
-32
-32
-16
-16
-16
-16
-16
0
16
16
16
16
16
16
-16
-16
-16
-16
-16
-16
-16
-16
-32
-16
-16
-16
-16
0
16
16
16
16
16
0
-16
-32
-32
-16
-32
-32
-32
-16
-16
-16
-16
-32
-16
0
16
32
16
16
16
16
-16
-16
-16
-16
-16
-16
-32
-16
-16
-16
-16
-32
-16
0
16
16
16
16
16
16
0
-16
-16
-32
-32
-32
-16
-16
-16
-16
-16
-16
-16
0
16
16
32
32
16
16
0
-16
-32
-32
-32
-16
-16
-16
-16
-16
-16
-16
-16
0
0
16
16
16
16
0
0
-16
-16
-16
-16
-32
-16
-16
-16
-16
-16
-16
-16
0
16
16
16
16
16
16
0
-32
-32
-16
-16
-16
-16
-16
-16
-16
-16
-16
-16
0
16
16
16
16
16
16
0
-16
-16
0
-16
-32
-32
-16
-16
-16
-16
-32
-16
0
16
16
16
16
32
16
0
-16
-16
-16
-32
-16
-32
-32
-16
-16
-16
-32
-16
0
16
16
16
16
16
0
0
-16
-16
-16
-16
-32
-32
-16
-16
-16
-16
-16
-16
0
16
16
16
32
32
16
0
-16
-16
-16
-32
-16
-16
-16
-16
-16
-16
-16
-16
0
16
16
16
16
16
16
0
-16
-32
-32
-32
-16
-16
-16
-32
-16
-16
-32
-16
0
16
16
16
16
32
16
0
-16
-32
-16
-32
-16
-16
-16
-16
-16
-16
-32
-16
0
16
16
16
16
32
16
0
-16
-16
-16
-16
-16
-16
-32
-32
-16
-16
-16
-16
0
16
16
16
16
16
16
0
-16
-16
-16
-16
-32
-32
-16
-16
-16
-16
-16
-16
0
16
16
16
16
32
16
0
-16
-16
-16
-16
-16
-32
-32
-16
-16
-16
-16
-16
0
0
16
16
32
16
16
0
-16
-16
-16
-16
-32
-32
-32
-16
-16
-16
-16
-16
0
16
16
16
16
32
16
0
-16
-16
-16
-16
-32
-16
-32
-16
-32
-16
-32
-16
0
16
16
16
16
16
16
0
-16
-16
-16
-16
-32
-32
-32
-16
-16
-16
-32
-16
0
16
16
16
16
16
16
0
-16
-16
-16
-32
-32
-32
-32
-32
-16
-16
-32
-16
0
16
16
16
16
16
16
0
-16
-16
-16
-16
-32
-32
-32
-16
-16
-16
-32
-16
0
16
16
16
32
16
16
0
-16
-32
-16
-32
-32
-16
-32
-32
-32
-16
-16
-16
0
16
16
16
16
32
16
0
-16
-32
-16
-16
-32
-32
-32
-16
-16
-16
-32
-32
-16
0
16
16
32
32
16
0
-16
-32
-32
-32
-16
-16
-16
-16
-16
-16
-32
-16
0
0
16
16
16
16
16
0
-16
-32
-16
-16
-16
-16
-32
-16
-16
-16
-32
-32
0
16
16
16
16
16
16
0
-16
-32
-16
-16
-16
-32
-32
-16
-16
-16
-16
-32
-16
16
16
16
16
16
16
16
-16
-32
-16
-16
-16
-32
-32
-32
-16
-16
-16
-16
-16
0
16
16
16
32
16
16
-16
-16
-16
-16
-32
-32
-32
-16
-16
-16
-16
-32
0
16
16
16
16
16
16
16
-16
-16
-16
-16
-16
-16
-16
-32
-32
-16
-16
-16
-16
0
16
16
16
32
16
0
-16
-16
-16
-16
-32
-32
-16
-16
-16
-16
-16
-16
0
16
32
16
0
0
0
0
-16
-16
-16
-16
-16
-16
-16
-32
-16
-16
-32
-32
0
16
16
32
32
32
32
16
0
-16
-32
-16
-32
-32
-16
-16
-16
-16
-16
-32
-16
0
0
16
16
32
48
32
16
0
16
16
0
0
0
-16
-16
-32
-32
-16
0
0
0
0
16
16
16
0
-16
-16
0
-16
-48
-32
-16
0
-16
-16
-32
-32
-16
16
16
16
32
64
48
48
48
32
32
32
0
0
-16
-32
-48
-48
-48
-32
-32
-32
-16
-16
-16
-16
-16
-32
-48
-48
-48
-48
-48
-32
-32
-16
-16
-16
0
-16
-16
16
32
16
16
16
16
16
0
-16
-32
-32
-16
-32
-48
-64
-64
-48
-32
-32
-16
0
16
48
32
32
32
16
-32
-64
-80
-80
-64
-48
-32
-16
0
32
32
16
32
32
64
48
32
0
0
0
-32
-64
-80
-80
-80
-48
-16
16
32
16
16
16
16
16
32
48
32
32
48
16
0
-16
-16
-32
-48
-48
-48
-32
-32
-32
-48
-48
-32
-16
0
16
32
32
32
0
-32
-48
-48
-48
-48
-48
-48
-32
-32
-32
-32
-48
-32
-16
-16
-32
0
0
0
0
0
16
32
32
16
-16
-48
-48
-64
-64
-64
-64
-48
-16
-16
0
16
32
32
32
32
16
32
48
32
16
16
0
-32
-48
-64
-48
-16
0
32
16
-16
0
16
16
16
-16
-32
-16
-16
-16
-16
-16
16
32
32
16
16
16
32
48
64
80
64
32
-16
-48
-64
-64
-48
-48
-48
-32
-16
-16
0
0
16
16
32
32
32
16
16
16
16
-16
-16
-16
0
16
0
-16
0
16
32
0
-16
0
16
32
48
48
16
-16
-32
-48
-32
-16
0
0
-16
-16
-16
-16
16
32
32
32
32
16
16
16
16
32
48
48
48
64
48
16
16
0
-16
-32
-16
0
16
48
48
32
32
32
32
16
-16
-48
-32
0
16
32
48
64
64
48
32
16
16
16
0
-16
0
16
16
16
0
0
0
-16
-48
-16
-16
0
16
16
0
-16
-16
0
16
16
16
16
32
32
16
0
16
0
-16
0
32
32
48
32
-16
-32
-32
-16
0
16
16
32
32
32
32
48
48
16
0
-32
-48
-48
-32
-16
-32
-48
-32
0
64
80
64
48
48
32
48
16
0
-16
-48
-64
0
32
48
80
48
-32
-48
-16
32
32
16
16
16
-16
-32
0
0
0
-16
-48
-64
-48
-32
-16
-16
0
32
48
80
80
64
0
-16
-16
-16
0
16
32
32
0
-16
-32
-16
32
64
32
16
48
16
-32
-64
-64
-16
32
32
0
16
32
48
32
16
32
32
-32
-48
-32
16
32
16
16
16
16
32
32
0
16
48
80
112
80
-32
-80
-80
-64
0
16
16
16
16
16
32
64
112
96
96
0
-80
-96
-32
80
128
144
96
-48
-80
-64
-48
-48
-48
-64
-16
64
112
80
48
-32
-64
-80
-80
-16
48
64
96
64
16
0
-16
-96
-96
-48
64
128
80
16
0
-80
-128
-144
-112
-64
-16
16
16
16
32
48
0
16
80
64
64
64
0
-32
-16
-64
-96
-16
32
80
144
128
112
160
112
-48
-128
-96
16
80
96
96
80
160
112
-64
-144
-48
-80
-192
-288
-240
-144
-16
80
144
128
96
144
224
256
272
160
32
-32
-80
-112
-160
-160
-80
-32
0
16
32
80
48
-96
-208
-48
160
144
32
-64
-80
-80
-16
32
16
-64
-144
-160
-160
-112
-80
-32
80
240
272
176
160
0
-128
-96
-64
-32
-16
-16
16
32
32
0
-80
-192
-208
-160
-160
-112
0
16
0
-96
-160
-16
64
0
-16
112
192
240
224
64
-176
-240
-192
-176
-192
-16
160
80
-48
-96
-128
-48
0
96
240
336
368
192
-64
-176
-64
0
32
-64
-96
-48
0
64
0
-16
0
48
64
80
16
-96
-192
-112
32
96
96
112
128
160
112
-48
-176
-160
-160
-224
-128
-144
-128
-48
0
32
0
-64
-112
0
176
208
224
208
144
-32
-192
-144
-48
16
96
48
32
128
128
-112
-272
-304
-112
0
-16
-16
-48
32
80
48
16
-64
-80
-80
-80
-48
32
0
-16
-32
-144
-144
-16
208
352
368
0
-400
-352
-192
-64
-48
-48
16
64
128
160
128
128
80
0
-80
-144
-64
-48
-80
-160
-128
-64
48
288
464
368
128
-256
-304
-96
-64
-80
-80
64
176
-32
-256
-192
-96
-128
-112
-64
16
160
272
272
240
-32
-192
-128
-80
-112
16
192
240
256
0
-320
-432
-240
-16
16
48
176
192
16
-80
16
48
64
48
64
16
128
368
304
-144
-528
-512
-256
-32
0
-16
-80
-208
-160
64
272
304
64
-96
-112
-96
-48
0
144
208
144
96
16
48
-48
-112
-112
-240
-208
-240
32
320
160
-16
-144
-176
-224
-208
-112
160
352
400
368
112
-256
-384
-288
-208
-48
80
96
112
16
-48
0
-80
-176
-144
-128
32
288
288
192
16
-128
-96
-80
-144
-64
96
96
32
144
80
-48
-96
-224
-400
-368
-144
64
64
48
80
112
144
96
48
-48
-64
16
-16
0
0
16
48
80
192
224
112
-48
-224
-288
-224
-16
16
48
160
144
16
-144
-112
48
144
144
16
-224
-208
-128
-80
-64
-64
-192
-144
128
272
176
160
96
-192
-176
16
16
-16
-80
-64
32
48
112
112
16
0
0
-160
-256
-288
-176
32
192
160
32
32
-64
-96
32
48
80
0
-128
-128
-112
-64
32
80
96
80
32
-112
-176
-96
80
192
112
-96
-176
-32
128
-80
-240
-208
-128
0
192
256
224
48
-96
-64
-64
176
368
64
-208
-224
-160
-112
64
32
-80
-112
-80
-144
-192
64
208
224
208
96
-176
-112
-32
-160
-112
80
288
400
192
-240
-384
-208
-64
-16
-80
-64
-48
-80
-160
-16
192
272
208
-16
48
192
128
-32
-144
-144
-80
-80
-144
-176
-128
-80
-128
-144
-112
112
432
464
-32
-480
-144
160
288
272
144
80
-32
-16
-96
-64
144
-32
-288
-272
-304
-288
-64
0
0
128
272
256
-48
-240
-80
160
112
-112
-96
-80
16
48
64
0
-48
-160
-128
-112
-112
32
32
-16
-176
-176
48
240
192
64
32
176
272
288
304
32
-256
-416
-448
-384
-224
128
96
0
-48
-96
16
224
272
144
208
0
-288
-192
16
128
96
-160
-352
-272
-48
176
80
144
224
96
-272
-256
-16
-32
-48
64
80
160
192
-112
-192
-96
16
80
160
144
16
-112
-32
-32
-128
-48
48
64
112
64
-96
-304
-368
-64
224
400
336
128
224
288
32
-208
-240
-144
-112
-80
0
-80
-288
-240
-128
-176
-192
-64
80
160
128
80
336
432
240
-16
-304
-368
-176
-160
-224
-176
-192
-64
112
112
32
16
-32
64
144
96
64
160
224
96
-208
-80
160
-48
-224
-144
-128
-192
-192
-112
-64
32
-16
-64
16
192
112
16
0
-96
-16
64
48
-64
32
144
128
48
-128
-96
96
48
-64
-240
-160
80
-16
-128
-144
-112
80
128
128
32
-48
-16
32
32
-96
-160
-64
32
224
352
352
32
-496
-448
-224
-144
96
336
320
176
48
-80
16
0
-112
-272
-144
64
176
192
-48
-176
-176
-208
-256
-64
48
-64
-80
112
160
16
-176
-80
48
16
-48
-64
-48
16
64
96
192
128
80
80
48
48
0
-32
-144
-288
-192
-144
-48
-32
-128
-128
-128
-64
-64
64
464
480
288
0
-32
-160
-432
-304
16
256
304
288
192
-160
-304
-320
-288
-240
-144
48
240
192
144
64
-96
-144
0
128
48
-144
-112
-96
-32
112
112
0
-16
-16
48
32
-112
-144
-48
144
160
0
-208
-224
-144
96
240
272
304
192
32
-64
-64
-208
-288
-208
-336
-352
-208
64
0
-64
160
352
272
144
-32
0
224
336
112
-208
-304
-256
-144
-128
-240
-288
-192
80
176
160
176
224
128
-64
-288
-240
-80
160
176
128
-32
-240
-160
-64
32
80
48
48
16
-16
-48
-32
16
80
-32
-112
-96
-224
-256
-64
16
128
192
80
-32
-80
128
96
-48
-96
-80
16
48
0
32
-192
-336
-64
224
288
112
-32
16
32
96
96
48
64
16
-176
-288
-256
-192
-64
-48
-112
-112
-32
80
176
304
320
192
80
0
32
48
48
-96
-128
-224
-352
-208
-16
80
16
48
96
-16
-144
32
304
288
80
-208
-112
16
112
32
-128
-176
-240
-224
-208
-144
-32
16
64
64
48
80
160
192
272
192
16
-224
-256
-16
192
208
-48
-224
-256
-160
-16
64
-112
-256
-192
-48
144
16
0
-48
-48
32
-16
-64
0
96
80
16
-64
80
160
48
0
0
-80
-176
-208
-160
-128
128
144
48
-64
80
176
80
32
16
-48
-96
-64
-160
-160
-64
-64
-128
-208
-224
-128
96
160
144
160
144
112
16
64
64
64
0
-80
-128
-192
-112
-16
16
-32
-96
-224
-96
48
48
80
224
224
96
-272
-416
16
112
64
-64
0
96
16
-80
-192
-128
64
32
-128
-192
-96
-64
-48
0
64
112
112
16
-80
-32
-112
-112
-48
0
16
64
112
16
-80
-64
-48
-128
-112
112
272
240
-32
-208
-144
-80
-32
16
0
-80
-144
-80
64
80
128
112
-96
-256
-320
-176
144
272
0
-128
-48
16
0
-96
-112
-16
272
336
192
-64
-16
80
64
-48
-160
-160
-48
0
-16
-112
-224
-272
-192
-48
48
80
112
48
-64
0
144
144
-16
48
96
-144
-288
-320
-160
80
144
144
176
128
64
-80
-64
32
48
48
-16
-112
-16
112
0
-272
-384
-272
16
208
128
-80
-128
64
96
-48
-80
-176
-192
-32
32
16
96
192
304
256
80
-208
-320
-240
-144
-16
64
-16
-80
-144
-176
-96
48
128
-32
-160
-64
-16
16
112
128
16
-64
16
64
112
128
-48
-112
-16
48
48
96
48
-112
-224
-144
-128
-64
16
-48
-64
-64
-32
0
48
16
-144
-128
96
224
160
16
-64
0
32
-112
-224
-144
-32
0
16
48
-32
128
272
64
-304
-272
0
0
0
-64
-80
0
48
-80
-160
-176
-128
96
304
320
176
-16
-64
-112
-256
-224
-48
-64
-112
-144
-64
128
192
160
240
224
0
-128
-112
-96
-160
-192
-160
-64
64
32
-192
-256
-240
-160
-48
80
256
288
160
32
-176
-112
-16
0
0
-160
-192
0
192
144
-96
-224
-240
-64
112
144
144
144
0
-112
-160
-208
-112
-64
-48
-176
-208
-64
256
304
176
192
144
80
-64
-112
-64
0
-80
-96
32
96
48
-208
-288
-160
-112
-64
160
256
112
16
80
64
-192
-224
32
128
32
16
128
128
-48
-224
-176
-16
-32
-176
-208
-112
-32
0
64
32
-80
-128
-128
-64
112
336
432
256
-240
-384
-192
-16
0
-48
-112
-112
-112
-144
0
96
32
-128
-16
160
128
0
0
-112
-240
-48
96
64
64
48
-64
-32
-64
-208
-272
-160
80
208
208
16
-96
-144
-160
-224
-208
16
112
48
32
112
160
176
160
32
-96
-176
208
256
0
-272
-288
-400
-336
-64
320
272
0
-112
-128
-64
32
96
192
144
-16
-64
80
96
-80
-144
-192
-320
-336
-160
96
64
32
80
32
32
16
-160
-144
64
112
-80
-112
-64
-48
0
64
96
48
16
176
224
192
-96
-368
-320
-208
-320
-256
-80
64
144
64
-16
-64
32
112
112
0
64
192
256
304
224
-16
-272
-448
-432
-368
-240
-48
32
-128
-80
96
208
112
160
208
80
-64
96
304
176
-160
-272
-208
-160
-208
-272
-160
-48
-80
-64
32
48
96
80
32
96
144
64
-80
-112
-32
-32
-48
48
32
-32
-64
48
96
192
128
-192
-272
-96
-16
-48
-128
-192
-128
144
304
208
112
32
-128
-160
-112
0
48
16
-48
-128
-80
-96
-208
-240
-80
-16
-192
-192
64
288
304
160
16
16
-48
-16
48
0
-80
-128
-80
-80
-144
-112
-64
-32
-96
-96
0
80
144
64
0
96
224
224
80
-48
-176
-192
-112
-112
-144
-128
-144
-112
-80
-80
-64
48
256
368
144
-176
-48
-16
-144
-256
-176
128
240
112
-16
-48
-128
-160
-128
-112
-96
-128
-80
112
208
80
16
-144
-128
-48
0
48
64
64
80
32
-48
-144
-128
-32
112
0
-240
-128
0
0
16
-16
-16
16
64
128
112
96
160
144
16
-80
-80
-48
-48
-128
-288
-208
16
176
112
160
256
128
-80
-128
-80
0
-48
-128
-96
-96
-160
-144
-16
16
-64
-192
-32
224
32
32
80
-32
-48
-64
-96
-32
0
16
32
96
64
16
16
128
256
144
-96
-176
-128
-128
-96
-48
-32
-64
-48
-48
-112
-160
-80
0
0
16
48
176
272
96
-192
-240
-160
-224
-160
-80
176
240
80
-96
-128
16
112
224
176
32
-80
0
-48
-192
-320
-288
-128
-112
-128
16
144
96
80
48
80
80
48
0
-48
16
-48
-160
-192
0
272
240
64
32
-96
-176
-48
64
80
16
-32
-32
-16
-16
0
96
128
-32
-368
-496
-208
32
176
368
352
80
-160
-160
-80
64
224
320
304
-80
-416
-432
-288
-192
-144
0
128
64
-64
-48
0
16
-48
0
80
112
96
144
144
-16
-176
-272
-112
16
0
-80
-96
-112
-64
-16
80
112
48
-16
-64
-32
-32
-16
80
176
176
-32
-160
-144
-128
-80
-112
-160
-128
-128
-16
240
400
400
224
-96
-352
-368
-240
-64
80
64
-128
-224
16
160
208
208
208
128
32
0
-112
-64
-80
-112
-208
-272
-288
-128
64
192
192
96
64
64
208
352
96
-208
-224
-80
-64
-16
-32
-48
-48
-96
-128
-208
-208
-48
-16
-64
16
48
16
16
144
160
64
-32
-80
-16
0
-96
80
112
16
-32
-80
-144
-160
-96
16
96
64
32
0
16
-48
-112
-96
-96
16
80
64
-112
-160
-48
48
48
80
96
16
-112
-272
-336
-192
64
224
192
320
432
448
128
-256
-464
-288
-144
-16
16
-16
0
32
96
16
-64
-128
-128
-64
16
64
-80
-48
176
144
-16
-160
-160
-32
48
112
96
-16
-96
-144
-144
-224
-96
160
240
192
32
32
144
32
32
64
-80
-64
16
-64
-48
0
-16
-112
-176
-112
-32
-80
-64
0
-16
-32
0
128
224
80
0
-112
-112
-80
-64
16
32
16
-32
32
48
0
96
32
-112
-112
-48
128
320
192
-48
-144
0
144
288
384
208
-80
-336
0
320
224
112
-240
-224
0
0
-64
-16
112
224
64
-80
48
-32
-160
-176
-16
112
96
-96
-208
-144
-32
32
-64
-32
144
240
192
176
-16
-208
-96
-96
-144
0
176
224
96
-112
-144
-208
-192
-176
-176
16
80
96
192
288
80
-128
-192
-224
-192
-48
96
32
-176
-272
-160
-96
192
352
64
-80
16
16
-48
-160
-112
-48
-96
-96
-48
32
48
64
-64
-224
-96
-64
-32
48
32
-16
-80
-64
64
112
16
-160
-144
-16
32
32
-64
-144
-64
128
176
96
-32
-16
80
96
16
-112
-160
-128
64
112
64
128
64
48
-32
-80
-96
64
48
-32
-128
-32
144
192
0
-208
-128
144
288
144
-32
-80
-272
-336
-160
0
32
80
16
16
32
-16
144
224
96
-192
-256
-64
144
240
80
-128
-192
-176
-48
0
32
64
48
160
144
-96
-160
16
144
-64
-320
-256
-16
176
128
-32
-16
-64
-64
0
80
192
240
256
160
0
-176
-112
-80
-96
-112
-128
-112
32
112
16
0
-208
-240
-64
80
112
80
80
-16
-80
-144
-176
-96
-16
-16
-64
-128
-32
32
16
64
96
48
16
0
16
-16
-48
-32
64
48
-96
-128
0
160
144
160
144
96
64
-32
80
80
0
-96
-272
-192
-96
-16
16
48
16
0
16
32
-48
-144
-80
-64
-112
-96
32
80
32
-16
-64
-80
-96
32
80
80
160
256
192
-32
-128
-224
-224
-96
-16
80
144
64
-48
-96
-16
80
32
-32
32
160
160
112
80
0
-192
-368
-256
-160
-32
128
128
96
32
-64
80
224
160
64
128
0
-32
-128
-240
-192
-144
-112
-96
16
176
208
-48
-96
-112
-80
32
-16
-96
-80
48
96
-48
-160
-96
48
192
336
192
80
32
96
-32
-208
-144
-16
32
64
64
-48
-240
-240
-192
-176
-96
0
112
192
96
32
-48
-80
-64
-48
48
272
256
16
-144
16
80
-96
-208
-160
-64
64
176
144
-48
-48
16
16
0
-192
-176
-96
-64
-80
-32
-48
-64
16
64
64
112
64
48
-16
-32
-112
-176
-240
-64
80
80
-32
-112
-80
-16
112
224
144
48
112
96
16
-96
-176
-64
64
208
128
80
64
-16
-288
-448
-256
-16
0
64
176
128
32
96
48
0
-64
-48
-64
-64
-32
-64
32
96
-48
-160
-96
0
64
80
128
160
128
16
-80
-256
-160
32
48
32
32
64
32
-128
-160
-48
32
16
16
16
16
-16
-32
-16
32
80
32
-160
-160
-144
-64
-16
48
16
64
240
224
128
-32
-112
-96
-80
-96
-144
-176
-128
0
0
-96
-112
-80
-16
32
-64
32
144
0
-64
96
176
176
160
112
16
-48
-96
-96
-112
-160
-160
-160
-96
112
224
176
0
-96
-16
-32
-64
32
112
112
0
-192
-160
-96
0
16
48
80
128
192
144
-96
-144
-32
-48
-48
-32
48
64
48
-80
-96
-144
-96
16
48
0
-64
-128
-112
-32
-16
0
80
96
-96
-96
32
64
32
-96
-96
16
64
80
48
-48
0
144
128
80
-16
-112
-160
-128
-128
-144
-128
-144
-128
-64
16
144
208
160
48
-48
-48
-96
-208
-208
-48
32
-16
-48
-16
64
32
-64
-16
128
160
112
96
-16
-144
-160
-128
-96
-64
16
144
96
-80
-64
80
96
48
48
64
-16
-176
-128
-80
-48
32
32
-80
-128
-112
16
80
64
96
-48
176
208
-16
-80
-128
-64
0
-80
-128
-80
32
32
-112
-208
-176
-112
-32
64
128
96
48
-16
-16
32
48
64
16
16
-112
-208
-32
32
-48
-96
-96
-32
32
96
176
128
96
-32
0
144
-48
-176
-224
-96
-64
-80
-96
-64
-48
-64
-96
-176
-176
-48
80
160
32
16
112
32
-32
16
-16
-32
-32
-96
-160
-96
-16
-32
-32
-32
-64
-64
-32
80
32
-32
32
80
64
32
0
-32
-32
-32
-80
-32
48
32
48
80
-32
-304
-288
-64
64
144
64
-112
-96
-16
16
-32
-64
-48
-64
-32
96
192
192
32
-192
-256
-224
-112
-48
0
16
-64
64
304
416
304
0
-256
-192
-112
-64
-32
-16
-48
-48
0
-16
-112
-144
-128
-128
-48
64
112
128
32
-112
-128
-48
16
48
48
-32
-96
-64
-32
-32
-16
16
48
64
48
16
16
-32
-112
-80
-16
-48
-96
-160
-176
-144
-48
64
176
144
32
48
0
-48
0
-16
-144
-208
-144
32
208
176
192
96
0
-160
-160
0
-48
-96
-32
0
-32
-32
32
0
-144
-256
-208
16
144
64
0
32
96
144
48
-80
0
48
-32
-96
-64
-48
-32
-32
-48
-80
80
176
64
-64
-32
-80
-80
0
16
-16
-16
-48
-96
-128
-80
-16
80
32
-32
0
64
96
0
-16
-96
-96
-112
-48
48
16
-64
-96
-16
64
144
96
16
-32
16
80
48
-16
-16
-32
0
0
-240
-368
-128
-32
16
64
144
240
288
80
-112
-64
-80
-144
-192
-160
16
144
112
48
16
0
80
16
-208
-176
16
112
112
128
80
-64
-160
-128
-208
-224
-96
32
-160
-96
16
64
112
80
64
32
-32
-48
-32
-32
-64
-32
16
112
160
-16
-96
-48
-144
-112
16
96
128
-16
0
32
0
-48
-64
-64
-64
64
16
-80
-144
-224
-160
-32
64
64
64
80
48
0
-16
-16
-32
-32
16
112
160
96
-144
-272
-144
-16
-176
-112
48
224
304
224
48
-96
-80
64
32
-128
-256
-208
-112
-176
-192
-16
224
256
80
-32
0
-32
-16
48
80
112
80
-48
-160
-176
-128
-64
-64
-96
-96
-96
-32
64
80
32
16
-16
48
112
128
176
64
-160
-192
-48
-64
-80
-96
-160
-80
32
32
16
32
48
32
64
80
16
0
64
-32
-16
160
256
112
-208
-384
-256
-80
16
-48
-160
-48
64
48
48
-16
-32
0
48
16
-16
16
-16
-16
32
144
256
224
16
-288
-272
-96
-16
16
48
16
-64
-64
-112
-144
80
240
32
-64
-112
-16
96
128
128
48
-64
-48
-16
-32
-64
-128
-64
-32
-64
32
96
0
-224
-208
0
112
144
176
192
80
0
0
-96
-112
-112
-112
-96
-48
-16
16
-48
-80
-48
48
128
32
-80
-64
-48
0
64
64
48
32
48
48
0
-32
-64
-48
16
48
128
96
-32
-128
-240
-272
-176
0
112
144
112
160
144
96
0
-144
-128
-48
-16
-64
16
64
64
-16
-64
-160
-240
-128
64
80
160
192
80
-16
0
32
32
0
-16
-16
32
96
64
32
-64
-128
-128
-64
32
64
48
0
-16
0
64
16
-16
32
32
-16
-112
-176
-144
-32
32
48
48
-16
-64
-16
-32
-64
-64
16
128
240
208
64
-96
-160
-112
-32
96
144
112
-16
-32
-80
-112
-112
-64
-144
-112
32
80
32
-48
-32
16
80
64
16
-96
-128
-80
-32
-80
-80
-32
16
0
-64
-32
96
144
128
48
-112
-112
0
80
-16
-128
-80
-80
-80
-48
-48
-80
-48
144
208
112
-32
-32
0
-48
-112
-80
0
0
-64
-128
-80
-16
80
48
0
0
16
-32
64
224
272
112
-128
-192
-256
-176
-64
-32
-48
-96
-48
0
48
112
16
-112
-32
32
128
128
48
0
-16
32
0
-64
-96
-160
-160
-32
48
80
96
64
-16
0
96
128
112
-32
-96
-16
-48
-112
-64
-48
-128
-160
-64
32
16
16
-48
-64
-16
16
-48
-96
-96
-32
64
160
160
48
48
32
-32
-32
16
16
-80
-112
-80
-48
0
32
64
160
112
-32
-160
-112
144
176
80
-112
-240
-112
-32
16
16
-16
-96
-160
-16
64
-32
-80
-80
-16
80
48
32
48
48
0
-32
0
16
48
96
256
352
224
-32
-352
-320
-112
-80
-48
-16
-80
-48
48
48
0
0
16
0
-16
-32
-32
-48
-48
16
80
64
-32
-144
-160
-48
-16
-48
16
48
80
80
-32
-32
-48
-48
-16
64
112
16
-48
-64
-112
-48
-32
16
48
48
112
176
176
128
-64
-128
-176
-208
-240
-224
-96
48
224
160
16
-48
-16
16
48
80
48
16
80
144
80
-112
-176
-128
-192
-192
-160
-48
112
112
80
128
80
16
48
176
160
0
-48
0
96
112
128
96
-80
-176
-128
-176
-176
-128
-16
32
48
16
-16
-64
-96
-32
64
32
32
48
96
96
-16
-32
-80
-112
-96
-16
96
112
64
-32
-48
-80
-112
-160
-112
-48
-16
80
128
64
16
32
48
-16
-96
-64
-16
16
32
16
0
-32
-48
16
32
-32
-80
-48
-48
-96
16
64
64
80
48
-32
-32
-16
64
48
-48
-80
-64
-64
-80
-64
-80
-128
-144
-80
64
112
128
240
304
224
80
-144
-144
-96
-48
0
-32
-48
-32
0
32
16
-96
-96
-32
-48
-32
-16
0
0
-48
0
64
80
16
0
48
48
0
-96
-96
-48
-16
16
16
-16
-32
-32
0
96
176
176
80
-48
-144
-112
-16
32
80
32
-64
-64
-48
-48
-32
16
-16
-112
-128
-80
16
160
160
96
0
0
16
-32
-96
-80
-48
-32
64
96
64
-80
-144
-128
-96
-48
-16
64
80
128
112
64
0
-112
-96
-32
16
0
-16
0
0
16
0
16
80
48
-64
-80
-64
48
176
160
16
-128
-128
32
96
48
48
80
0
-32
-32
-64
-112
-96
-96
-112
-48
128
304
208
96
16
-80
-96
-80
-96
-128
-80
-32
32
80
80
-32
-48
48
48
32
-16
-16
-16
-32
32
64
32
48
-32
-112
-96
-32
64
80
-48
-112
-64
16
80
64
16
0
-32
0
80
48
-16
16
64
-16
-112
-112
-96
-64
48
144
128
48
-16
-80
-64
-32
-80
-96
-16
0
-32
-32
-32
-16
-32
-32
-64
-80
-32
64
48
-48
-32
16
80
112
96
64
-48
-48
-48
-48
80
48
-48
-32
16
48
48
16
-32
-112
-48
64
112
48
-80
-112
-48
-48
0
32
-32
-32
0
16
16
-80
-80
-96
-80
-32
16
48
-16
-64
-16
0
-64
-16
32
48
48
32
16
16
48
64
-32
-112
-64
96
192
208
32
-160
-112
-48
32
32
80
112
80
80
112
16
-112
-160
-96
-32
-16
16
0
-16
-32
-32
-16
-32
0
-64
-96
-96
-128
-32
32
16
-16
-16
-16
16
80
160
128
32
-16
0
48
64
16
-48
-96
-144
-96
-16
16
16
32
128
160
80
0
-32
-64
-48
48
96
64
64
0
-96
-176
-176
-96
-32
-48
-16
64
128
128
16
-32
-16
0
-80
-128
0
80
112
96
64
0
0
16
-16
-16
-64
-128
-80
-64
-32
48
64
80
32
16
48
32
16
48
48
16
16
0
32
48
64
112
112
16
-48
-160
-160
-160
-64
32
48
-16
-16
32
96
96
-16
-128
-112
0
48
-32
-128
-112
-16
48
48
0
-48
16
16
16
0
0
32
32
-32
-80
-48
-32
32
96
64
16
32
16
-32
-112
-96
48
96
80
64
0
32
64
-80
-176
-96
-64
0
48
48
16
-96
-64
-32
16
-16
0
80
160
112
-32
-16
64
64
0
-160
-192
-144
-160
-112
-48
32
112
80
96
32
-16
64
128
96
32
-112
-80
32
32
-32
-80
-112
-80
-32
-32
-48
0
16
112
176
144
96
-16
-160
-144
-16
96
160
64
-112
-144
-112
-64
-64
-128
-96
16
64
128
144
96
48
0
0
-32
-96
-64
16
16
-16
-48
-48
-64
-96
-128
-80
0
32
32
64
80
64
-32
-64
-48
-48
-48
32
96
128
80
32
32
64
16
-48
-48
0
32
48
-16
-96
-128
0
0
-48
-112
-96
16
16
16
16
-16
-48
-32
-32
-32
32
80
128
128
64
0
-48
-144
-176
-176
-144
-32
48
48
-16
0
80
208
224
144
48
64
128
32
-160
-176
-160
-96
-32
-48
-48
0
-16
-16
-64
-64
-80
-48
0
64
112
64
-16
-32
16
96
112
128
128
16
-192
-240
-144
-48
-32
-48
-48
-16
-16
-32
-32
-16
16
48
128
144
96
96
16
0
-64
-80
80
128
80
-16
-64
-112
-192
-128
-32
-32
-112
-128
16
144
208
176
96
80
-16
-144
-80
0
-32
-80
-112
-112
-80
-80
-16
64
96
160
128
16
-112
-128
-80
-32
32
48
64
16
16
32
-32
-32
-32
-16
0
-48
0
-32
-96
-16
-16
-96
-112
-16
80
96
16
-32
-16
16
16
-32
-16
0
48
0
-48
0
32
48
32
-32
-48
-96
0
80
-32
-128
-64
-16
0
64
112
80
0
-112
-128
-80
-16
48
96
64
64
32
32
16
-144
-128
-48
-32
0
0
-32
-64
-80
-48
-32
48
96
80
64
48
-16
-32
-16
0
0
-16
-48
-80
-64
-16
32
48
32
64
-16
-32
0
0
64
112
48
-16
-32
0
16
-16
-80
-80
-64
-32
-16
-48
-128
-48
64
80
16
0
16
48
-32
-80
-144
-80
0
32
0
32
16
-32
-32
-64
-64
32
64
80
64
48
64
32
-16
0
-144
-160
-16
32
16
16
-48
-48
0
48
16
-16
-48
-64
-48
-16
0
0
0
0
0
-48
-16
112
128
48
-32
-112
-96
-16
48
-16
-80
-80
-48
-16
-16
-32
-32
0
64
64
48
48
32
-32
16
80
64
48
32
0
-16
-48
-48
-64
-80
-64
-80
-64
64
80
-80
-96
-32
0
80
96
64
0
-64
-80
-32
-32
-64
-32
-16
0
-32
-32
80
80
-32
-96
-64
-16
0
32
-32
-96
-48
64
112
96
48
16
16
-16
-16
-16
-64
-48
-48
-128
-160
-48
48
64
32
-32
-80
-48
0
0
0
80
128
112
96
16
-32
-80
-32
0
-16
-32
-64
-128
-160
-128
-16
0
-16
96
112
48
-16
0
64
112
112
32
0
-16
-96
-128
-112
-96
-16
16
16
0
-16
32
64
64
16
16
-32
-80
-64
16
80
160
208
96
16
-192
-240
-64
80
48
-96
-112
32
48
-96
-80
-32
0
16
-16
-32
-32
-32
-32
-48
-32
-32
-16
0
32
96
48
16
32
32
-32
-112
-80
-32
32
64
-32
0
112
144
80
-32
-64
-96
-64
16
-16
-48
0
16
-16
-64
-144
-128
-80
-32
-48
-96
-80
0
112
64
-48
-64
16
128
80
-48
0
112
64
-48
-64
-80
-64
-48
-64
-80
-112
-64
48
64
0
32
80
64
-32
-80
-64
48
128
128
96
0
-32
-128
-128
-32
-16
-16
0
-64
-96
0
80
96
48
-48
-112
-96
-16
80
80
16
-16
-80
-80
-80
-64
-32
0
16
32
16
-32
0
16
0
0
-16
-32
32
64
16
-48
0
48
112
96
-48
-112
-80
-32
16
-32
-16
112
144
16
-160
-192
-96
-96
-96
-96
-48
-16
-64
-48
-16
16
48
-32
-32
-32
64
64
16
0
-16
-48
-96
-80
-64
-64
-80
-64
-48
-80
-64
0
64
32
0
16
0
0
0
32
48
32
32
16
0
16
-64
-192
-160
-32
32
32
32
32
0
16
-16
-16
-48
-144
-96
96
128
16
-16
16
-48
-112
-112
-80
-48
-32
48
128
48
-48
-144
-112
-64
16
64
16
16
0
16
48
128
128
64
-48
-144
-160
-48
48
0
-32
-32
16
96
0
-48
-64
-96
-80
-64
-48
16
80
32
-64
-80
-80
-96
-96
-32
48
96
64
96
112
96
32
-48
-128
-112
-64
0
16
-64
-112
-112
-128
-128
-112
0
192
304
224
96
80
64
-32
-96
-112
-48
0
-80
-112
-96
-48
-64
-80
-160
-176
-96
0
64
112
128
192
208
112
-32
-160
-176
-80
-64
-96
-80
-16
0
-32
-64
-32
16
32
-16
-128
-144
16
64
16
32
0
48
80
80
16
32
64
-48
-64
-96
-96
-112
-128
-96
0
32
0
-32
-64
-32
32
32
-32
-80
-16
48
64
80
32
16
-32
-64
-96
-96
-64
-16
-32
-16
48
96
96
64
-48
-48
48
112
160
192
128
-144
-272
-192
-64
32
80
48
-32
-32
16
0
-32
-32
-80
-112
-64
-16
32
32
16
80
16
-80
-48
-16
-32
16
64
112
112
32
-16
-32
-16
-32
-80
-128
-176
-112
32
176
272
240
128
-16
-96
-128
-48
80
112
48
-48
-176
-160
-80
-160
-208
-176
-160
-64
144
256
176
48
64
128
128
-48
-176
-144
-48
32
0
0
-48
-112
-128
-144
-112
-48
64
128
96
-32
-80
-32
-16
16
0
-16
-32
-64
-80
-16
80
128
128
0
-64
-64
-80
-80
-80
-96
-32
112
208
160
-16
-64
16
64
48
16
48
176
144
16
-32
-128
-176
-176
-160
-128
-80
-32
32
80
48
-64
-128
-112
-32
32
80
144
160
160
128
96
-112
-240
-144
-32
0
-16
-16
64
96
16
16
-16
-48
-64
-32
0
0
32
48
-16
-112
-160
-80
32
64
80
48
32
128
240
160
48
0
-48
-80
-144
-80
32
32
32
-16
-48
-32
-48
-48
-48
-48
-32
16
16
-16
-16
64
48
16
-32
-128
-160
-160
-112
0
64
96
112
48
-32
0
64
48
64
48
32
-32
-32
-32
-64
-96
-64
80
192
192
0
-128
16
176
112
-128
-224
-160
-160
-160
-96
-32
16
16
-16
-64
-64
-48
16
64
32
-48
0
64
48
32
32
64
80
144
96
-96
-128
-128
-32
16
-48
-64
-32
-32
-80
-80
32
48
-64
-96
-32
16
0
-48
-64
-32
16
48
48
32
-16
-32
0
-96
-144
-96
-64
-32
-48
-64
64
176
160
112
112
-64
-160
-64
32
32
32
64
80
64
-16
-144
-192
-176
-112
-128
-48
96
80
-32
-96
0
96
144
144
32
-64
-64
-48
-64
-96
-128
-96
-80
-32
-64
-96
-32
0
16
16
0
0
-16
16
80
160
192
160
96
96
144
112
-80
-208
-240
-176
-80
-64
-48
-48
-16
-16
-64
0
112
192
160
-80
-176
-48
0
-16
-16
-16
-32
-64
-64
-64
-32
-64
0
32
-48
32
176
128
64
-32
-48
32
96
96
48
-112
-112
-64
-64
-48
-32
-32
-16
16
48
48
16
0
64
16
-80
-112
-144
-128
-16
176
288
144
-32
-128
-96
-48
-96
-64
-16
-16
-64
-64
32
112
32
-64
-128
-112
-80
0
32
16
-32
-48
-32
16
32
80
112
-16
-160
-176
-64
112
176
48
-80
-96
-48
16
0
16
64
80
96
96
-16
-64
-144
-144
-64
48
16
-96
-32
0
-16
-48
-64
-80
-80
16
80
96
48
64
80
32
64
-32
-96
-96
-144
-64
96
96
-32
-64
-64
-80
-80
-64
0
64
32
16
80
96
80
96
64
0
-96
-16
176
144
96
32
-128
-176
-80
-64
-128
-96
-32
-16
-16
-96
-112
-32
48
112
96
64
-64
-32
32
0
-32
0
-16
-32
-80
-112
-96
-32
-16
0
64
224
288
224
80
-48
-96
-64
-64
-112
-96
-64
-96
-128
-128
-96
-32
32
32
-32
-80
-64
64
80
48
-80
-160
-112
-64
-32
80
96
16
0
-16
-32
-16
0
-16
0
64
80
-32
-128
-128
-32
-32
-48
-80
0
144
160
64
-48
-32
32
-32
-80
-64
32
112
0
-96
-112
-80
-16
32
16
32
80
32
-48
-32
0
16
16
16
-32
0
64
0
-80
-112
-160
-64
80
64
16
-16
64
48
0
-16
-16
-16
-16
-48
-80
-96
-16
80
144
176
128
32
48
80
48
-64
-160
-144
-112
-48
64
64
0
0
-80
-176
-160
-112
-64
32
80
80
48
16
32
-16
-48
-48
-32
0
-16
-16
32
64
64
-16
-144
-128
-48
-16
64
112
80
32
64
0
-32
0
-48
-112
-80
-64
-48
0
-16
-16
0
32
-64
-160
-48
112
80
-48
-96
16
144
176
176
112
-32
-112
-80
-64
16
0
-64
-80
-80
-112
-96
16
48
32
0
-16
-16
32
96
64
-16
-64
-96
-16
16
0
48
64
64
64
96
16
-32
-32
-32
-16
-80
-96
32
80
32
-48
-112
-96
-64
-96
-80
0
96
128
48
-80
-80
16
64
32
-48
-96
0
64
64
16
-112
-48
32
0
-96
-96
-16
80
16
-80
-64
32
64
80
48
0
-96
-128
-80
-48
16
32
48
-16
-112
-64
32
32
0
32
80
112
64
-16
-32
-32
-112
-112
-64
-16
16
-32
0
112
128
96
16
-48
-96
-32
96
64
-32
-80
-48
32
32
0
-64
-96
16
0
-48
0
32
0
-32
-16
48
64
32
64
48
16
48
64
48
16
-16
16
-48
-128
-176
-32
144
176
64
-112
-48
176
240
224
48
-160
-192
-128
-128
-32
80
96
-16
-160
-176
-80
16
0
0
0
0
0
-16
16
48
80
48
-64
-96
48
192
240
96
-80
-176
-176
-176
-112
-32
16
48
96
128
112
64
16
-48
-48
-64
-128
-96
0
64
32
32
-16
-64
-32
16
96
96
64
32
-64
-16
-16
-96
-96
-16
-48
-80
-48
16
32
48
0
-64
-48
0
112
112
16
0
-32
-48
32
32
64
128
32
-144
-208
-80
48
96
32
16
48
32
16
32
48
32
64
32
-16
-64
0
48
0
-96
-112
-32
16
32
16
48
16
16
0
-80
-192
-80
0
16
32
16
-64
-80
-16
0
0
32
80
128
96
-16
-112
-64
-16
16
-16
-16
16
32
48
32
-32
-96
-80
-64
-32
-16
16
0
0
-32
-48
-16
32
48
48
32
16
0
-48
-80
-32
-48
-128
-80
64
80
128
112
48
-32
-80
-80
-32
64
128
48
32
80
32
-48
-48
16
32
-48
-160
-208
-128
-48
-48
0
96
144
160
16
-48
-48
-48
-80
-80
-80
-16
16
0
16
64
48
-80
-128
-96
-16
48
48
16
-48
-48
-32
-48
-32
0
16
0
0
32
16
-32
-48
-80
-32
-16
0
16
16
16
-16
-16
48
48
16
80
208
192
80
80
-16
-112
-128
-176
-160
-112
-80
-48
-64
-48
-16
32
48
16
-32
-32
0
0
0
48
112
128
80
64
-16
-96
-80
-80
-128
-96
48
112
48
16
16
16
48
32
-16
0
0
-48
-32
16
0
-16
-32
-16
16
0
0
48
64
32
-48
-128
-192
-160
-128
-96
16
80
32
0
16
96
48
-48
-48
-48
0
0
-32
-16
-16
-48
-96
-128
-96
-96
0
80
96
32
48
144
112
-16
-64
-32
0
-32
-48
-32
16
16
-16
16
48
0
-64
-144
-144
-64
0
-16
-48
-48
0
32
16
0
16
48
48
32
16
48
128
112
16
-96
-80
-32
-16
16
48
64
0
-48
-112
-80
-16
-32
-16
16
-16
-32
-16
-16
-16
0
32
0
-80
-160
-112
16
96
80
16
0
64
48
32
-48
-32
-32
-80
-112
-80
16
80
64
-48
-144
-112
-16
32
32
32
16
32
48
32
16
-16
-48
-80
-64
-16
64
64
0
-64
-32
48
80
64
32
32
32
-16
-16
16
-16
-48
-64
-128
-144
-32
80
32
-80
-64
-48
-144
-144
-32
64
128
48
32
80
144
112
16
-48
-128
-80
-48
-64
-32
32
96
64
16
96
128
16
-48
-16
16
-16
-64
-48
-48
-80
-80
-80
-48
-48
-80
-96
-16
16
-48
-80
-32
16
32
32
48
48
32
48
32
-16
-48
-48
-80
-80
-80
0
16
0
16
16
0
16
48
80
48
0
32
48
32
-32
48
48
-48
-96
-112
-64
-16
48
96
0
-48
-48
-48
-16
0
0
32
48
48
16
0
-32
-64
-96
-112
-80
-80
-48
-32
-64
-64
0
64
80
48
64
64
32
16
0
-16
-32
-32
-16
-16
0
-16
-48
-48
-32
0
32
32
16
16
16
-48
-48
-16
64
32
-48
-80
-64
-16
16
0
-48
-80
-64
0
96
176
160
64
-64
-128
-64
-48
-48
-48
-48
16
32
48
96
128
48
-16
32
80
32
0
16
64
80
-64
-112
-96
-96
-64
-48
-48
-48
-64
-32
-16
-16
-16
-16
16
48
80
80
80
0
-48
0
-64
-80
-32
0
-32
-64
-64
-48
-16
0
0
-32
-48
-48
-16
32
48
48
32
0
-32
-16
64
112
16
-64
-80
-96
-112
-32
48
32
-80
-96
-48
-48
-32
32
144
112
48
32
16
16
-16
-32
-16
-32
-64
-64
-80
-128
-128
-64
16
16
-48
0
112
96
64
64
96
112
64
32
16
64
112
0
-192
-192
-80
-48
-64
-80
-48
32
80
32
80
112
96
0
-96
-64
-16
-80
-112
-112
-128
-80
48
48
0
-16
16
80
96
80
0
-80
-96
-80
16
64
16
-32
-80
-80
-64
-64
16
64
64
64
48
32
48
32
16
0
16
-16
-48
-128
-96
-112
-128
-48
80
80
64
64
16
0
-16
-32
-16
0
-16
-48
-80
-64
0
-16
-48
0
48
64
48
32
16
16
48
32
16
32
-16
-64
-64
-64
-64
-16
16
48
0
16
32
-16
32
32
-16
-32
-32
0
16
32
32
32
80
16
-144
-144
-96
-48
-48
-16
16
-16
-32
0
16
-16
0
0
0
16
0
32
48
16
-48
-96
-80
0
48
16
-32
-16
48
32
16
32
32
64
144
128
96
48
-48
-160
-64
48
80
-48
-96
-96
-64
16
32
-32
-64
-64
-16
96
144
80
-16
-96
-80
-16
64
-16
-96
-64
-32
-48
-64
-32
-16
-16
0
32
64
16
16
16
0
-48
-96
-80
16
32
16
16
0
0
32
48
0
-64
-32
-16
0
16
0
16
48
0
-32
16
0
-80
-80
-16
0
-32
-32
-48
-64
-48
0
80
112
16
-80
-32
112
160
112
32
-48
-64
-64
-48
0
48
-16
-48
-48
-64
-32
0
32
0
16
48
96
96
80
96
64
-48
-112
-80
-64
-64
-48
-32
-32
-32
-32
0
32
64
80
64
32
16
0
-16
-32
-16
0
-16
-32
-32
-32
-32
-16
0
-16
-32
-16
0
16
-16
-48
-32
-16
-64
-48
0
64
64
48
48
48
48
0
-80
-64
-32
-32
0
0
-16
-32
-48
-96
-80
-32
64
176
224
176
16
-80
-96
-80
-48
-32
-16
-16
-32
-32
-16
16
64
16
-64
-48
16
32
-32
0
0
0
48
64
32
0
0
32
80
96
96
32
-96
-128
-112
-96
-48
-80
-48
-48
-112
-96
-32
48
112
112
80
0
-48
0
32
16
-32
0
16
0
-64
-160
-176
-144
-80
-16
32
96
128
112
96
80
32
-64
-80
16
16
32
-64
-128
-80
-80
-96
-96
-16
80
64
32
16
0
0
32
32
-32
-64
-48
16
48
0
-48
-16
48
48
16
16
-32
-96
-96
-80
-48
32
144
176
112
0
-32
32
0
-32
-16
-32
0
0
16
48
80
0
-128
-176
-144
-80
0
48
32
48
96
144
128
80
48
16
-48
-112
-96
-48
-16
-64
-96
-144
-112
0
48
64
48
0
-32
-64
-32
48
80
32
0
0
0
0
-16
-16
0
-16
-48
-64
-80
-80
-48
48
144
192
192
128
16
-112
-176
-144
-112
-64
-16
16
80
64
32
-16
-96
-144
-112
-48
16
32
16
0
-32
-48
0
16
0
-16
-80
-48
32
48
0
-16
0
0
32
32
-16
-32
-48
-80
-80
-16
32
64
32
16
16
32
64
48
32
-16
-16
16
64
0
-48
-80
-64
-48
0
64
112
96
16
-32
-96
-144
-144
-96
-32
16
80
128
112
48
-16
-80
-144
-128
-48
32
16
-16
0
0
16
32
0
-16
-80
-96
-48
32
64
80
80
80
48
-32
-96
-64
-16
-32
-48
-80
-32
-16
-48
0
16
64
80
32
-32
-16
16
80
80
80
32
-64
-64
-80
-144
-128
-48
-32
-64
-48
-32
32
48
32
16
32
32
-16
0
16
-16
-80
-64
-32
-32
-32
0
16
0
0
0
32
64
80
80
16
-80
-128
-48
-48
16
96
80
32
16
-16
-16
-80
-128
-96
-16
32
16
16
0
0
16
0
32
80
48
48
-112
-176
-48
0
-16
0
48
64
16
-96
-160
-112
-32
0
32
64
32
-64
-48
48
-32
-80
0
32
16
0
0
-16
-32
-32
-32
-64
-64
-32
32
80
16
-32
-32
-32
-32
-16
-32
-16
-16
0
32
0
-16
-32
-32
0
32
48
32
0
-80
-96
-64
-80
16
96
48
32
32
32
32
16
0
-16
32
80
96
112
96
-64
-160
-160
-96
-64
16
64
0
-32
-16
0
-32
-32
32
80
112
144
144
80
-32
-128
-144
-112
-112
-96
-16
16
0
-32
-48
-16
0
0
0
0
16
48
32
48
96
96
80
48
16
-16
-80
-112
-144
-128
-96
-64
-48
-32
-16
16
-16
-48
-32
-32
-32
48
96
80
16
-32
-64
-80
-64
-32
-48
-16
-32
-96
-112
-16
48
32
-32
-112
-64
96
160
128
48
-48
-48
-16
0
32
32
16
16
-48
-96
-96
-80
-96
-64
0
64
128
144
96
0
-48
-32
0
0
-16
16
16
-16
-32
-32
-32
16
80
32
-48
-112
-80
16
32
-16
-48
-32
-16
-16
16
32
16
-32
-32
-48
-64
-32
-16
-16
32
96
96
32
-16
-48
0
32
16
-16
-64
-96
-96
-16
32
48
32
-16
16
48
96
112
0
-112
-96
-32
32
-16
-112
-96
-64
-80
-80
-48
-32
-32
16
32
32
16
0
48
64
0
-16
48
160
192
64
-112
-80
-112
-128
-48
0
16
48
-32
-96
-16
16
-16
-32
-16
-32
-32
-16
-16
-32
-16
16
0
0
-16
0
48
80
112
64
-16
-64
-96
-48
32
16
-48
-64
-64
-32
16
0
-16
-16
-48
-32
16
16
-16
-32
-16
32
64
32
48
32
-96
-160
-144
-48
16
48
96
96
80
32
-32
-32
-32
-16
-32
-32
-16
-16
-16
-32
-48
-48
-16
0
16
0
0
32
48
32
32
64
16
-96
-128
-32
0
32
-16
-32
-32
-64
-80
-48
0
48
80
48
48
48
0
-64
-80
-80
-80
-48
0
64
48
16
48
32
16
-16
0
0
-32
-64
-64
-32
32
32
16
-16
16
32
0
0
16
-48
-96
-48
16
16
32
48
32
0
-32
-48
-32
-16
32
16
-64
-96
-48
0
32
32
16
0
-16
-48
-32
16
32
16
0
-32
-48
-48
-48
-64
-32
32
48
16
0
-16
-48
-32
0
32
48
0
0
48
128
176
80
-80
-144
-96
-96
-96
-64
-16
-48
-16
0
0
32
48
48
48
80
96
48
-48
-64
-64
-32
-64
-112
-64
-48
-32
-48
-16
0
-16
0
32
32
0
-32
0
64
64
-16
-32
16
64
16
-80
-80
0
0
-16
-48
-48
-32
-16
0
16
16
16
-16
-16
32
112
112
48
-32
-48
-32
-32
-48
-96
-80
-48
-32
-16
-16
0
-16
-48
-64
-32
-32
48
64
32
0
0
16
32
32
32
48
48
48
16
-48
-80
-64
-64
-48
0
-16
-48
-48
-16
64
96
32
-32
-80
-80
0
48
64
16
16
48
16
16
-32
-64
-64
-48
-16
16
48
-16
-112
-128
-32
48
96
96
96
32
-32
-32
-16
0
16
-16
-16
-32
-80
-64
-16
-16
0
-32
0
64
16
-96
-48
32
64
80
32
0
0
32
16
-32
-80
-48
48
96
80
0
-80
-80
-96
-96
-80
-48
-48
-16
16
16
32
16
0
-32
-16
0
16
48
48
48
16
-32
-80
-112
-80
0
32
32
16
0
0
0
-32
-80
-80
-64
-48
0
16
-16
-16
16
32
48
16
16
64
80
80
64
96
0
-144
-160
-48
64
48
-16
-112
-112
-96
-80
-16
32
32
48
64
80
112
144
80
48
0
-16
-48
-112
-176
-176
-112
-64
16
64
48
0
-32
-16
32
48
64
80
48
16
16
32
64
32
-80
-144
-80
-32
-32
-16
-32
0
48
0
-80
-80
0
64
48
48
96
48
-32
-112
-128
-48
32
64
32
-48
-64
-48
0
32
48
16
-80
-64
0
-16
-64
-48
16
16
-16
16
80
80
-16
-48
-80
-48
48
64
32
16
-16
-48
-16
0
-16
-48
-32
0
-16
0
0
-16
-32
-80
-80
-64
-16
48
80
64
32
48
32
-32
-96
-80
0
80
64
0
-80
-112
-16
16
-16
-96
-144
-16
128
160
112
16
-32
16
48
-32
-16
16
-32
-128
-112
-96
-48
-16
0
-32
-80
-80
-16
0
48
64
32
32
96
80
0
0
16
0
-48
-80
-48
0
32
80
32
-16
16
0
32
64
16
0
-48
-64
-112
-128
-32
32
48
32
0
32
32
-32
0
0
-48
-96
-96
-64
-16
0
0
16
-48
-80
-32
16
32
16
-16
-16
0
16
32
0
-32
-48
-64
-32
32
16
-16
-32
-48
-32
32
64
32
32
0
-48
-80
-96
-80
-16
0
32
48
48
96
144
160
160
128
-16
-96
-128
-64
16
32
-32
-112
-160
-128
-64
0
16
-16
-16
48
64
32
-48
-32
16
0
-32
-64
-32
-16
-48
-48
-16
-16
-16
-16
32
80
128
144
176
144
-16
-112
-112
-80
-48
-64
-80
-32
0
0
-32
-48
0
48
64
48
-16
-64
-112
-160
-176
-96
0
-16
0
16
0
16
32
64
48
0
0
0
16
32
16
-48
-64
-16
32
112
160
64
-48
-80
-112
-128
-96
-32
0
-16
-16
16
32
48
0
-32
-32
0
48
32
0
-16
-16
-16
-16
16
16
-32
-32
0
16
16
-16
-32
16
64
0
-16
-16
-16
48
80
48
64
96
16
-64
-96
-80
-48
-32
16
16
0
48
96
48
-16
-64
-144
-112
-48
-32
-32
-48
-32
-32
-48
-16
48
48
64
48
-32
-48
16
16
-32
-80
-112
-64
0
0
0
0
-16
-32
-16
0
16
0
0
0
16
16
16
0
-16
32
80
48
-16
-96
-128
-160
-144
-16
96
144
128
64
-48
-64
16
0
32
48
16
-32
-80
-96
-96
-64
-32
0
0
0
-48
-16
0
0
-16
-16
48
64
0
-16
16
32
64
80
48
48
0
-48
-32
-48
-32
-48
-96
-16
16
16
32
48
32
32
32
-32
-112
-96
-32
48
80
64
16
-16
32
16
0
48
16
-16
-16
0
-32
-64
-32
0
32
16
0
-16
-32
-48
-32
16
0
-80
-112
-80
32
96
64
16
-32
-16
-16
0
48
64
80
-16
-80
-64
-48
48
112
80
16
-32
-80
-96
-48
-16
0
0
16
16
-16
-32
-48
-48
-16
-32
16
64
16
-32
-48
-64
0
48
0
0
32
32
0
-16
16
0
-16
16
16
-32
-32
-64
-96
-96
-64
0
48
48
0
0
32
80
64
0
-112
-144
-112
0
64
64
16
-64
-64
-48
-32
0
16
16
0
0
48
48
48
16
-32
-64
-16
64
128
128
0
-128
-160
-64
0
48
80
48
0
-48
0
32
32
-32
-96
-48
0
-48
-64
0
32
32
0
-64
-96
-64
-32
-16
32
48
64
112
112
32
-96
-96
-48
-64
-64
-48
-32
-16
0
0
0
16
32
32
0
0
32
32
32
48
64
16
-32
-96
-112
-112
-32
48
-16
-48
-32
0
48
80
64
48
16
32
0
-32
-48
-48
-96
-80
-64
-48
0
16
16
16
-32
0
0
-16
16
32
0
-48
-64
-48
32
48
16
16
16
0
-48
-80
-48
16
64
80
96
32
-48
-16
-16
0
16
0
16
-16
-48
0
-16
-16
-32
-48
16
128
128
0
-112
-48
0
-16
0
-48
-64
-96
-80
-48
-16
0
-16
-16
-48
-32
48
80
64
-32
-80
-16
16
48
32
0
-16
-16
0
-16
0
-16
-48
-64
-16
16
0
-32
-48
-64
-16
112
208
192
128
-32
-176
-128
-112
-80
-48
-48
-64
-48
16
48
16
-80
-176
-128
0
112
160
96
-32
-112
-16
32
0
16
16
-64
-80
-16
48
64
16
-96
-96
96
144
64
-16
-48
-32
0
16
16
-16
-32
-32
-48
-64
-32
0
16
0
-64
-80
-16
32
16
-16
16
160
256
208
32
-208
-176
-80
-48
-32
-48
-64
-48
-16
32
64
48
16
-64
-96
-96
48
224
144
0
-32
-32
-80
-80
-64
-64
-64
-64
-48
-32
-48
-64
-16
-16
-16
16
128
144
32
-32
-32
-16
-16
0
0
-16
-48
-80
-96
-32
0
-48
-48
0
16
16
-48
-64
-48
16
144
144
96
96
64
-16
-64
-80
-80
-48
-48
-64
-16
48
80
32
-112
-160
-96
0
96
80
32
48
48
48
32
-16
-80
-112
-32
48
96
96
-32
-48
-16
-16
0
-16
-16
16
16
0
-16
-48
-80
-64
-32
-16
-16
-16
48
96
112
16
-64
-32
16
16
-32
-64
-48
0
0
-64
-64
-32
-32
-16
16
32
32
16
16
48
32
0
32
0
-32
-32
-32
-80
-128
-96
-16
32
0
32
-16
-80
-96
-96
0
32
16
32
48
48
-16
-32
-32
-32
0
48
64
112
96
128
16
-144
-192
-176
-16
80
48
16
32
64
48
48
0
-32
-16
32
64
48
16
16
-64
-160
-176
-144
-64
16
112
112
48
0
-64
-32
16
0
-16
-32
-64
-32
16
0
0
-16
-16
-32
-32
-16
16
16
0
0
-16
-16
-16
-16
0
16
-16
-64
-48
-64
16
96
96
64
-16
-16
64
48
16
16
-64
-96
-32
-16
-48
-48
-32
-80
-128
-128
-16
80
112
96
32
16
16
64
96
48
-16
-96
-112
-128
-96
-32
-32
-32
-16
-32
-16
32
64
96
112
128
80
48
0
-48
-64
-64
-64
-48
-48
-32
-16
16
0
-48
-80
-96
-32
16
64
32
-16
32
64
16
-16
-16
-48
-48
-48
-64
-32
16
80
64
-16
-64
-32
48
80
16
-64
-64
32
80
112
32
-48
-64
-64
-80
-80
-16
16
16
0
0
32
16
-16
-16
16
-16
-32
0
96
128
64
16
-16
-80
-112
-80
-64
-64
-32
16
48
32
-48
-64
-48
-48
-32
-16
0
-16
16
0
-16
-16
-32
-48
-64
-16
-16
0
0
0
16
48
64
32
16
16
16
16
64
80
16
-80
-96
-80
-80
-32
0
16
48
48
0
-32
-16
0
0
-32
-80
-64
0
48
64
80
80
-16
-112
-96
-64
-80
-64
0
48
32
-16
32
112
128
48
-96
-96
16
64
48
0
-64
-96
-80
-48
-32
16
32
16
16
32
64
48
32
0
16
32
16
0
-48
-144
-112
-64
-64
-64
-80
-64
-32
0
32
32
16
-16
-48
-48
-32
0
16
16
64
112
80
16
-64
-64
-80
-96
-80
-48
16
32
16
-32
-48
-48
-32
-16
-32
-32
0
32
32
48
96
112
48
-64
-48
-16
16
16
0
-64
-112
-64
16
32
0
-16
80
192
160
48
-32
-48
-48
-80
-64
-16
-16
0
32
64
48
-16
-96
-128
-112
-80
-16
16
-16
-16
0
-16
0
16
32
64
48
48
48
16
0
-32
-64
0
0
-32
-128
-160
-64
64
128
96
48
0
-48
-16
0
32
0
32
64
48
16
-48
-64
-32
-32
-96
-144
-96
0
16
16
64
64
80
32
-16
-48
-48
16
80
80
16
-32
-48
-80
-160
-128
-16
64
96
80
64
0
64
128
96
32
0
-16
-16
16
-16
-80
-112
16
64
48
-32
-112
-96
-64
-48
-16
32
48
48
64
32
0
-48
-80
-80
-64
-64
-16
0
16
32
-16
-80
-80
-16
64
96
112
96
16
-32
-48
-64
-80
-32
-80
-96
-64
32
144
112
-16
-64
-80
-32
16
-32
-112
-80
32
96
96
16
-64
-32
32
48
0
-32
0
0
-16
-16
-16
16
0
-64
-64
-32
-32
-64
-16
16
-32
-64
-16
16
-32
-64
-48
-48
-16
0
16
80
96
48
32
-32
-32
16
32
80
96
96
0
-144
-112
-64
-80
-64
-32
-32
-16
-16
16
16
0
16
80
80
32
0
-48
-80
-64
-48
-48
-32
-32
-16
80
96
64
32
16
64
128
48
-16
0
-64
-80
-32
0
0
-48
-80
-48
-48
0
16
-16
16
-16
-48
-32
0
32
96
160
96
-32
-112
-128
-64
0
0
-16
-16
0
16
-16
-32
-16
16
48
80
80
80
0
-96
-96
-64
-32
16
48
16
-32
-48
-64
-96
-112
-64
-32
-32
-16
0
48
48
16
96
128
96
0
-80
-16
16
-16
0
16
-32
-64
-80
-48
-32
-32
-64
-16
16
-16
16
48
48
64
96
64
64
48
-48
-96
-80
-80
-128
-112
-32
16
32
48
0
-32
32
80
64
112
112
48
-64
-96
-80
-48
-48
-16
0
-16
-16
-16
16
32
64
48
-16
-64
-112
-48
32
16
-16
0
-32
-80
-48
32
16
-16
32
112
144
112
96
128
80
0
-64
-32
48
-80
-224
-176
-112
-80
-48
64
208
240
176
-16
-48
-80
-96
-48
16
-32
-64
-64
-64
-32
-80
-64
32
64
16
32
48
32
32
-32
-96
-80
-16
48
64
48
0
-96
-112
-64
-16
-16
0
16
32
16
0
0
32
32
32
0
-64
-96
-32
0
0
0
-32
32
64
80
64
-16
-64
-96
-96
0
160
256
144
48
-80
-128
-128
-160
-96
-64
-112
-32
64
48
-16
-32
-32
-48
-96
-112
-48
112
160
128
64
16
-16
-64
-48
0
16
0
-16
-48
-64
-64
-48
-32
-32
-32
-64
-16
16
16
48
48
16
-16
-16
16
48
32
0
-16
-64
-48
-16
-32
-48
-48
-48
-80
-112
-64
48
64
48
64
16
-48
-48
-32
-32
-48
-48
-16
0
0
-48
-112
-144
-144
-80
-16
96
112
96
96
32
-32
-32
0
16
16
16
0
0
-16
-32
-48
0
32
32
32
0
0
32
32
-16
-64
-80
-48
0
-16
-16
-16
-16
-16
-32
-64
-48
-16
32
48
48
48
32
16
0
-32
-48
-32
-32
-16
-16
0
-16
-16
-16
-48
-64
-32
32
48
48
48
32
16
0
-16
-16
-16
-16
16
16
32
16
16
0
-16
-32
-32
-32
-32
-32
-16
-16
-32
-32
-16
-16
0
16
0
16
16
32
16
0
-16
-16
-32
-32
-32
-32
-32
-32
-16
-16
-16
0
0
16
16
0
0
0
-16
-32
-48
-32
-32
-48
-48
-48
-32
-32
-32
-32
-32
-16
16
16
16
16
16
16
-16
-48
-80
-64
-48
-32
-32
-16
-16
-16
-16
-16
-32
-16
0
16
32
16
16
16
0
-32
-48
-48
-48
-48
-48
-48
-48
-48
-48
-32
-48
-32
-16
0
16
0
0
0
-16
-32
-48
-48
-48
-48
-48
-48
-64
-64
-64
-48
-48
-48
-32
0
0
0
0
0
0
-16
-32
-48
-48
-64
-64
-64
-64
-64
-48
-48
-64
-48
-48
-32
-16
-16
0
0
0
-16
-32
-32
-48
-48
-64
-64
-64
-48
-48
-48
-48
-48
-32
0
0
0
0
0
-16
-32
-48
-48
-48
-48
-64
-48
-48
-48
-32
-32
-48
-32
-16
0
0
16
16
16
0
-16
-48
-48
-48
-48
-48
-32
-32
-32
-32
-32
-32
-16
0
16
16
16
16
16
0
-16
-32
-48
-48
-48
-48
-32
-32
-32
-32
-32
-16
-16
0
16
16
16
16
16
0
-16
-32
-48
-32
-32
-32
-32
-32
-32
-32
-32
-32
-16
0
16
16
16
16
16
0
0
-32
-32
-32
-32
-32
-32
-32
-32
-16
-16
-32
-16
0
0
16
16
16
16
0
-16
-32
-32
-32
-32
-32
-32
-32
-32
-16
-16
-32
-16
0
16
16
16
16
16
0
-16
-32
-32
-32
-32
-32
-32
-32
-32
-32
-16
-32
-32
-16
0
16
0
16
16
0
-16
-32
-32
-32
-32
-48
-48
-32
-32
-32
-16
-32
-16
-16
0
0
16
16
16
0
-16
-32
-48
-32
-32
-48
-48
-48
-48
-48
-32
-32
-32
-16
0
0
0
16
16
0
0
-32
-32
-32
-48
-48
-48
-48
-48
-48
-48
-32
-32
-16
0
0
16
16
16
0
-16
-32
-32
-32
-48
-48
-48
-48
-48
-32
-32
-32
-32
0
16
16
0
16
0
0
-16
-32
-32
-32
-32
-48
-48
-48
-32
-32
-32
-32
-32
-16
0
16
0
16
16
16
0
-32
-32
-32
-32
-32
-32
-32
-32
-32
-16
-16
-16
-16
16
16
16
16
16
16
0
-32
-32
-32
-32
-32
-32
-32
-32
-16
-16
-16
-32
-16
0
16
16
16
16
16
0
-16
-32
-32
-32
-16
-16
-16
-16
-16
-16
-16
-16
0
0
16
16
16
16
16
0
-16
-32
-32
-16
-32
-16
-16
-16
-16
-16
-32
-16
0
16
16
16
16
16
16
0
-16
-32
-32
-32
-32
-32
-32
-16
-16
-16
-16
-16
-16
0
16
16
16
16
16
0
-16
-32
-32
-16
-32
-32
-32
-32
-32
-32
-32
-32
-16
16
16
16
16
16
16
0
-16
-32
-32
-32
-32
-32
-32
-32
-32
-32
-32
-32
0
16
16
32
16
16
16
0
-16
-32
-32
-16
-32
-32
-32
-32
-32
-16
-16
-16
0
16
16
16
16
32
32
16
0
-16
-16
-16
-16
-16
-16
-16
-32
-16
-16
-16
0
16
16
16
32
32
16
16
0
-32
-32
-16
-32
-16
-16
-32
-16
-16
-16
-16
-16
0
32
32
32
32
32
16
0
-16
-32
-32
-32
-32
-32
-16
-16
-16
-16
-32
-16
0
16
16
16
32
16
16
-16
-16
-16
-32
-32
-16
-16
-16
-16
-16
-16
-16
-16
0
16
16
16
16
16
0
-16
-32
-32
-16
-32
-32
-32
-16
-16
-16
-16
-16
-16
0
16
16
16
16
16
16
-16
-32
-32
-16
-16
-16
-16
-16
-16
-16
-16
-16
0
0
16
16
16
16
16
16
0
-32
-32
-16
-16
-32
-32
-16
-16
-16
-16
-16
-16
0
16
16
16
32
32
16
0
-16
-16
-16
-16
-32
-32
-32
-16
-16
-16
-16
-16
0
16
16
16
16
16
16
0
-16
-16
-16
-32
-32
-32
-32
-32
-16
-16
-32
-16
0
16
16
16
32
32
16
0
-16
-16
-16
-32
-32
-32
-32
-16
-16
-16
-32
-16
0
16
16
16
16
16
16
0
-16
-32
-16
-32
-16
-16
-32
-32
-16
-16
-32
-16
0
16
16
16
16
16
16
0
-16
-16
-16
-16
-16
-16
-16
-16
-16
-16
-16
-16
0
16
16
16
16
16
16
0
-16
-16
-16
-16
-32
-16
-32
-32
-32
-16
-16
0
0
16
16
16
16
16
16
0
-16
-16
-16
-16
-32
-32
-16
-16
-16
-16
-16
-16
0
16
32
16
32
32
16
0
-16
-32
-32
-32
-32
-32
-32
-32
-16
-16
-16
-16
0
16
16
16
32
32
16
0
-16
-16
-16
-16
-32
-32
-16
-16
-16
-16
-16
-16
0
16
16
32
32
32
16
0
-16
-16
-16
-16
-16
-16
-16
-16
-16
-16
-16
-16
0
16
16
16
32
32
16
0
-16
-16
-16
-16
-16
-32
-16
-16
-16
-16
-16
-16
0
16
16
16
32
16
16
16
-16
-16
-16
-16
-16
-16
-32
-16
-16
-16
-16
-16
0
16
32
16
16
16
16
0
-16
-16
-16
-16
-16
-32
-32
-16
-16
-16
-32
-32
-16
16
16
16
32
32
16
16
-16
-16
-16
-16
-32
-32
-32
-16
-16
-16
-16
-16
0
16
16
16
16
16
16
0
-16
-16
-16
-16
-16
-16
-16
-16
-16
-16
-16
-16
0
16
32
32
32
16
0
0
-16
-16
-16
-16
-16
-16
-16
-16
-16
-16
-16
-16
0
16
16
32
32
16
16
0
-16
-16
-16
-16
-16
-16
-16
-16
-16
-16
-16
-16
0
16
16
16
16
16
16
16
-16
-16
-16
-32
-16
-16
-16
-16
-16
-16
-16
-16
0
0
16
16
16
16
16
16
0
-16
-16
-16
-16
-16
-32
-32
-32
-16
-32
-16
0
16
16
16
16
16
16
0
-16
-32
-32
-32
-32
-32
-32
-16
-16
-16
-16
-16
-16
16
16
16
16
16
16
0
-16
-32
-16
-16
-16
-16
-32
-32
-16
-16
-16
-16
-16
0
16
16
16
32
32
16
-16
-32
-32
-16
-32
-32
-32
-16
-16
-16
-16
-32
-16
0
16
16
32
32
16
0
-16
-32
-16
-16
-32
-16
-16
-16
-16
-16
-32
-32
-16
0
16
16
16
32
16
16
-16
-16
-16
-16
-16
-32
-32
-16
-16
-16
-32
-32
0
16
16
16
32
16
16
0
-16
-16
-16
-16
-32
-32
-32
-32
-32
-16
-32
-32
0
16
32
16
16
16
16
16
-16
-16
-16
-16
-16
-32
-32
-32
-32
-16
-16
-16
0
0
16
16
16
32
32
16
-16
-16
-16
-16
-16
-16
-32
-16
-16
-16
-16
-16
-16
0
16
16
16
16
16
16
0
-16
-32
-16
-32
-16
-32
-16
-16
-16
-16
-16
-16
0
16
16
16
32
16
16
-16
-32
-32
-16
-16
-16
-16
-16
-16
-16
-16
-32
-16
0
16
16
16
16
16
16
0
-16
-16
-16
-16
-32
-32
-16
-16
-16
-16
-32
-16
0
16
16
16
32
32
16
0
-16
-16
-16
-16
-32
-32
-16
-16
-16
-16
-16
-16
0
16
16
16
16
16
16
0
-32
-32
-16
-16
-16
-16
-16
-16
-16
-16
-32
-16
0
16
16
16
16
16
16
0
-16
-16
-16
-32
-32
-32
-16
-16
-16
-16
-16
-16
0
16
16
16
16
16
0
0
-16
-32
-32
-32
-32
-16
-32
-32
-16
-16
-16
0
0
16
16
16
16
16
16
0
-16
-16
-16
-32
-32
-32
-16
-16
-16
-16
-16
-16
0
16
16
16
32
32
16
0
-16
-16
-16
-16
-16
-16
-32
-16
-16
-16
-16
0
0
16
16
32
32
32
16
0
-16
-16
-16
-16
-16
-32
-16
-16
-16
-16
-16
-16
0
16
16
16
32
32
16
0
-16
-16
-16
-16
-16
-16
-16
-16
-16
-16
-16
-16
0
16
16
16
16
32
16
0
-16
-16
-16
-16
-16
-16
-32
-16
-16
-16
-16
-16
0
16
16
16
32
16
16
0
-16
-16
-16
-16
-16
-16
-16
-16
-16
-16
-16
-16
0
16
16
16
16
16
16
0
-16
-16
-16
-16
-16
-16
-16
-16
-16
-16
-16
-16
0
16
16
16
32
16
16
16
-16
-16
-16
-32
-16
-16
-16
-16
-16
-16
-16
-16
0
16
16
16
16
16
16
0
-16
-16
-16
-16
-32
-16
-32
-16
-16
-16
-16
-16
0
16
16
16
16
32
16
0
-16
-16
-16
-16
-32
-32
-16
-16
-16
-16
-16
-16
0
16
16
16
16
16
16
0
-16
-16
-16
-16
-32
-32
-32
-16
-16
-16
-16
-16
0
0
16
16
16
16
16
0
-16
-16
-16
-16
-32
-32
-32
-16
-16
-16
-16
-16
0
16
16
16
32
16
16
0
-16
-16
-16
-16
-16
-16
-16
-32
-32
-16
-16
-16
0
16
16
16
32
32
16
0
-16
-32
-16
-16
-16
-16
-16
-16
-16
-16
-16
-16
0
16
16
16
32
32
16
0
-16
-32
-16
-16
-16
-16
-32
-16
-16
-16
-16
-32
0
16
16
16
16
16
16
0
-16
-16
-16
-16
-32
-32
-16
-16
-16
-16
-16
-16
-16
0
16
16
16
32
16
0
-16
-16
-16
-16
-32
-32
-32
-16
-16
-16
-16
-16
0
0
16
16
16
16
16
0
-16
-32
-32
-16
-16
-32
-32
-16
-16
-16
-16
-16
0
0
16
16
16
32
16
0
-16
-32
-16
-32
-32
-16
-16
-16
