736
464
160
-128
-384
-640
-848
-1200
-1584
-1168
-160
-16
-16
-16
0
112
1120
1376
1072
864
736
496
192
-96
-368
-640
-848
-1200
-1568
-1200
-192
-16
-16
-16
-16
96
1072
1408
1104
896
768
496
208
-64
-336
-624
-848
-1184
-1584
-1280
-240
0
0
-16
-16
64
976
1376
1072
880
768
528
224
-64
-320
-608
-832
-1168
-1584
-1328
-272
0
0
-16
-16
48
944
1424
1120
912
784
544
240
-48
-320
-608
-848
-1184
-1600
-1392
-320
-16
0
0
-16
32
864
1392
1104
880
768
560
256
-16
-304
-576
-784
-1104
-1552
-1440
-368
-16
0
-16
-16
32
800
1408
1120
880
768
544
240
-48
-336
-592
-832
-1168
-1616
-1504
-432
-16
-16
0
-16
16
736
1424
1152
912
784
576
256
-32
-320
-576
-784
-1104
-1568
-1552
-496
-16
0
0
0
16
688
1440
1168
912
784
576
272
-16
-304
-560
-768
-1056
-1488
-1520
-544
-16
0
0
-16
0
624
1440
1168
928
784
592
320
32
-256
-512
-736
-1008
-1440
-1504
-576
-16
0
0
0
0
560
1456
1216
960
816
624
352
80
-208
-464
-672
-944
-1392
-1552
-656
-32
0
-16
-16
0
480
1392
1200
944
816
656
384
112
-176
-432
-672
-960
-1392
-1568
-720
-32
-16
-16
0
0
432
1376
1200
960
848
688
400
128
-160
-416
-688
-960
-1408
-1632
-784
-48
0
-16
0
0
384
1392
1248
976
832
672
400
144
-144
-400
-672
-944
-1392
-1648
-864
-48
0
0
-16
0
320
1376
1280
992
848
688
416
144
-144
-400
-688
-944
-1376
-1648
-928
-64
-16
-16
-16
-16
288
1344
1312
1008
832
672
416
144
-128
-400
-656
-912
-1328
-1648
-992
-80
0
0
-16
-16
240
1296
1312
1024
848
688
432
160
-112
-368
-640
-880
-1296
-1632
-1040
-112
-16
-16
-16
0
192
1248
1328
1008
832
672
416
144
-112
-368
-624
-832
-1216
-1568
-1056
-128
0
-16
0
0
160
1216
1312
992
800
656
400
144
-112
-336
-592
-784
-1136
-1520
-1088
-144
-16
0
0
0
128
1136
1312
1008
816
688
432
160
-80
-304
-544
-752
-1152
-1568
-1216
-192
-16
-16
-16
-16
112
1104
1408
1088
864
736
480
192
-80
-336
-576
-784
-1152
-1600
-1296
-224
-16
0
0
-16
80
1072
1440
1104
880
752
496
192
-80
-320
-576
-800
-1152
-1600
-1344
-272
0
0
0
0
64
992
1456
1120
896
768
512
208
-80
-336
-624
-848
-1184
-1616
-1392
-304
-16
-16
-16
-16
48
928
1440
1104
880
752
496
208
-64
-320
-592
-784
-1120
-1568
-1424
-352
-16
-16
-16
-16
32
832
1408
1120
896
768
528
224
-64
-320
-592
-800
-1120
-1584
-1488
-416
-16
-16
-16
-16
16
784
1440
1136
912
784
544
240
-32
-320
-576
-768
-1072
-1536
-1536
-480
-16
0
0
0
16
720
1456
1168
912
768
560
256
-32
-304
-576
-784
-1072
-1504
-1488
-512
-16
0
0
0
0
640
1472
1184
912
784
576
288
16
-272
-528
-736
-1008
-1440
-1520
-576
-16
0
0
-16
0
560
1424
1200
944
816
624
352
64
-240
-480
-720
-1008
-1456
-1536
-624
-16
-16
-16
-16
0
512
1472
1264
992
848
656
368
96
-208
-464
-704
-976
-1424
-1568
-688
-32
-16
-16
-16
0
464
1456
1280
1008
864
672
384
112
-192
-448
-672
-944
-1360
-1568
-736
-32
0
-16
-16
0
416
1488
1312
1024
864
688
400
112
-192
-432
-704
-928
-1312
-1536
-784
-48
-16
-16
0
0
352
1424
1312
1040
880
720
416
144
-144
-400
-656
-864
-1232
-1520
-832
-64
-16
-16
-16
0
304
1376
1312
1040
896
736
448
176
-128
-400
-688
-912
-1280
-1552
-912
-80
-16
-16
0
0
240
1280
1296
1040
896
752
464
192
-96
-368
-672
-912
-1312
-1600
-976
-96
0
0
-16
0
208
1264
1328
1040
864
720
464
176
-112
-384
-688
-928
-1312
-1632
-1056
-112
0
0
0
0
160
1168
1312
1024
864
736
464
176
-96
-352
-624
-864
-1280
-1632
-1136
-144
-16
0
-16
-16
144
1168
1376
1072
880
752
496
192
-96
-352
-624
-880
-1280
-1664
-1184
-160
0
-16
-16
-16
112
1088
1376
1088
880
768
512
208
-96
-352
-624
-864
-1280
-1680
-1296
-208
-16
-16
0
0
80
1040
1408
1088
880
784
528
208
-80
-352
-640
-880
-1280
-1696
-1344
-256
-16
0
0
0
64
992
1424
1088
880
752
512
208
-64
-352
-624
-864
-1232
-1664
-1408
-304
-16
0
-16
-16
48
928
1408
1088
864
752
528
224
-64
-336
-592
-800
-1136
-1584
-1424
-336
-16
-16
-16
-16
32
880
1424
1120
896
768
560
256
-16
-288
-544
-752
-1072
-1552
-1472
-384
-16
-16
-16
-16
32
816
1440
1120
880
768
560
272
0
-272
-528
-752
-1072
-1520
-1472
-448
-16
-16
-16
0
16
752
1440
1136
912
768
576
288
16
-256
-528
-768
-1088
-1536
-1536
-512
-16
0
0
0
16
688
1440
1152
896
768
576
304
32
-240
-496
-736
-1056
-1536
-1584
-576
-16
0
-16
-16
0
624
1456
1184
912
784
592
320
48
-224
-496
-736
-1056
-1520
-1600
-640
-16
-16
-16
0
0
544
1440
1200
944
800
608
336
80
-208
-464
-704
-1024
-1520
-1664
-720
-32
-16
0
0
0
480
1440
1232
944
800
608
336
64
-224
-464
-720
-1008
-1472
-1616
-752
-32
-16
0
0
0
416
1424
1232
960
800
608
336
64
-208
-448
-704
-960
-1392
-1600
-784
-48
0
-16
0
0
368
1376
1232
944
784
592
336
64
-192
-432
-656
-880
-1312
-1600
-864
-64
0
0
-16
0
320
1344
1248
976
800
640
368
96
-176
-416
-624
-848
-1248
-1568
-912
-80
-16
0
-16
-16
272
1360
1312
1024
848
688
416
144
-144
-384
-640
-848
-1248
-1632
-1024
-96
0
0
-16
-16
240
1360
1392
1088
912
752
464
160
-144
-384
-640
-880
-1280
-1632
-1072
-112
-16
0
0
-16
192
1312
1408
1088
896
752
480
176
-128
-384
-656
-864
-1264
-1648
-1136
-144
-16
-16
0
-16
160
1264
1440
1104
896
736
464
176
-112
-368
-640
-864
-1248
-1648
-1200
-176
0
0
0
0
128
1152
1408
1088
880
752
480
192
-112
-368
-640
-848
-1216
-1632
-1248
-208
-16
-16
-16
0
96
1088
1424
1104
912
784
512
208
-80
-336
-608
-816
-1168
-1600
-1296
-240
0
0
-16
0
80
1024
1456
1136
912
784
544
240
-64
-336
-592
-784
-1136
-1568
-1328
-272
-16
0
-16
0
48
960
1456
1168
960
848
592
272
-32
-320
-576
-784
-1136
-1584
-1392
-320
-16
-16
-16
-16
32
896
1472
1152
928
816
576
288
0
-304
-576
-800
-1136
-1584
-1456
-384
-16
0
-16
-16
32
832
1488
1184
944
832
592
288
0
-288
-576
-832
-1184
-1600
-1472
-416
-16
-16
0
-16
16
752
1456
1168
928
800
592
304
32
-256
-528
-768
-1072
-1520
-1488
-480
-16
-16
0
0
16
672
1440
1168
928
816
608
304
32
-272
-528
-752
-1040
-1456
-1488
-528
-16
-16
-16
0
0
608
1408
1168
944
816
624
320
48
-240
-496
-672
-928
-1360
-1472
-560
-16
-16
0
0
0
528
1392
1168
928
800
624
336
80
-224
-464
-640
-912
-1344
-1520
-640
-16
-16
-16
-16
0
480
1392
1200
944
800
624
352
80
-208
-464
-688
-944
-1392
-1552
-704
-32
-16
0
-16
0
432
1392
1248
992
848
704
416
144
-144
-416
-704
-992
-1472
-1744
-880
-48
0
-16
0
0
384
1424
1280
1008
864
720
432
144
-160
-448
-752
-1024
-1472
-1728
-912
-64
0
0
0
0
352
1472
1376
1072
896
736
448
160
-144
-416
-704
-992
-1440
-1728
-976
-80
0
0
0
-16
304
1456
1408
1072
880
704
416
128
-160
-416
-688
-912
-1312
-1648
-976
-80
0
0
0
0
240
1360
1376
1040
864
688
432
144
-144
-384
-640
-864
-1264
-1584
-1040
-112
0
-16
-16
0
192
1296
1376
1072
880
720
448
160
-112
-368
-640
-880
-1264
-1632
-1104
-128
0
-16
-16
-16
160
1184
1344
1056
864
736
480
192
-96
-352
-624
-864
-1232
-1616
-1168
-160
-16
-16
-16
-16
128
1152
1392
1072
864
736
464
192
-96
-352
-624
-848
-1200
-1568
-1184
-176
0
-16
-16
-16
96
1088
1392
1072
864
736
480
208
-80
-352
-608
-816
-1168
-1584
-1280
-224
-16
0
-16
-16
80
1024
1392
1072
880
768
512
224
-48
-304
-592
-816
-1168
-1600
-1360
-272
-16
0
0
0
64
976
1456
1136
896
768
528
240
-48
-304
-576
-816
-1168
-1632
-1424
-320
-16
0
-16
0
48
896
1456
1152
928
800
560
240
-32
-304
-576
-784
-1136
-1552
-1424
-352
-16
0
0
0
32
864
1488
1152
896
752
528
240
-32
-304
-544
-752
-1056
-1472
-1392
-400
-16
-16
-16
-16
16
784
1456
1168
928
784
560
256
0
-272
-512
-720
-1040
-1488
-1472
-464
-16
-16
-16
-16
16
688
1440
1168
928
816
592
304
16
-256
-496
-704
-1008
-1488
-1536
-528
-16
-16
-16
-16
0
640
1488
1216
960
816
608
304
32
-240
-512
-752
-1056
-1536
-1600
-608
-16
-16
0
-16
0
560
1472
1248
992
864
656
336
48
-256
-496
-752
-1056
-1520
-1616
-672
-16
0
0
-16
0
512
1456
1264
992
848
656
352
64
-240
-512
-768
-1040
-1488
-1616
-736
-32
0
0
-16
0
448
1440
1264
992
848
656
368
96
-208
-480
-720
-992
-1456
-1664
-800
-48
0
0
0
0
384
1424
1296
1024
864
672
384
96
-208
-464
-720
-976
-1408
-1648
-848
-48
-16
0
0
0
336
1376
1264
1008
864
688
400
128
-176
-432
-688
-928
-1344
-1648
-928
-64
-16
-16
0
0
288
1360
1296
1008
864
704
432
144
-160
-416
-704
-960
-1360
-1648
-976
-80
-16
-16
-16
0
240
1312
1312
1040
864
720
432
144
-144
-400
-672
-896
-1312
-1664
-1072
-112
-16
-16
-16
0
192
1248
1328
1024
848
720
464
176
-112
-384
-656
-880
-1280
-1648
-1120
-128
0
-16
-16
-16
160
1216
1376
1056
864
736
464
176
-112
-368
-640
-880
-1296
-1696
-1200
-160
0
0
-16
-16
128
1120
1344
1040
880
752
496
192
-80
-352
-640
-880
-1264
-1680
-1264
-192
0
-16
0
0
96
1088
1360
1056
864
752
496
208
-64
-336
-640
-896
-1280
-1696
-1328
-240
0
0
0
0
80
1024
1392
1072
864
752
528
224
-64
-336
-624
-848
-1232
-1664
-1376
-272
-16
0
0
0
64
992
1424
1088
880
752
528
240
-48
-320
-592
-816
-1184
-1648
-1456
-336
-16
0
0
0
48
960
1472
1120
880
752
528
240
-32
-304
-592
-816
-1168
-1632
-1488
-384
-16
0
0
-16
32
880
1472
1136
912
768
544
256
-16
-288
-576
-800
-1120
-1600
-1520
-432
-16
0
0
0
16
816
1504
1152
896
752
528
240
-16
-288
-560
-768
-1040
-1472
-1456
-448
-16
-16
-16
-16
16
720
1456
1152
912
768
560
256
0
-272
-512
-720
-992
-1424
-1472
-512
-16
-16
-16
0
0
656
1488
1200
928
784
576
288
32
-240
-464
-640
-896
-1376
-1520
-608
-16
-16
-16
-16
0
576
1488
1232
960
816
608
304
32
-256
-464
-672
-928
-1376
-1520
-640
-16
-16
-16
-16
0
496
1424
1232
992
848
672
368
96
-192
-448
-672
-944
-1408
-1616
-720
-32
-16
-16
-16
0
448
1456
1280
992
816
656
368
96
-192
-448
-704
-976
-1440
-1648
-800
-48
-16
-16
-16
0
400
1456
1312
1024
848
672
368
80
-208
-464
-720
-960
-1376
-1584
-800
-48
0
0
-16
0
336
1392
1280
992
816
640
368
96
-192
-432
-672
-912
-1328
-1632
-928
-64
-16
-16
-16
-16
288
1376
1328
1040
880
704
400
112
-192
-448
-704
-944
-1312
-1600
-944
-80
0
0
0
-16
240
1312
1344
1040
880
720
432
144
-160
-416
-672
-896
-1296
-1648
-1056
-112
0
0
-16
-16
208
1296
1392
1072
896
736
448
160
-144
-400
-672
-912
-1296
-1648
-1104
-128
-16
-16
0
0
176
1216
1360
1072
896
736
480
160
-128
-400
-672
-896
-1280
-1632
-1136
-144
-16
0
-16
-16
144
1168
1376
1072
880
752
480
192
-96
-368
-624
-832
-1184
-1584
-1184
-176
-16
-16
-16
-16
112
1120
1408
1088
896
768
496
192
-96
-352
-624
-816
-1152
-1488
-1152
-192
-16
0
-16
-16
80
1008
1376
1088
880
784
544
240
-32
-288
-560
-800
-1168
-1616
-1312
-256
-16
-16
0
0
64
992
1456
1152
928
816
560
256
-32
-304
-528
-752
-1136
-1584
-1392
-320
-16
0
0
-16
48
912
1440
1152
944
832
608
304
16
-288
-592
-832
-1200
-1648
-1424
-352
-16
0
0
-304
-608
-832
-1120
-1568
-1568
-512
-16
-16
0
-16
0
656
1424
1152
912
768
560
272
0
-288
-544
-768
-1056
-1504
-1568
-576
-16
-16
-16
-16
0
576
1424
1168
928
784
576
288
16
-256
-496
-720
-976
-1392
-1504
-608
-16
-16
-16
0
0
512
1392
1152
912
784
608
320
48
-208
-464
-704
-960
-1376
-1504
-656
-32
-16
-16
-16
0
464
1392
1168
896
768
592
320
64
-192
-432
-672
-928
-1360
-1536
-720
-32
-16
0
-16
0
400
1344
1168
928
784
624
352
80
-176
-416
-656
-912
-1360
-1600
-816
-48
-16
-16
-16
0
336
1328
1216
960
816
656
384
112
-176
-400
-656
-928
-1376
-1632
-896
-64
0
0
-16
0
304
1360
1312
1040
880
736
464
160
-128
-368
-672
-976
-1472
-1808
-1072
-96
0
0
0
0
272
1424
1392
1088
912
752
448
144
-160
-416
-672
-912
-1360
-1760
-1104
-112
0
-16
0
0
224
1344
1376
1072
896
752
496
176
-128
-384
-704
-976
-1392
-1776
-1152
-128
-16
0
0
-16
192
1312
1424
1104
912
752
480
176
-128
-384
-656
-880
-1280
-1712
-1200
-144
-16
-16
0
0
144
1200
1392
1056
864
720
480
176
-128
-400
-672
-896
-1280
-1648
-1216
-176
0
0
-16
0
112
1136
1408
1072
880
736
480
176
-112
-384
-640
-864
-1232
-1616
-1264
-208
0
0
-16
-16
96
1088
1424
1088
880
736
496
208
-80
-352
-608
-816
-1152
-1568
-1344
-256
-16
-16
-16
-16
64
1040
1456
1104
880
752
496
224
-64
-336
-608
-800
-1104
-1520
-1312
-288
-16
0
0
-16
48
960
1440
1104
896
768
528
256
-16
-272
-544
-736
-1056
-1504
-1392
-352
-16
-16
0
-16
32
896
1472
1168
944
832
592
288
0
-272
-544
-768
-1088
-1552
-1472
-416
-16
-16
-16
-16
32
832
1504
1200
960
832
608
304
16
-288
-560
-784
-1120
-1568
-1504
-464
-16
-16
-16
0
16
752
1520
1200
944
816
608
304
16
-272
-544
-752
-1072
-1520
-1520
-496
-16
0
0
0
0
688
1488
1200
928
784
576
288
16
-256
-512
-736
-1024
-1456
-1488
-544
-16
-16
0
0
0
576
1424
1168
928
784
592
304
48
-240
-480
-720
-992
-1424
-1552
-624
-16
0
0
0
0
528
1424
1184
944
816
640
336
80
-224
-480
-736
-1008
-1440
-1568
-688
-32
-16
-16
-16
0
464
1424
1232
976
832
672
368
96
-208
-480
-736
-1008
-1456
-1632
-768
-32
0
-16
-16
0
432
1472
1296
1024
880
688
384
112
-208
-464
-720
-976
-1392
-1632
-816
-48
0
-16
-16
0
368
1408
1280
1008
832
672
400
128
-160
-416
-672
-912
-1328
-1584
-848
-64
0
-16
0
0
304
1360
1296
1024
864
704
416
144
-144
-384
-640
-880
-1296
-1616
-944
-80
-16
0
0
0
256
1328
1312
1008
832
688
416
160
-128
-384
-640
-880
-1280
-1584
-992
-96
-16
-16
0
0
208
1264
1312
1040
864
720
448
176
-112
-368
-640
-864
-1248
-1584
-1040
-112
-16
-16
-16
-16
192
1264
1360
1040
848
704
464
176
-96
-352
-624
-848
-1232
-1584
-1088
-128
-16
0
-16
-16
144
1200
1376
1072
864
720
464
176
-96
-352
-624
-832
-1200
-1568
-1152
-160
-16
-16
-16
-16
112
1136
1392
1072
864
720
480
192
-64
-320
-608
-848
-1200
-1584
-1200
-192
0
0
0
0
96
1104
1408
1072
864
720
480
192
-80
-320
-592
-832
-1168
-1584
-1296
-240
0
0
0
0
64
992
1392
1104
912
768
528
224
-48
-304
-608
-848
-1184
-1600
-1344
-272
-16
0
-16
-16
48
928
1392
1088
880
752
528
224
-48
-304
-576
-832
-1168
-1632
-1424
-320
-16
-16
-16
0
32
864
1424
1104
896
768
528
224
-48
-304
-576
-816
-1168
-1600
-1440
-368
-16
-16
0
0
32
800
1424
1120
896
768
544
240
-48
-304
-544
-768
-1088
-1536
-1440
-400
-16
-16
-16
-16
16
752
1440
1136
896
768
544
256
-32
-304
-544
-768
-1088
-1504
-1472
-464
-16
-16
0
0
16
688
1440
1168
928
800
576
272
-16
-288
-528
-752
-1040
-1456
-1488
-528
-16
-16
-16
-16
0
624
1440
1184
944
832
624
320
16
-272
-528
-752
-1040
-1472
-1584
-608
-16
0
-16
0
0
560
1440
1200
944
832
640
352
64
-224
-480
-736
-1024
-1488
-1632
-672
-32
0
-16
-16
0
496
1424
1232
992
864
672
368
96
-208
-464
-704
-992
-1456
-1648
-752
-32
0
0
-16
0
448
1424
1248
992
848
688
400
112
-192
-432
-656
-928
-1376
-1600
-800
-48
0
0
0
0
400
1424
1280
1008
864
704
416
128
-176
-432
-672
-944
-1360
-1552
-816
-48
0
0
0
0
336
1392
1264
992
832
688
416
128
-160
-400
-624
-864
-1280
-1568
-896
-64
0
0
0
0
288
1360
1296
1008
848
688
416
144
-160
-416
-656
-880
-1264
-1520
-912
-80
0
-16
0
0
240
1264
1248
976
832
688
448
176
-112
-384
-656
-864
-1232
-1552
-976
-96
-16
0
-16
-16
208
1264
1296
992
816
672
416
176
-96
-352
-592
-800
-1200
-1536
-1040
-128
0
-16
-16
-16
160
1168
1280
1008
832
688
448
192
-64
-320
-560
-784
-1200
-1584
-1152
-160
-16
-16
0
0
128
1152
1360
1056
880
768
512
224
-48
-320
-592
-848
-1280
-1712
-1312
-192
0
0
0
0
112
1136
1424
1088
896
768
512
224
-48
-320
-624
-864
-1264
-1696
-1344
-224
-16
-16
0
0
80
1088
1472
1104
896
768
528
240
-32
-320
-640
-880
-1248
-1696
-1376
-272
-16
-16
-16
-16
64
1024
1456
1088
864
736
496
224
-32
-304
-576
-800
-1168
-1584
-1360
-304
-16
-16
-16
-16
48
912
1440
1104
880
752
528
240
-16
-272
-544
-736
-1088
-1552
-1408
-352
-16
-16
-16
-16
32
864
1472
1152
912
784
528
240
-32
-288
-544
-768
-1104
-1552
-1472
-416
-16
0
-16
0
16
784
1440
1104
880
768
544
256
-16
-272
-544
-784
-1088
-1520
-1456
-448
-16
0
-16
0
16
736
1472
1168
912
768
544
256
0
-240
-512
-768
-1056
-1520
-1536
-512
-16
0
-16
-16
0
656
1472
1184
928
800
592
288
0
-256
-496
-720
-992
-1440
-1488
-560
-16
-16
-16
-16
0
576
1456
1216
960
816
624
320
48
-208
-448
-672
-960
-1424
-1552
-640
-16
-16
0
-16
0
544
1504
1296
1008
848
672
352
64
-224
-464
-672
-944
-1408
-1600
-704
-32
-16
0
-16
0
480
1472
1296
1024
880
688
384
80
-208
-448
-688
-960
-1392
-1600
-768
-32
0
0
0
0
416
1456
1312
1040
864
688
400
96
-192
-432
-672
-928
-1360
-1616
-816
-48
-16
0
0
0
352
1424
1328
1040
880
688
400
112
-208
-432
-704
-960
-1344
-1584
-864
-64
-16
0
0
0
304
1360
1296
1024
848
688
416
112
-192
-432
-672
-896
-1248
-1504
-880
-64
-16
-16
-16
0
256
1296
1280
1008
832
688
432
144
-144
-384
-640
-864
-1248
-1584
-992
-96
-16
-16
-16
-16
208
1248
1312
1040
864
736
480
176
-128
-384
-640
-880
-1264
-1600
-1056
-112
0
-16
-16
0
176
1232
1360
1056
864
736
480
192
-96
-368
-624
-864
-1248
-1616
-1136
-144
0
-16
-16
-16
144
1200
1408
1120
928
784
528
224
-96
-368
-672
-912
-1312
-1696
-1264
-192
0
0
0
-16
112
1168
1456
1136
928
800
544
240
-80
-368
-656
-896
-1280
-1664
-1296
-224
0
0
0
0
96
1088
1456
1136
928
800
560
256
-48
-352
-608
-832
-1232
-1664
-1360
-256
-16
-16
0
-16
64
1024
1472
1136
912
800
544
256
-48
-320
-576
-800
-1152
-1584
-1344
-288
-16
0
-16
0
48
896
1392
1104
896
784
560
272
0
-288
-560
-784
-1120
-1552
-1344
-320
-16
-16
-16
-16
32
848
1408
1104
864
752
528
256
0
-272
-544
-800
-1136
-1568
-1424
-384
-16
-16
-16
-16
16
752
1360
1088
880
768
544
272
0
-272
-560
-816
-1136
-1520
-1408
-416
-16
-16
-16
0
16
720
1424
1104
864
736
544
256
0
-272
-528
-736
-1040
-1456
-1456
-464
-16
0
0
0
0
672
1408
1120
896
768
560
272
16
-256
-480
-688
-992
-1408
-1472
-528
-16
0
-16
0
0
608
1424
1168
928
800
624
320
48
-224
-480
-704
-992
-1440
-1536
-592
-16
0
0
0
0
560
1456
1200
944
816
608
320
64
-224
-480
-720
-1008
-1456
-1600
-688
-32
0
-16
-16
0
496
1440
1216
944
800
624
336
64
-224
-464
-704
-976
-1408
-1568
-704
-32
0
0
-16
0
432
1408
1216
944
800
608
336
80
-176
-432
-656
-944
-1392
-1632
-816
-48
-16
-16
0
0
368
1376
1248
960
800
624
352
80
-192
-432
-672
-944
-1392
-1632
-864
-48
-16
-16
-16
0
304
1328
1248
976
816
656
368
112
-160
-416
-688
-944
-1392
-1696
-960
-80
0
-16
-16
-16
256
1312
1264
976
816
672
400
128
-144
-416
-720
-976
-1408
-1728
-1040
-96
0
0
-16
-16
224
1296
1296
992
832
672
400
128
-144
-400
-656
-896
-1312
-1648
-1056
-112
0
0
-16
-16
192
1264
1344
1024
832
704
432
160
-112
-368
-592
-800
-1216
-1616
-1136
-144
-16
0
0
0
160
1232
1408
1072
880
736
464
176
-96
-352
-576
-784
-1168
-1568
-1136
-160
0
0
0
0
128
1168
1408
1104
896
752
496
192
-96
-336
-576
-784
-1152
-1600
-1232
-192
-16
0
0
-16
96
1120
1440
1104
896
768
512
208
-80
-336
-608
-832
-1184
-1600
-1296
-240
-16
-16
0
-16
80
1072
1488
1136
912
768
512
208
-80
-336
-608
-832
-1168
-1568
-1296
-256
-16
0
0
-16
64
992
1488
1152
912
784
560
240
-64
-336
-592
-800
-1136
-1552
-1360
-304
-16
-16
-16
0
48
928
1472
1136
912
768
528
240
-64
-320
-576
-784
-1088
-1488
-1344
-336
-16
-16
-16
0
32
816
1440
1152
928
800
592
272
-16
-288
-560
-800
-1104
-1568
-1488
-416
-16
-16
-16
-16
16
752
1424
1120
912
800
576
272
-32
-320
-608
-848
-1136
-1552
-1520
-480
-16
-16
-16
0
16
688
1424
1152
928
816
608
304
16
-288
-576
-848
-1168
-1600
-1584
-528
-16
-16
-16
-16
0
624
1440
1184
928
800
592
288
0
-288
-544
-800
-1104
-1520
-1600
-592
-16
0
0
0
0
560
1424
1168
912
784
608
320
32
-272
-512
-752
-1040
-1456
-1552
-640
-16
0
-16
0
0
496
1408
1184
944
800
624
336
64
-240
-480
-736
-1008
-1440
-1600
-720
-32
0
0
0
0
448
1392
1200
944
800
640
368
96
-208
-464
-720
-992
-1440
-1664
-832
-48
-16
0
0
0
384
1376
1232
976
832
672
400
112
-208
-464
-736
-1024
-1472
-1680
-880
-48
-16
-16
-16
0
336
1392
1264
976
832
672
416
128
-176
-432
-672
-944
-1376
-1680
-960
-64
0
-16
-16
0
288
1344
1280
1008
848
688
432
144
-144
-400
-656
-912
-1344
-1664
-992
-80
-16
0
0
0
256
1344
1344
1040
864
704
448
160
-128
-384
-624
-864
-1264
-1600
-1024
-112
-16
-16
-16
-16
208
1280
1344
1024
848
688
432
176
-112
-368
-624
-864
-1248
-1616
-1104
-128
0
0
0
-16
160
1232
1360
1072
864
720
464
192
-80
-336
-576
-800
-1200
-1600
-1152
-160
0
0
-16
0
144
1184
1376
1056
864
736
480
208
-64
-320
-576
-800
-1184
-1584
-1200
-192
0
0
-16
-16
112
1136
1408
1072
880
752
496
224
-48
-304
-560
-768
-1152
-1584
-1248
-224
0
0
-16
-16
80
1088
1456
1120
912
784
544
240
-32
-288
-576
-800
-1184
-1616
-1328
-272
-16
-16
0
0
64
1040
1488
1120
912
768
512
240
-32
-288
-560
-784
-1152
-1584
-1376
-304
-16
-16
-16
-16
48
944
1472
1136
912
768
512
240
-16
-272
-528
-752
-1104
-1568
-1408
-352
-16
-16
0
-16
32
864
1456
1152
912
784
544
256
0
-256
-528
-752
-1072
-1552
-1456
-400
-16
-16
0
-16
16
784
1488
1168
912
768
544
256
-16
-272
-528
-752
-1056
-1504
-1440
-432
-16
-16
0
-16
16
704
1456
1184
928
800
576
256
-16
-288
-544
-752
-1040
-1520
-1552
-528
-16
0
0
-16
0
656
1488
1200
928
784
576
272
-16
-304
-560
-784
-1072
-1504
-1568
-592
-16
0
0
0
0
592
1488
1232
944
800
576
272
-16
-288
-528
-752
-1040
-1472
-1600
-656
-16
0
0
0
0
528
1488
1248
976
816
624
320
16
-272
-512
-736
-992
-1424
-1584
-704
-32
0
0
-16
0
464
1424
1248
976
832
640
352
64
-224
-464
-704
-976
-1376
-1552
-736
-32
0
-16
0
0
400
1424
-1328
-1616
-960
-80
0
0
0
0
256
1344
1328
1056
880
752
464
160
-144
-400
-672
-912
-1312
-1632
-1008
-96
-16
0
-16
0
208
1296
1360
1056
896
752
480
176
-128
-400
-688
-912
-1280
-1584
-1024
-112
-16
-16
0
0
176
1200
1344
1056
896
784
512
208
-80
-352
-608
-848
-1248
-1616
-1136
-144
-16
-16
-16
0
144
1184
1392
1088
912
768
512
208
-80
-368
-624
-848
-1216
-1600
-1184
-176
-16
-16
-16
-16
112
1072
1328
1056
880
768
528
224
-64
-336
-608
-848
-1232
-1616
-1248
-208
-16
-16
-16
-16
96
1056
1392
1072
880
768
512
224
-48
-336
-592
-800
-1168
-1600
-1312
-240
-16
0
-16
0
64
992
1392
1088
880
784
560
256
-32
-304
-576
-816
-1168
-1584
-1344
-288
0
0
0
0
48
944
1424
1104
896
784
544
256
-16
-288
-576
-800
-1136
-1552
-1392
-320
-16
0
0
-16
32
864
1408
1088
880
768
560
272
0
-272
-544
-768
-1120
-1552
-1472
-400
-16
0
0
-16
32
784
1408
1104
880
784
576
304
32
-256
-528
-752
-1072
-1504
-1456
-432
-16
0
-16
-16
16
736
1440
1120
880
752
560
288
48
-240
-496
-736
-1072
-1520
-1520
-496
-16
-16
0
0
0
656
1392
1120
880
768
576
304
48
-224
-480
-688
-992
-1424
-1456
-528
-16
0
0
-16
0
592
1392
1120
864
752
592
320
80
-192
-464
-704
-1008
-1456
-1520
-608
-16
0
-16
-16
0
544
1424
1168
896
736
560
304
48
-208
-464
-688
-960
-1392
-1552
-672
-32
0
0
-16
0
480
1376
1136
880
736
576
320
64
-192
-432
-672
-944
-1360
-1504
-688
-32
0
0
-16
0
416
1360
1168
896
768
592
336
80
-192
-416
-656
-912
-1344
-1568
-768
-48
-16
0
0
0
384
1376
1216
928
768
576
320
64
-192
-416
-640
-848
-1248
-1456
-768
-48
-16
0
0
0
304
1280
1184
928
784
624
368
112
-144
-368
-624
-864
-1280
-1552
-880
-64
-16
-16
-16
-16
272
1360
1296
976
784
608
336
96
-160
-384
-608
-832
-1232
-1552
-944
-80
-16
-16
0
0
224
1248
1264
992
816
672
384
112
-144
-352
-608
-848
-1248
-1584
-1024
-112
0
-16
-16
0
208
1280
1344
1008
816
672
400
128
-144
-384
-640
-848
-1200
-1552
-1008
-112
0
-16
-16
0
160
1184
1328
1024
816
656
384
112
-144
-368
-608
-800
-1152
-1504
-1040
-144
-16
0
-16
-16
128
1072
1280
1008
832
704
432
160
-112
-352
-592
-800
-1152
-1520
-1136
-176
-16
0
0
0
96
1072
1360
1056
848
720
464
176
-96
-352
-608
-816
-1168
-1552
-1232
-208
0
0
0
0
80
1008
1376
1088
896
768
512
208
-80
-336
-576
-800
-1152
-1552
-1264
-240
0
0
-16
0
64
976
1408
1104
912
800
560
240
-48
-320
-576
-800
-1136
-1552
-1328
-288
0
0
-16
-16
48
928
1440
1136
928
800
560
240
-48
-320
-560
-768
-1072
-1472
-1296
-304
-16
-16
-16
0
32
832
1408
1136
912
784
560
272
-32
-288
-544
-752
-1056
-1440
-1312
-352
-16
0
0
-16
32
800
1424
1136
912
800
560
272
-16
-288
-528
-720
-1008
-1408
-1360
-400
-16
-16
0
-16
16
720
1392
1104
880
752
560
272
0
-272
-512
-720
-1008
-1360
-1312
-416
-16
-16
-16
-16
0
640
1360
1104
880
768
576
288
32
-240
-480
-688
-976
-1392
-1424
-480
-16
-16
-16
0
0
560
1296
1072
864
768
592
320
64
-224
-480
-736
-1024
-1456
-1504
-576
-16
-16
-16
0
0
496
1280
1088
896
816
656
368
96
-208
-480
-768
-1072
-1504
-1584
-656
-16
-16
0
0
0
464
1328
1136
912
800
640
368
96
-208
-480
-752
-1056
-1504
-1648
-720
-32
0
0
-16
0
416
1344
1168
928
816
656
384
112
-192
-448
-736
-1024
-1456
-1648
-784
-48
-16
-16
-16
0
384
1376
1200
928
800
640
368
96
-192
-448
-720
-992
-1392
-1600
-816
-48
0
0
0
0
336
1328
1184
912
768
608
352
96
-192
-432
-672
-912
-1312
-1552
-864
-64
0
0
0
-16
288
1280
1184
928
768
640
384
128
-144
-384
-624
-848
-1248
-1520
-912
-80
0
0
-16
-16
240
1248
1216
944
784
640
416
160
-112
-352
-560
-784
-1200
-1568
-1024
-96
0
0
0
-16
208
1232
1280
992
816
688
448
176
-96
-336
-560
-768
-1184
-1520
-1024
-112
-16
-16
-16
-16
176
1200
1312
992
816
688
448
192
-64
-304
-560
-784
-1200
-1584
-1120
-144
-16
-16
0
0
144
1184
1360
1024
816
672
432
176
-80
-336
-592
-800
-1152
-1520
-1120
-160
-16
-16
-16
0
112
1104
1328
1024
816
688
448
192
-64
-288
-544
-720
-1072
-1472
-1168
-192
-16
-16
-16
-16
96
1056
1360
1024
816
672
448
192
-48
-304
-560
-768
-1120
-1536
-1248
-224
0
-16
0
0
64
976
1360
1056
832
688
464
192
-48
-272
-528
-720
-1056
-1488
-1280
-272
-16
-16
-16
0
48
912
1360
1024
816
704
464
192
-48
-304
-560
-768
-1072
-1488
-1296
-288
-16
0
0
-16
32
816
1328
1008
800
688
480
208
-48
-272
-528
-752
-1056
-1440
-1296
-336
-16
0
0
-16
32
768
1392
1072
848
720
496
224
-32
-256
-496
-672
-960
-1360
-1312
-384
-16
0
-16
-16
16
704
1376
1088
864
736
528
256
0
-240
-448
-640
-928
-1344
-1344
-432
-16
0
-16
-16
16
672
1424
1168
912
784
560
288
16
-224
-448
-656
-944
-1376
-1392
-480
-16
-16
0
-16
0
624
1424
1168
912
784
576
288
32
-224
-448
-672
-944
-1376
-1440
-528
-16
-16
0
0
0
544
1392
1168
912
800
592
304
48
-208
-464
-688
-944
-1344
-1424
-576
-16
-16
-16
-16
0
480
1376
1184
944
816
640
336
64
-208
-448
-688
-960
-1392
-1504
-656
-32
-16
0
0
0
432
1376
1216
976
832
640
352
64
-208
-432
-656
-912
-1344
-1552
-720
-32
-16
-16
-16
0
384
1360
1232
976
816
640
336
48
-240
-448
-688
-912
-1280
-1472
-720
-32
-16
-16
-16
0
336
1280
1168
912
768
624
352
64
-208
-432
-656
-864
-1200
-1456
-784
-48
0
-16
-16
0
288
1248
1200
928
800
672
400
112
-176
-400
-672
-912
-1264
-1488
-848
-64
0
0
0
0
240
1216
1200
944
784
656
400
128
-160
-384
-624
-816
-1184
-1472
-912
-80
0
0
-16
-16
208
1200
1232
976
832
704
432
160
-128
-368
-624
-880
-1264
-1584
-1024
-112
0
0
0
0
176
1184
1280
1008
832
704
448
176
-128
-368
-608
-832
-1216
-1536
-1040
-128
-16
-16
-16
-16
144
1136
1264
976
816
688
448
176
-96
-336
-560
-800
-1184
-1568
-1136
-160
-16
-16
-16
0
112
1072
1280
1024
864
752
512
224
-64
-336
-608
-832
-1216
-1584
-1184
-176
0
-16
-16
0
96
1040
1296
992
800
704
480
208
-48
-304
-560
-784
-1152
-1552
-1216
-208
0
0
0
0
80
960
1280
1008
816
720
512
240
-32
-304
-576
-784
-1152
-1568
-1280
-240
-16
0
0
0
64
928
1328
1024
816
720
496
240
-16
-288
-544
-752
-1120
-1520
-1296
-272
-16
0
0
0
48
864
1328
1024
816
704
512
240
0
-272
-528
-736
-1088
-1504
-1344
-320
-16
0
-16
-16
32
832
1392
1056
832
704
496
240
-16
-272
-528
-736
-1072
-1488
-1376
-384
-16
-16
-16
-16
16
768
1376
1072
848
720
528
256
16
-240
-512
-736
-1024
-1456
-1408
-416
-16
-16
-16
-16
16
704
1392
1088
848
720
512
256
16
-256
-496
-704
-992
-1424
-1440
-480
-16
0
0
0
0
640
1392
1104
848
720
528
272
32
-208
-448
-672
-960
-1392
-1424
-512
-16
-16
0
0
0
576
1408
1136
880
752
560
288
32
-224
-464
-688
-960
-1376
-1456
-560
-16
0
0
0
0
528
1376
1136
880
752
560
288
32
-208
-432
-656
-928
-1328
-1456
-624
-32
-16
-16
-16
0
448
1344
1152
912
784
624
336
64
-192
-432
-672
-928
-1344
-1536
-704
-32
-16
0
0
0
400
1344
1184
928
784
608
320
64
-208
-432
-672
-928
-1344
-1568
-768
-48
-16
-16
-16
0
352
1344
1232
944
784
608
352
64
-192
-400
-624
-864
-1280
-1520
-800
-48
-16
-16
0
0
304
1328
1232
944
800
624
352
80
-176
-416
-624
-848
-1232
-1504
-848
-64
0
0
0
0
272
1264
1232
960
800
640
384
112
-160
-384
-624
-848
-1216
-1472
-880
-80
0
0
-16
-16
224
1216
1232
960
800
672
416
128
-128
-368
-608
-848
-1216
-1536
-976
-96
0
0
-16
-16
192
1200
1280
992
832
688
432
160
-144
-384
-640
-848
-1200
-1520
-1024
-112
-16
0
0
-16
160
1184
1312
1024
832
704
448
176
-112
-352
-624
-832
-1168
-1488
-1040
-128
0
-16
0
0
128
1120
1296
1024
848
704
464
192
-96
-352
-592
-784
-1120
-1504
-1120
-160
-16
-16
-16
-16
112
1088
1344
1040
848
704
464
208
-64
-320
-560
-768
-1104
-1472
-1152
-192
0
0
0
-16
80
992
1328
1056
848
736
512
224
-48
-304
-560
-768
-1120
-1504
-1200
-224
-16
-16
-16
-16
64
944
1344
1056
864
736
512
240
-32
-288
-560
-784
-1136
-1552
-1296
-272
-16
0
-16
0
48
880
1344
1056
864
736
528
240
-32
-288
-544
-752
-1104
-1520
-1312
-304
-16
-16
0
0
32
832
1376
1072
864
752
528
240
-16
-288
-544
-768
-1072
-1488
-1344
-336
-16
0
-16
0
32
768
1344
1040
832
704
496
240
-16
-272
-512
-720
-1008
-1408
-1328
-384
-16
0
0
0
16
704
1344
1072
848
736
528
256
0
-272
-512
-704
-976
-1360
-1344
-432
-16
-16
-16
0
16
640
1312
1040
848
720
528
256
0
-256
-496
-688
-960
-1344
-1360
-464
-16
-16
-16
-16
0
560
1280
1040
832
736
576
304
64
-192
-448
-688
-1008
-1440
-1488
-560
-16
-16
-16
-16
0
528
1344
1104
880
784
592
304
48
-224
-480
-720
-1024
-1488
-1584
-624
-16
0
0
0
0
496
1376
1136
880
752
576
304
48
-224
-464
-704
-992
-1424
-1552
-688
-32
0
-16
-16
0
432
1360
1168
912
768
608
320
48
-224
-448
-688
-928
-1360
-1536
-720
-32
0
0
-16
0
384
1344
1168
896
752
592
336
80
-192
-432
-672
-912
-1328
-1552
-784
-48
-16
0
-16
0
320
1280
1168
912
768
608
336
80
-176
-400
-656
-896
-1296
-1536
-832
-64
0
0
-16
0
288
1248
1152
896
768
624
368
112
-160
-384
-640
-864
-1264
-1568
-912
-80
-16
0
-16
-16
240
1216
1184
912
768
640
400
144
-128
-368
-640
-896
-1296
-1584
-960
-96
-16
0
-16
-16
208
1232
1280
992
800
656
400
128
-144
-368
-592
-800
-1200
-1552
-1024
-112
-16
-16
0
-16
192
1200
1264
976
784
672
416
144
-144
-384
-608
-784
-1104
-1440
-1008
-128
-16
-16
0
0
144
1168
1296
976
784
672
448
176
-80
-320
-560
-768
-1120
-1440
-1040
-144
0
-16
0
-16
128
1104
1312
992
800
656
416
160
-80
-320
-528
-704
-1056
-1456
-1136
-176
0
0
0
0
96
992
1280
992
832
736
496
224
-32
-272
-528
-736
-1088
-1472
-1184
-224
0
0
-16
-16
80
992
1376
1056
848
736
496
224
-48
-288
-544
-768
-1120
-1520
-1264
-256
-16
0
-16
0
64
928
1376
1056
848
704
480
192
-64
-320
-576
-784
-1120
-1536
-1344
-288
-16
0
-16
0
48
880
1392
1072
832
704
464
192
-80
-336
-576
-784
-1088
-1456
-1296
-320
-16
0
0
0
32
816
1344
1024
800
672
464
192
-48
-304
-560
-768
-1056
-1472
-1344
-368
-16
0
0
0
16
736
1344
1056
816
704
496
208
-32
-288
-528
-736
-1008
-1392
-1312
-400
-16
-16
-16
-16
16
640
1280
1040
832
736
560
272
16
-240
-480
-720
-1008
-1408
-1376
-464
-16
-16
-16
-16
0
640
1360
1088
832
704
528
256
16
-240
-464
-672
-960
-1360
-1408
-496
-16
-16
-16
-16
0
560
1344
1120
896
752
576
304
48
-224
-432
-640
-912
-1344
-1424
-560
-16
0
0
0
0
528
1376
1152
912
768
592
320
48
-224
-448
-640
-880
-1280
-1440
-608
-16
0
0
-16
0
480
1360
1152
912
784
624
352
80
-176
-416
-624
-880
-1264
-1408
-640
-32
-16
-16
0
0
416
1344
1168
912
784
624
368
112
-160
-400
-624
-880
-1264
-1424
-688
-32
-16
-16
0
0
352
1280
1168
944
800
640
384
128
-144
-384
-608
-880
-1296
-1520
-800
-48
-16
-16
-16
0
304
1264
1184
944
800
640
0
0
-16
-16
208
1216
1248
960
800
672
432
160
-128
-384
-656
-880
-1264
-1568
-1008
-112
0
-16
0
0
176
1184
1280
992
816
656
416
160
-112
-352
-592
-800
-1168
-1568
-1088
-128
0
0
0
0
144
1120
1296
1024
848
704
448
176
-96
-320
-560
-752
-1120
-1504
-1120
-160
-16
-16
0
0
112
1104
1344
1040
848
704
448
192
-64
-304
-528
-704
-1040
-1456
-1136
-176
-16
-16
0
-16
96
1040
1344
1040
848
720
480
208
-64
-304
-560
-768
-1120
-1488
-1200
-224
0
-16
0
0
64
960
1328
1024
848
736
496
208
-48
-304
-544
-752
-1056
-1440
-1232
-256
-16
-16
-16
0
48
896
1328
1008
816
704
496
224
-32
-288
-544
-752
-1056
-1456
-1280
-288
-16
0
0
0
32
848
1344
1040
832
720
496
240
-32
-272
-512
-704
-1024
-1424
-1296
-320
-16
0
0
-16
32
768
1328
1040
832
736
528
256
-16
-272
-496
-704
-1008
-1424
-1344
-368
-16
0
0
-16
16
704
1328
1056
832
720
528
256
16
-240
-464
-672
-976
-1376
-1312
-400
-16
0
0
-16
16
640
1312
1040
832
720
544
272
0
-256
-512
-736
-1008
-1376
-1344
-448
-16
-16
-16
-16
0
576
1264
1008
800
720
528
272
32
-240
-480
-704
-992
-1392
-1440
-528
-16
-16
-16
-16
0
544
1344
1104
848
720
560
304
48
-224
-464
-704
-992
-1408
-1488
-592
-16
-16
-16
-16
0
480
1312
1104
864
768
608
320
64
-224
-464
-656
-912
-1344
-1504
-640
-32
0
0
-16
0
464
1392
1184
912
768
624
352
96
-192
-416
-640
-896
-1328
-1504
-688
-32
0
0
0
0
400
1360
1200
928
768
608
336
80
-192
-432
-640
-880
-1280
-1488
-736
-32
-16
-16
-16
0
352
1328
1184
896
736
592
336
96
-176
-416
-656
-864
-1232
-1456
-768
-48
-16
-16
-16
0
304
1264
1168
896
736
592
336
96
-160
-384
-624
-848
-1232
-1472
-832
-64
-16
-16
-16
0
256
1248
1216
928
768
608
352
96
-160
-384
-640
-848
-1216
-1504
-896
-80
-16
0
0
-16
208
1152
1184
928
768
640
384
128
-128
-352
-608
-832
-1216
-1536
-992
-96
-16
0
0
0
192
1184
1232
960
784
640
384
112
-144
-368
-624
-832
-1184
-1504
-1008
-112
-16
0
0
0
160
1120
1232
944
784
640
400
144
-112
-368
-624
-848
-1184
-1520
-1072
-144
0
0
0
0
128
1072
1248
944
784
656
416
160
-96
-336
-608
-848
-1200
-1520
-1120
-160
0
0
-16
-16
112
1040
1280
976
816
672
448
176
-80
-336
-592
-800
-1168
-1536
-1200
-208
-16
-16
-16
-16
80
992
1312
1024
832
704
464
192
-64
-304
-544
-736
-1088
-1472
-1216
-224
0
0
0
-16
64
960
1344
1040
832
704
480
208
-48
-288
-512
-688
-1008
-1392
-1200
-256
-16
-16
0
-16
48
896
1344
1056
848
752
512
224
-32
-288
-512
-720
-1040
-1472
-1296
-304
-16
-16
0
0
32
848
1392
1072
848
720
496
224
-16
-256
-512
-688
-1008
-1408
-1280
-320
-16
-16
-16
0
32
752
1312
1040
848
752
544
256
16
-240
-480
-688
-976
-1424
-1360
-384
-16
0
-16
-16
16
736
1392
1104
864
752
544
272
16
-240
-496
-720
-1008
-1424
-1376
-416
-16
-16
-16
-16
16
640
1344
1088
864
768
576
288
32
-240
-480
-720
-1024
-1440
-1456
-480
-16
0
0
-16
0
592
1360
1104
880
768
560
288
16
-256
-496
-752
-1040
-1456
-1504
-544
-16
-16
-16
-16
0
544
1344
1104
864
736
544
272
16
-240
-480
-720
-992
-1392
-1456
-592
-16
-16
0
0
0
480
1312
1088
864
736
560
304
32
-240
-464
-672
-912
-1312
-1472
-640
-32
0
-16
-16
0
432
1280
1088
848
736
560
320
48
-224
-448
-672
-928
-1280
-1424
-672
-32
0
0
-16
0
384
1280
1088
848
720
560
320
80
-192
-416
-656
-912
-1296
-1472
-736
-48
0
-16
-16
0
336
1248
1120
864
736
592
336
80
-176
-400
-656
-928
-1312
-1568
-832
-48
-16
0
0
0
288
1232
1136
880
736
608
352
112
-160
-384
-608
-864
-1248
-1520
-880
-64
-16
-16
0
0
240
1200
1200
944
800
656
400
128
-144
-368
-592
-832
-1248
-1568
-960
-80
-16
-16
-16
0
224
1232
1280
992
816
688
416
144
-128
-352
-544
-736
-1120
-1472
-976
-96
0
0
-16
0
192
1200
1280
1008
832
704
448
176
-112
-352
-576
-768
-1136
-1472
-1008
-112
0
0
0
-16
160
1200
1312
1008
816
688
448
192
-64
-320
-544
-736
-1088
-1456
-1024
-128
0
0
0
-16
128
1120
1312
1008
832
704
480
224
-32
-272
-512
-720
-1072
-1408
-1040
-160
-16
0
0
-16
112
1072
1328
1008
848
736
496
224
-32
-272
-544
-752
-1072
-1424
-1120
-192
-16
-16
0
0
80
1008
1328
1024
832
720
496
240
-16
-256
-496
-688
-1024
-1376
-1152
-224
-16
-16
-16
-16
64
928
1328
1040
848
736
496
208
-48
-304
-576
-768
-1088
-1456
-1248
-256
-16
0
-16
-16
48
848
1296
976
784
672
464
192
-48
-304
-544
-752
-1072
-1472
-1296
-304
-16
0
0
0
32
800
1328
1040
832
704
480
208
-48
-288
-544
-736
-1056
-1456
-1328
-336
-16
0
-16
0
16
768
1360
1072
848
720
512
240
-16
-256
-480
-672
-976
-1376
-1280
-368
-16
-16
-16
0
16
736
1424
1152
944
832
640
368
112
-128
-368
-576
-880
-1296
-1248
-384
-16
-16
0
0
16
752
1600
1344
1104
976
784
496
240
-16
-256
-496
-768
-1168
-1168
-384
-16
0
0
-16
0
688
1632
1392
1152
1040
864
592
352
80
-160
-368
-592
-992
-1040
-352
-16
0
0
-16
0
640
1696
1488
1232
1088
912
640
400
144
-80
-288
-560
-944
-1040
-384
-16
-16
0
0
0
544
1632
1456
1200
1056
880
592
352
96
-128
-304
-544
-960
-1120
-448
-16
-16
-16
-16
0
432
1472
1344
1104
960
800
512
256
0
-224
-464
-720
-1152
-1328
-576
-32
-16
-16
0
0
352
1344
1248
1008
848
704
400
112
-160
-400
-640
-864
-1280
-1472
-688
-32
-16
-16
-16
0
288
1280
1168
896
720
560
272
0
-272
-496
-736
-960
-1344
-1584
-784
-48
-16
0
0
0
240
1216
1152
864
672
512
240
-64
-336
-560
-800
-1008
-1360
-1600
-832
-48
0
-16
0
0
208
1152
1104
816
640
480
224
-64
-352
-576
-800
-1024
-1360
-1632
-912
-64
0
0
-16
0
160
1088
1104
816
640
496
240
-48
-320
-560
-784
-992
-1328
-1616
-976
-80
0
-16
0
0
128
1008
1088
800
624
496
224
-48
-320
-560
-816
-1024
-1344
-1632
-1056
-112
-16
0
0
-16
112
944
1040
752
576
448
208
-64
-320
-560
-816
-1040
-1408
-1760
-1216
-144
-16
0
0
0
80
880
1040
752
576
448
192
-80
-336
-576
-832
-1056
-1424
-1792
-1312
-176
-16
0
0
-16
64
832
1056
752
592
464
240
-48
-320
-576
-832
-1056
-1424
-1808
-1392
-224
-16
-16
-16
0
64
848
1136
816
608
496
272
0
-272
-512
-752
-960
-1312
-1680
-1376
-240
0
-16
-16
-16
48
816
1168
864
656
544
352
80
-192
-448
-688
-896
-1216
-1600
-1360
-288
-16
0
-16
-16
32
800
1216
912
688
576
368
128
-128
-384
-624
-832
-1136
-1552
-1392
-320
-16
0
-16
-16
32
736
1232
944
752
624
432
176
-80
-336
-576
-800
-1120
-1504
-1376
-368
-16
0
0
-16
16
704
1264
976
768
672
448
192
-64
-304
-560
-800
-1104
-1552
-1472
-432
-16
-16
-16
0
16
672
1312
1024
800
672
464
192
-48
-304
-560
-784
-1104
-1536
-1504
-480
-16
0
0
0
0
608
1328
1056
816
688
496
224
-48
-304
-544
-752
-1056
-1504
-1520
-544
-16
0
0
0
0
576
1360
1088
848
704
496
224
-16
-288
-528
-752
-1040
-1472
-1536
-576
-16
0
0
-16
0
528
1360
1120
864
720
528
256
0
-256
-480
-688
-928
-1328
-1424
-592
-16
-16
-16
-16
0
496
1408
1168
912
752
560
304
48
-208
-416
-624
-848
-1216
-1376
-608
-32
-16
-16
-16
0
448
1424
1232
960
816
640
368
128
-128
-336
-528
-752
-1120
-1280
-608
-32
0
-16
0
0
384
1424
1296
1040
880
720
448
192
-48
-272
-480
-720
-1120
-1328
-688
-48
-16
0
-16
0
336
1424
1344
1072
912
736
464
208
-64
-288
-528
-768
-1168
-1408
-736
-48
0
0
0
0
288
1376
1344
1072
896
736
448
176
-96
-336
-560
-800
-1184
-1424
-784
-64
-16
-16
-16
-16
240
1344
1328
1040
848
672
416
144
-144
-368
-592
-784
-1120
-1376
-784
-64
-16
-16
0
-16
192
1200
1264
992
832
704
464
208
-64
-288
-528
-736
-1072
-1360
-832
-80
0
0
0
-16
176
1248
1408
1120
928
784
544
304
48
-144
-368
-544
-896
-1232
-832
-96
0
0
-16
-16
144
1264
1552
1296
1152
1040
784
512
240
16
-240
-448
-800
-848
160
64
0
-16
-16
-16
128
1328
1680
1392
1216
1088
848
560
304
64
-192
-416
-752
-496
560
112
-16
-16
-16
-16
96
1280
1712
1392
1200
1072
816
512
208
-48
-320
-528
-864
-976
96
80
0
-16
-16
0
64
1056
1536
1232
1040
912
688
384
96
-176
-432
-656
-992
-1344
-640
0
0
0
0
0
48
896
1408
1088
880
752
528
224
-64
-320
-576
-784
-1136
-1824
-1440
-112
0
0
-16
0
16
704
1232
976
784
672
464
176
-96
-368
-608
-816
-1200
-1872
-1440
-96
0
0
-16
0
16
688
1280
976
752
640
416
144
-128
-384
-640
-864
-1200
-1776
-1584
-176
0
0
0
0
0
592
1200
944
752
640
432
144
-128
-400
-656
-880
-1216
-1840
-48
-352
0
-16
0
-16
0
528
1184
928
704
592
400
128
-144
-416
-672
-912
-1232
-1872
-256
-448
0
-16
0
-16
0
448
1104
896
704
608
448
160
-112
-400
-672
-944
-1264
-1856
-176
-448
0
0
-16
-16
0
448
1152
896
704
608
464
192
-64
-352
-624
-896
-1184
-1664
-1568
-256
0
-16
-16
0
0
464
1248
960
752
656
496
256
16
-272
-528
-784
-1088
-1504
-1200
-160
0
0
-16
-16
0
464
1344
1056
832
736
576
320
64
-208
-464
-704
-992
-1408
-1264
-240
0
-16
-16
0
0
416
1360
1136
896
784
624
368
128
-144
-384
-624
-912
-1344
-1536
-432
0
-16
0
0
0
320
1296
1152
928
800
672
432
160
-112
-368
-608
-864
-1312
-1904
-720
0
0
-16
0
0
240
1248
1200
960
816
672
432
192
-80
-336
-576
-816
-1264
-2000
-880
-16
0
0
0
-16
208
1232
1248
976
800
672
432
176
-80
-304
-528
-752
-1184
-1872
-912
-16
0
-16
-16
-16
192
1248
1312
1024
864
704
432
176
-80
-304
-528
-752
-1136
-1744
-896
-16
0
-16
-16
-16
176
1232
1344
1040
848
704
464
192
-80
-304
-528
-736
-1088
-1616
-928
-32
-16
0
0
0
144
1168
1344
1040
848
704
448
192
-64
-304
-544
-768
-1120
-1728
-1264
-64
-16
0
-16
0
112
1104
1360
1040
832
672
432
176
-96
-336
-576
-768
-1088
-1760
-1632
-144
-16
0
-16
0
80
976
1312
976
784
656
416
144
-112
-336
-592
-800
-1136
-1760
-1920
-240
0
0
0
0
64
928
1296
992
784
640
400
128
-128
-352
-608
-800
-1120
-1696
-1952
-336
0
-16
-16
-16
48
880
1312
992
768
640
400
128
-112
-352
-608
-816
-1136
-1584
-1744
-368
-16
-16
0
-16
32
832
1312
1008
784
656
432
160
-96
-336
-592
-800
-1104
-1520
-1536
-368
-16
0
-16
-16
32
800
1360
1056
816
672
432
160
-96
-336
-576
-768
-1088
-1504
-1440
-368
-16
0
-16
0
16
736
1344
1056
832
704
480
192
-64
-320
-544
-736
-1008
-1424
-1360
-368
-16
-16
-16
0
16
688
1360
1088
848
736
528
240
-32
-288
-528
-752
-1040
-1456
-1408
-416
-16
0
0
0
0
624
1344
1088
864
736
528
240
-16
-256
-496
-704
-992
-1408
-1424
-464
-16
-16
0
0
0
544
1296
1088
880
768
560
272
0
-256
-496
-704
-992
-1408
-1456
-528
-16
0
0
-16
0
512
1328
1120
896
752
560
272
0
-256
-480
-688
-976
-1408
-1520
-576
-16
0
0
-16
0
448
1312
1136
880
752
560
288
0
-256
-480
-704
-960
-1376
-1488
-624
-16
-16
-16
-16
0
416
1312
1136
896
752
592
288
0
-272
-512
-736
-976
-1376
-1552
-688
-32
-16
0
-16
0
368
1296
1136
880
752
576
304
16
-272
-512
224
1136
1072
832
688
560
304
32
-240
-496
-736
-992
-1376
-1664
-944
-64
0
-16
0
-16
192
1088
1072
816
672
544
288
16
-272
-512
-768
-1008
-1408
-1728
-944
-64
0
0
-16
-16
160
1040
1040
784
640
512
272
16
-272
-528
-800
-1056
-1456
-1760
-912
-48
-16
-16
-16
0
128
960
1008
704
544
400
144
-112
-400
-672
-960
-1216
-1616
-1920
-912
-32
0
0
-16
-16
96
816
800
496
336
208
0
-272
-544
-816
-1104
-1344
-1728
-1984
-832
0
0
-16
0
0
96
912
832
480
304
176
-32
-272
-528
-768
-1040
-1248
-1616
-1760
-512
48
0
0
-16
0
112
1040
896
496
352
256
64
-208
-464
-704
-960
-1168
-1520
-1616
-416
80
0
0
-16
-16
112
1280
1168
672
528
448
240
0
-240
-480
-720
-928
-1280
-1280
-256
112
0
-16
0
0
96
1504
1568
880
688
624
432
176
-96
-352
-624
-832
-1200
-1232
-448
96
0
0
0
-16
48
1232
1616
976
736
640
416
176
-64
-320
-592
-816
-1168
-1504
-1056
-32
0
-16
-16
-16
16
1008
1616
1040
800
688
496
240
0
-256
-496
-688
-992
-1296
-1008
-32
0
0
0
-16
-16
816
1680
1120
880
768
576
320
80
-144
-400
-624
-896
-1280
-1104
-64
0
0
0
-16
-16
784
1856
1264
976
848
672
416
192
-48
-256
-464
-704
-976
-800
-16
0
-16
-16
0
-16
784
16
1424
1120
1024
864
576
336
96
-128
-336
-592
-816
-752
-16
16
0
0
-16
-16
704
192
1584
1216
1088
928
656
384
112
-128
-352
-592
-832
-800
-48
16
-16
0
0
-16
512
128
1648
1248
1104
928
656
432
176
-48
-256
-496
-816
-896
-96
16
-16
-16
0
-16
352
1968
1664
1280
1136
976
688
416
160
-64
-304
-560
-1008
-1216
-224
16
0
0
-16
-16
208
1664
1568
1216
1072
912
624
368
112
-96
-336
-576
-1168
-1488
-368
16
0
-16
-16
-16
80
1360
1472
1184
1024
864
592
320
80
-128
-336
-576
-1296
-1728
-512
16
0
-16
-16
-16
48
1184
1440
1168
1024
864
576
304
48
-176
-400
-624
-1360
-1920
-624
16
0
0
-16
-16
16
1024
1376
1152
992
832
560
304
48
-176
-400
-608
-1376
-64
-768
16
-16
-16
-16
-16
16
960
1392
1184
1008
848
560
272
0
-240
-496
-736
-1472
-384
-976
0
0
0
0
-16
0
832
1296
1104
912
768
480
192
-96
-336
-576
-816
-1472
-544
-1184
-16
0
-16
-16
-16
0
720
1232
1040
848
720
448
144
-144
-400
-656
-880
-1424
-544
-1360
-32
-16
0
-16
0
0
704
1216
1008
816
704
448
160
-128
-384
-624
-832
-1280
-400
-1504
-64
0
-16
-16
0
0
688
1248
1024
864
752
528
240
-32
-288
-544
-752
-1184
-256
-1664
-96
0
-16
0
-16
16
768
1376
1136
960
848
592
288
0
-288
-560
-784
-1184
-192
-1840
-128
0
-16
0
0
16
784
1440
1168
960
832
608
320
32
-240
-528
-752
-1120
-2016
-1856
-160
0
0
0
-16
16
768
1456
1216
992
864
640
336
32
-240
-512
-720
-1072
-1824
-1856
-208
0
0
0
-16
16
736
1456
1184
944
832
640
368
96
-176
-432
-640
-960
-1600
-1808
-256
0
0
0
0
16
688
1456
1200
992
880
704
432
192
-64
-320
-544
-896
-1536
-1872
-336
0
-16
0
-16
0
672
1520
1280
1088
992
816
528
240
-48
-320
-560
-912
-1488
-1888
-400
0
-16
0
-16
0
656
1600
1360
1152
1072
880
592
320
32
-240
-512
-832
-1376
-1872
-496
0
-16
0
0
0
608
1696
1472
1232
1104
928
656
368
64
-224
-496
-784
-1280
-1936
-720
0
0
0
0
0
528
1616
1424
1200
1088
944
672
416
128
-144
-368
-672
-1136
-1968
-1056
-16
0
0
0
0
448
1600
1456
1200
1056
896
656
400
144
-112
-368
-656
-1120
-1840
-1152
-32
-16
-16
-16
0
368
1488
1408
1152
1040
880
624
368
112
-128
-416
-688
-1184
-1744
-1152
-48
0
0
-16
-16
304
1392
1392
1152
1024
864
592
320
48
-192
-464
-736
-1216
-1600
-1008
-64
-16
-16
-16
-16
272
1424
1424
1120
944
784
512
240
-32
-272
-528
-768
-1168
-1488
-880
-64
-16
0
-16
0
208
1312
1392
1088
912
752
480
208
-64
-304
-528
-736
-1136
-1488
-912
-80
-16
-16
-16
-16
176
1248
1376
1072
880
720
448
176
-96
-320
-528
-736
-1136
-1520
-992
-96
0
0
-16
0
144
1152
1328
1024
848
704
416
144
-128
-368
-624
-832
-1232
-1600
-1072
-128
0
-16
-16
0
96
1056
1296
992
800
672
384
80
-176
-416
-688
-912
-1296
-1664
-1168
-160
0
-16
0
0
80
1008
1312
960
736
608
320
16
-256
-496
-768
-992
-1344
-1696
-1248
-192
0
0
0
0
64
896
1232
896
688
560
320
16
-256
-496
-752
-944
-1280
-1696
-1376
-240
-16
-16
0
0
48
832
1232
896
688
560
304
0
-272
-512
-768
-976
-1328
-1728
-1440
-288
0
0
0
-16
32
736
1184
880
672
544
320
16
-272
-528
-784
-992
-1312
-1744
-1520
-352
-16
-16
0
0
16
656
1136
848
640
528
304
0
-272
-528
-800
-992
-1280
-1648
-1488
-368
-16
-16
-16
-16
16
608
1120
832
624
496
304
32
-240
-496
-736
-960
-1280
-1696
-1600
-464
-16
0
-16
-16
16
592
1168
928
704
576
368
80
-208
-480
-704
-912
-1216
-1664
-1680
-544
-16
0
-16
0
0
560
1216
960
736
624
448
160
-128
-416
-672
-912
-1216
-1648
-1664
-592
-16
0
-16
-16
0
544
1296
1056
816
688
496
208
-80
-368
-624
-848
-1168
-1632
-1680
-640
-16
0
0
0
0
512
1328
1104
864
736
544
272
-16
-304
-544
-752
-1024
-1456
-1584
-672
-32
-16
0
-16
0
464
1312
1120
880
752
592
320
48
-240
-496
-720
-992
-1424
-1568
-736
-32
-16
0
0
0
416
1344
1168
912
768
624
352
80
-208
-464
-688
-960
-1408
-1648
-832
-48
-16
0
0
0
368
1328
1184
928
784
640
368
96
-192
-448
-704
-944
-1376
-1616
-880
-64
-16
-16
-16
0
320
1296
1184
928
784
640
368
96
-192
-448
-720
-960
-1392
-1664
-960
-80
0
-16
0
0
272
1264
1216
944
800
656
400
128
-144
-384
-656
-912
-1328
-1632
-1024
-96
0
-16
-16
0
224
1232
1248
992
832
704
448
176
-96
-352
-624
-848
-1248
-1584
-1072
-112
0
-16
-16
-16
192
1168
1248
1008
864
752
512
224
-48
-320
-592
-832
-1232
-1616
-1152
-144
-16
0
-16
-16
176
1200
1328
1040
880
752
512
240
-48
-304
-560
-784
-1168
-1536
-1136
-160
-16
0
-16
0
144
1152
1360
1072
896
768
528
256
-32
-288
-544
-752
-1152
-1568
-1216
-192
-16
-16
0
0
112
1136
1424
1120
928
800
544
272
-16
-272
-512
-720
-1088
-1504
-1216
-224
0
-16
0
0
96
1072
1424
1104
912
784
560
272
0
-256
-512
-720
-1056
-1472
-1232
-256
-16
-16
0
0
64
992
1440
1120
928
816
576
288
32
-240
-496
-720
-1056
-1472
-1280
-288
-16
0
0
-16
48
912
1392
1088
880
768
544
288
32
-224
-480
-672
-992
-1408
-1280
-320
-16
0
-16
0
32
832
1408
1136
944
832
624
320
48
-208
-496
-720
-1056
-1488
-1408
-400
-16
0
-16
-16
32
800
1440
1152
928
816
608
336
64
-208
-480
-688
-1008
-1440
-1424
-448
-16
0
0
-16
16
736
1488
1200
960
832
624
336
64
-208
-480
-720
-1040
-1472
-1472
-512
-16
-16
-16
0
0
688
1488
1200
960
848
640
352
96
-176
-416
-640
-944
-1392
-1488
-560
-16
0
0
0
0
624
1488
1216
976
864
672
400
144
-128
-368
-592
-864
-1280
-1344
-544
-16
-16
-16
-16
0
560
1520
1280
1024
880
704
432
176
-64
-304
-528
-816
-1264
-1408
-608
-32
-16
-16
-16
0
480
1472
1312
1056
912
736
448
176
-80
-304
-512
-784
-1232
-1424
-672
-32
0
0
-16
0
432
1456
1312
1024
864
688
416
144
-128
-368
-576
-832
-1248
-1424
-704
-48
0
0
-16
0
368
1408
1296
992
832
656
384
112
-144
-352
-576
-816
-1248
-1488
-784
-48
0
0
0
0
304
1344
1280
1008
848
704
432
144
-128
-336
-544
-784
-1200
-1488
-880
-64
0
0
0
0
256
1312
1312
1040
880
736
480
176
-96
-352
-624
-848
-1248
-1552
-928
-80
-16
-16
0
-16
224
1328
1392
1088
896
752
480
208
-64
-320
-576
-784
-1216
-1568
-1008
-96
-16
-16
-16
-16
176
1264
1392
1104
912
768
512
208
-96
-352
-608
-816
-1216
-1568
-1072
-128
-16
-16
-16
-16
144
1232
1408
1088
880
720
464
192
-96
-368
-608
-816
-1184
-1552
-1104
-144
0
0
-16
-16
112
1136
1376
1056
848
688
432
160
-128
-368
-608
-800
-1152
-1536
-1168
-176
-16
0
0
0
80
1024
1344
1040
848
704
448
160
-128
-384
-640
-832
-1168
-1568
-1248
-208
0
0
0
0
64
944
1328
1024
816
688
448
160
-112
-368
-624
-816
-1152
-1584
-1328
-272
-16
-16
-16
0
48
880
1328
1040
848
736
496
192
-80
-352
-624
-832
-1168
-1616
-1408
-320
-16
-16
-16
-16
32
816
1328
1040
832
736
512
224
-48
-320
-576
-784
-1104
-1584
-1472
-368
-16
0
-16
-16
16
768
1360
1072
848
736
528
240
-48
-320
-592
-800
-1120
-1568
-1472
-416
-16
0
-16
-16
16
688
1328
1056
864
752
544
256
-32
-304
-592
-816
-1136
-1600
-1568
-496
-16
-16
-16
-16
0
640
1344
1072
848
736
528
240
-16
-288
-560
-816
-1120
-1568
-1584
-544
-16
-16
-16
-16
0
576
1360
1104
864
752
528
240
-32
-320
-576
-816
-1088
-1504
-1568
-592
-16
-16
-16
0
0
528
1344
1104
848
736
544
256
0
-288
-544
-784
-1056
-1456
-1568
-656
-16
0
0
0
0
480
1344
1120
864
736
544
256
-16
-304
-560
-800
-1072
-1456
-1584
-720
-32
-16
0
0
0
416
1328
1120
864
736
560
272
0
-304
-560
-816
-1056
-1440
-1616
-800
-48
0
0
-16
0
368
1280
1120
864
736
576
288
32
-240
-496
-752
-1008
-1408
-1664
-896
-64
0
-16
0
0
320
1296
1184
912
768
608
336
64
-224
-480
-752
-992
-1376
-1632
-928
-64
-16
-16
0
0
272
1280
1216
928
784
640
368
96
-160
-400
-656
-896
-1312
-1616
-976
-80
0
0
0
0
240
1248
1280
992
832
688
432
160
-112
-368
-624
-864
-1296
-1584
-1008
-112
0
-16
0
0
208
1248
1344
1040
864
720
448
176
-96
-336
-608
-832
-1232
-1568
-1024
-128
0
0
0
0
176
1216
1360
1072
896
768
496
224
-16
-256
-496
-720
-1104
-1472
-1072
-144
-16
-16
-16
0
144
1184
1408
1136
944
832
576
288
0
-240
-496
-704
-1072
-1456
-1088
-160
0
0
0
0
128
1200
1472
1184
944
832
592
304
48
-192
-400
-608
-960
-1360
-1072
-176
0
0
-16
-16
96
1120
1488
1200
992
880
640
352
80
-160
-384
-592
-928
-1312
-1072
-208
0
0
-16
-16
64
1056
1504
1216
992
880
656
368
96
-144
-400
-624
-944
-1360
-1120
-240
-16
-16
-16
-16
48
960
1504
1216
1024
912
688
400
144
-112
-384
-592
-944
-1392
-1264
-304
-16
-16
0
0
32
912
1552
1264
1024
912
688
384
112
-176
-448
-656
-992
-1424
-1280
-320
-16
0
0
-16
16
832
1536
1232
992
880
672
384
112
-160
-416
-624
-976
-1440
-1360
-384
-16
-16
-16
0
16
768
1552
1248
992
848
624
352
64
-192
-448
-640
-944
-1360
-1328
-400
-16
0
-16
-16
0
640
1456
1200
960
832
624
352
96
-176
-400
-592
-880
-1328
-1360
-464
-16
-16
-16
-16
0
592
1472
1264
1024
896
704
432
176
-80
-320
-560
-832
-1280
-1360
-512
-16
0
0
0
0
544
1536
1360
1136
1024
848
576
304
32
-224
-480
-768
-1216
-1296
-496
-16
0
0
0
0
512
1664
1520
1264
1136
960
688
432
160
-96
-320
-576
-1024
-1200
-496
-16
0
0
0
0
448
1712
1616
1344
1200
1040
768
496
208
-48
-272
-496
-896
-1072
-464
-16
0
0
0
0
368
1632
1600
1344
1184
1024
736
464
176
-48
-224
-432
-816
-1072
-512
-32
0
0
-16
-16
288
1488
1488
1232
1088
944
688
432
160
-80
-288
-528
-944
-1264
-672
-48
0
0
-16
-16
224
1392
1472
1200
1056
896
608
320
32
-224
-480
-720
-1104
-1424
-784
-48
-16
-16
-16
0
176
1216
1328
1136
1056
992
768
496
192
-128
-464
-800
-1344
-1872
928
816
560
304
32
-224
-528
-800
-1248
-1696
-1280
-176
0
0
0
-16
64
928
1344
1072
896
768
512
224
-48
-288
-560
-784
-1152
-1536
-1184
-192
0
0
0
-16
48
896
1328
1024
848
752
512
240
-32
-288
-560
-768
-1104
-1536
-1264
-224
-16
0
-16
0
32
864
1392
1088
896
784
544
256
-16
-272
-528
-704
-1008
-1392
-1168
-224
-16
0
-16
-16
32
816
1424
1120
912
800
576
304
48
-208
-464
-656
-944
-1328
-1184
-272
-16
-16
-16
0
16
736
1408
1136
928
832
624
368
112
-128
-384
-576
-880
-1296
-1216
-320
-16
0
-16
-16
0
672
1456
1200
976
864
656
384
128
-128
-384
-592
-896
-1312
-1264
-352
-16
0
0
0
0
624
1440
1184
960
864
640
336
80
-176
-416
-640
-928
-1360
-1360
-416
-16
0
0
0
0
528
1360
1136
896
768
576
272
0
-272
-512
-720
-1008
-1424
-1424
-480
-16
0
-16
-16
0
448
1280
1072
816
688
480
176
-80
-336
-560
-768
-1008
-1424
-1504
-560
-16
-16
-16
-16
0
368
1184
1024
784
688
512
224
-32
-288
-512
-704
-960
-1360
-1472
-592
-16
-16
-16
-16
0
336
1280
1168
912
784
624
352
96
-160
-400
-608
-864
-1248
-1376
-576
-16
-16
0
0
0
320
1360
1312
1040
912
768
496
240
-32
-240
-464
-688
-1104
-1296
-576
-32
0
0
0
0
288
1424
1424
1184
1056
896
608
352
80
-144
-368
-608
-992
-1216
-576
-32
-16
0
0
0
256
1424
1504
1232
1088
960
672
400
112
-128
-384
-624
-1040
-1312
-688
-48
-16
-16
0
0
208
1344
1472
1200
1056
912
624
336
48
-224
-480
-720
-1120
-1424
-816
-64
-16
-16
-16
0
160
1248
1408
1104
912
784
512
240
-64
-320
-592
-832
-1232
-1552
-928
-80
0
-16
-16
-16
112
1104
1296
1008
816
704
432
144
-144
-416
-688
-912
-1312
-1664
-1040
-96
0
0
0
0
80
976
1200
896
688
560
304
32
-240
-496
-736
-944
-1328
-1712
-1152
-128
-16
0
0
-16
64
816
1072
816
624
512
240
-48
-320
-576
-848
-1072
-1440
-1824
-1312
-176
-16
-16
-16
-16
48
736
1024
736
512
400
160
-128
-400
-672
-944
-1152
-1504
-1888
-1440
-224
-16
0
0
-16
32
656
944
656
448
320
80
-192
-464
-720
-992
-1200
-1536
-1920
-1552
-288
0
-16
-16
-16
16
608
960
672
480
368
144
-128
-400
-672
-912
-1120
-1440
-1856
-1584
-320
-16
0
-16
0
16
624
1056
800
624
512
320
48
-208
-448
-688
-864
-1168
-1600
-1456
-352
-16
-16
-16
-16
16
672
1312
1088
912
832
640
368
112
-144
-400
-624
-960
-1424
-1344
-352
-16
-16
-16
0
16
736
1568
1344
1152
1072
880
608
352
80
-192
-432
-768
-1264
-1280
-384
-16
-16
-16
-16
0
672
1600
1408
1232
1136
960
656
384
96
-192
-448
-800
-1280
-1344
-448
-16
-16
-16
0
0
592
1488
1264
1040
928
736
432
144
-160
-448
-704
-1024
-1520
-1648
-624
-16
0
0
0
0
416
1184
960
736
624
416
128
-128
-416
-688
-928
-1232
-1712
-1840
-768
-32
0
0
-16
0
304
976
768
528
400
208
-80
-352
-640
-912
-1152
-1424
-1888
-16
-960
-48
-16
0
-16
0
240
816
624
416
320
144
-112
-352
-624
-880
-1136
-1408
-1856
-16
-1056
-64
0
0
0
0
208
848
704
496
416
288
32
-208
-464
-720
-1008
-1280
-1696
-1904
-1040
-64
-16
-16
-16
0
240
1040
992
784
704
608
352
112
-144
-384
-672
-944
-1408
-1680
-960
-80
0
-16
0
0
272
1360
1360
1104
976
848
608
352
96
-128
-368
-608
-1024
-1296
-800
-80
-16
-16
0
0
272
1488
1568
1328
1184
1056
800
528
272
48
-192
-400
-784
-1104
-720
-80
-16
-16
0
0
240
1536
1696
1408
1232
1088
832
576
320
80
-144
-352
-704
-1040
-752
-96
0
-16
-16
-16
176
1312
1520
1216
1040
848
496
192
-64
-240
-384
-480
-688
-816
-448
-48
0
0
0
-16
128
1248
1376
912
608
400
96
-224
-480
-672
-832
-928
-1136
-1312
-832
-112
-16
0
-16
-16
96
992
1088
592
272
80
-224
-528
-800
-1008
-1184
-1296
-1504
-1664
-1104
-176
-16
-16
-16
0
64
800
880
384
32
-160
-432
-720
-1008
-1232
-1456
-1616
-1872
-128
-1648
-288
-16
0
-16
0
32
544
608
208
-80
-208
-448
-720
-992
-1248
-1488
-1680
-2000
-368
-16
-448
-16
-16
-16
0
16
416
544
208
-16
-144
-384
-656
-944
-1200
-1456
-1664
-1952
-304
-32
-512
-16
0
0
-16
16
352
512
192
-16
-96
-304
-592
-848
-1120
-1360
-1568
-1872
-256
-96
-624
-16
0
0
-16
16
432
704
384
160
48
-160
-432
-688
-944
-1200
-1408
-1744
-128
-48
-720
-16
0
0
-16
0
368
624
320
80
-48
-256
-560
-848
-1120
-1392
-1632
-1952
-336
-320
-944
-32
0
0
0
0
256
448
144
-96
-224
-416
-704
-960
-1232
-1472
-1664
-1952
-336
-400
-1104
-48
-16
-16
-16
0
320
608
304
48
-80
-272
-528
-784
-1056
-1280
-1472
-1696
-32
-96
-1024
-48
0
-16
-16
0
416
864
576
352
240
64
-192
-432
-688
-912
-1104
-1344
-1728
-1856
-960
-64
-16
-16
-16
0
560
1248
992
752
640
480
224
-16
-272
-480
-704
-928
-1312
-1456
-816
-64
0
0
0
0
672
1600
1376
1152
1024
864
592
352
96
-144
-368
-592
-976
-1184
-688
-64
0
0
0
0
672
1840
1680
1440
1312
1152
896
640
384
160
-64
-288
-672
-912
-544
-48
0
0
0
0
656
16
1968
1712
1552
1408
1152
896
624
400
144
-96
-480
-672
-160
16
-16
-16
0
0
608
144
112
1888
1728
1600
1328
1040
768
528
288
48
-336
-544
144
48
-16
0
-16
0
480
2032
2032
1744
1568
1424
1152
864
576
336
96
-128
-496
-608
256
64
-16
-16
0
0
352
1792
1840
1520
1328
1184
912
624
336
96
-144
-352
-736
-864
64
48
-16
-16
-16
-16
240
1488
1584
1264
1056
912
640
352
80
-176
-432
-640
-1040
-1280
-464
0
-16
-16
-16
-16
160
1280
1392
1056
848
704
432
128
-144
-400
-688
-912
-1264
-1552
-784
-32
0
0
0
0
128
1136
1312
944
720
576
320
32
-240
-496
-768
-976
-1344
-1760
-1088
-48
0
-16
0
0
96
1040
1264
896
688
544
272
-32
-304
-544
-784
-976
-1296
-1680
-1104
-64
0
0
-16
-16
64
1008
1280
912
688
560
320
32
-224
-464
-688
-864
-1168
-1568
-1120
-80
0
-16
-16
0
48
976
1392
1024
816
688
432
160
-80
-304
-512
-704
-992
-1408
-1152
-112
0
0
-16
-16
32
896
1488
1184
976
880
656
368
112
-128
-352
-528
-816
-1296
-1248
-160
0
0
0
0
16
848
1616
1344
1136
1040
832
544
304
48
-176
-400
-688
-1216
-1408
-224
0
-16
-16
0
16
768
1712
1472
1248
1152
960
672
416
160
-64
-272
-560
-1120
-1552
-320
0
0
0
0
0
672
1680
1488
1280
1184
992
704
432
160
-80
-320
-640
-1216
-1840
-464
0
-16
-16
0
0
624
1664
1472
1232
1104
912
640
368
80
-160
-352
-672
-1232
-2032
-656
0
0
0
-16
0
528
1520
1344
1120
1008
816
512
224
-64
-304
-544
-864
-1376
-112
-928
-16
0
0
-16
0
448
1408
1216
976
864
704
416
128
-160
-432
-656
-944
-1424
-64
-1152
-32
0
-16
-16
0
384
1344
1200
960
848
688
416
160
-112
-352
-576
-816
-1232
-1760
-1088
-48
0
0
0
0
352
1424
1360
1136
1008
880
624
368
96
-160
-400
-656
-1056
-1440
-928
-48
0
-16
-16
0
336
1584
1584
1328
1200
1072
816
576
320
64
-144
-384
-800
-1136
-704
-48
0
-16
-16
0
304
1632
1712
1440
1264
1136
880
624
336
80
-176
-416
-816
-1104
-624
-48
0
0
-16
0
240
1520
1616
1328
1168
1040
768
496
224
-48
-304
-528
-912
-1232
-736
-64
-16
-16
-16
0
176
1312
1440
1136
976
848
608
336
64
-192
-464
-688
-1056
-1344
-832
-80
-16
-16
0
-16
128
1184
1408
1088
912
784
544
272
16
-224
-480
-704
-1088
-1440
-944
-96
-16
-16
0
0
96
1104
1408
1136
960
832
592
336
80
-176
-416
-624
-1024
-1424
-1008
-112
0
-16
-16
-16
80
1088
1504
1200
976
848
624
352
80
-160
-416
-624
-1008
-1424
-1040
-144
0
-16
-16
-16
64
1008
1504
1216
1008
896
656
368
96
-160
-416
-640
-1008
-1440
-1104
-160
0
0
0
0
48
912
1472
1168
960
832
608
336
80
-192
-448
-672
-1040
-1488
-1216
-208
-16
0
0
0
32
816
1440
1200
1008
896
688
400
128
-144
-400
-624
-992
-1472
-1280
-256
-16
0
0
0
16
768
1520
1296
1104
1024
816
544
288
0
-256
-480
-848
-1360
-1264
-272
-16
0
0
0
16
720
1568
1392
1216
1120
912
624
352
80
-208
-448
-816
-1328
-1296
-320
-16
0
-16
0
0
640
1536
1344
1152
1056
864
576
320
48
-224
-464
-816
-1312
-1344
-368
-16
-16
0
0
0
560
1472
1280
1072
960
736
464
192
-64
-336
-560
-880
-1328
-1376
-416
-16
-16
-16
-16
0
464
1360
1168
944
816
624
320
48
-224
-480
-720
-1008
-1440
-1504
-512
-16
-16
-16
-16
0
384
1248
1072
832
720
528
240
-32
-304
-576
-800
-1072
-1504
-1648
-624
-16
-16
-16
-16
0
336
1184
1040
800
656
464
176
-112
-384
-640
-880
-1136
-1536
-1680
-704
-32
-16
0
0
0
272
1088
960
720
592
432
144
-128
-416
-672
-912
-1152
-1568
-1760
-784
-32
0
0
0
-16
224
1040
928
688
560
400
128
-144
-432
-656
-896
-1152
-1536
-1728
-848
-48
-16
0
-16
0
208
1040
960
704
560
416
144
-128
-416
-640
-880
-1120
-1472
-1696
-896
-64
0
-16
-16
0
176
992
960
704
592
448
192
-64
-336
-576
-816
-1056
-1408
-1664
-944
-64
-16
0
-16
-16
144
992
1024
752
624
496
240
0
-272
-512
-752
-1008
-1392
-1680
-1040
-96
-16
0
-16
-16
128
976
1056
800
688
576
320
48
-224
-480
-720
-944
-1328
-1648
-1072
-112
0
-16
-16
-16
112
976
1136
864
704
608
368
112
-160
-416
-672
-912
-1312
-1664
-1152
-144
0
0
0
0
96
976
1200
912
752
656
400
112
-144
-416
-688
-928
-1296
-1664
-1184
-160
-16
-16
-16
-16
80
944
1232
944
752
656
416
160
-96
-352
-608
-816
-1184
-1584
-1216
-192
-16
0
-16
-16
64
912
1264
992
800
704
464
192
-64
-304
-560
-768
-1120
-1536
-1248
-224
-16
0
0
0
48
864
1296
1008
800
704
496
208
-48
-288
-544
-752
-1088
-1520
-1280
-256
-16
-16
-16
0
32
816
1328
1040
816
704
464
192
-64
-320
-528
-720
-1040
-1472
-1328
-304
-16
0
0
0
32
736
1280
1008
784
656
448
160
-112
-368
-608
-784
-1088
-1504
-1376
-352
-16
-16
0
0
16
656
1200
928
704
608
400
144
-96
-336
-560
-752
-1056
-1488
-1472
-432
-16
0
-16
0
0
576
1152
896
688
608
432
192
-80
-336
-560
-768
-1056
-1488
-1488
-496
-16
0
-16
-16
0
528
1168
928
720
640
448
176
-64
-304
-560
-768
-1072
-1520
-1584
-576
-16
0
-16
0
0
512
1232
1008
784
672
496
224
-48
-304
-560
-784
-1072
-1520
-1600
-640
-16
0
-16
-16
0
480
1280
1088
848
736
544
256
-16
-288
-544
-768
-1040
-1440
-1536
-656
-32
0
0
0
0
448
1296
1120
880
768
576
304
48
-224
-464
-704
-976
-1376
-1536
-704
-32
-16
-16
0
0
400
1328
1168
912
784
608
336
80
-192
-448
-688
-944
-1344
-1536
-768
-48
-16
-16
0
0
352
1312
1168
912
768
608
336
80
-192
-432
-656
-896
-1296
-1552
-832
-48
-16
0
-16
0
320
1312
1200
928
752
608
320
48
-208
-448
-688
-928
-1312
-1552
-880
-64
-16
-16
-16
-16
256
1248
1184
912
752
608
336
64
-208
-432
-672
-880
-1264
-1536
-928
-80
0
0
-16
-16
224
1184
1184
912
736
592
320
48
-208
-448
-672
-896
-1264
-1584
-1024
-112
0
-16
-16
-16
192
1168
1216
928
752
624
352
64
-208
-448
-704
-912
-1280
-1600
-1072
-128
0
0
0
0
160
1136
1248
960
784
672
416
128
-144
-400
-640
-848
-1216
-1568
-1104
-144
0
0
-16
0
128
1136
1312
1008
816
688
448
176
-96
-320
-576
-800
-1136
-1488
-1088
-176
-16
-16
0
-16
96
1008
1264
992
816
704
480
224
-32
-272
-512
-720
-1072
-1472
-1184
-208
-16
0
160
-96
-304
-480
-784
-1184
-1056
-256
-16
0
-16
0
32
944
1616
1312
1104
992
784
496
240
0
-224
-400
-688
-1056
-976
-256
-16
0
0
0
32
880
1632
1328
1136
1024
816
528
272
32
-192
-384
-656
-1056
-1024
-288
-16
-16
-16
0
16
784
1632
1360
1120
1024
832
544
288
32
-192
-384
-672
-1104
-1104
-336
-16
0
0
-16
0
688
1584
1328
1104
976
784
512
240
-16
-272
-496
-784
-1184
-1200
-400
-16
-16
0
-16
0
576
1488
1232
992
880
688
416
160
-112
-368
-576
-832
-1216
-1264
-432
-16
-16
-16
-16
0
480
1360
1152
912
816
624
368
112
-144
-384
-624
-880
-1264
-1328
-512
-16
0
0
0
0
400
1296
1120
880
752
592
336
80
-176
-416
-640
-896
-1296
-1424
-592
-16
-16
-16
0
0
352
1264
1136
896
784
624
352
112
-160
-384
-592
-848
-1280
-1488
-688
-32
-16
-16
-16
0
304
1296
1200
944
800
640
368
112
-160
-400
-624
-880
-1280
-1488
-704
-32
-16
-16
-16
-16
272
1264
1216
944
784
624
352
80
-192
-416
-640
-864
-1248
-1520
-784
-48
-16
-16
0
-16
224
1200
1168
880
736
576
304
48
-224
-464
-720
-944
-1280
-1504
-832
-64
0
0
-16
0
176
1120
1120
816
672
528
272
0
-256
-480
-736
-960
-1312
-1584
-944
-80
-16
0
0
0
144
1024
1088
816
656
544
288
32
-224
-464
-704
-912
-1296
-1632
-1056
-96
-16
-16
-16
0
128
1040
1168
864
672
560
288
16
-256
-480
-720
-928
-1280
-1600
-1072
-128
-16
0
-16
-16
96
976
1152
864
688
576
320
64
-176
-416
-640
-832
-1184
-1536
-1072
-144
-16
0
0
0
80
944
1216
912
720
608
384
128
-128
-352
-608
-832
-1216
-1584
-1184
-176
0
0
0
0
64
896
1264
992
800
704
432
160
-96
-336
-592
-784
-1152
-1568
-1248
-208
-16
-16
-16
0
48
864
1280
1024
832
720
496
224
-32
-288
-528
-736
-1104
-1536
-1296
-240
-16
-16
-16
-16
32
848
1376
1104
880
768
528
240
-32
-288
-512
-720
-1056
-1488
-1312
-288
-16
-16
-16
-16
32
816
1392
1120
896
800
576
288
0
-272
-496
-688
-976
-1408
-1296
-320
-16
-16
-16
-16
16
752
1408
1120
896
784
592
288
16
-240
-512
-720
-992
-1376
-1296
-352
-16
0
0
-16
16
672
1376
1120
912
800
608
320
48
-208
-480
-704
-976
-1376
-1328
-400
-16
-16
0
0
0
608
1392
1136
912
784
576
320
64
-208
-464
-672
-960
-1360
-1392
-448
-16
-16
0
0
0
528
1344
1136
912
784
576
304
32
-240
-464
-688
-960
-1344
-1392
-512
-16
-16
0
0
0
480
1344
1120
896
768
576
288
32
-240
-480
-704
-960
-1360
-1456
-560
-16
0
-16
0
0
416
1280
1120
896
768
592
304
32
-240
-464
-688
-944
-1360
-1472
-624
-32
0
0
-16
0
368
1280
1152
912
784
608
320
32
-240
-496
-720
-960
-1376
-1504
-672
-32
0
-16
-16
0
320
1264
1152
912
784
624
352
80
-192
-416
-624
-880
-1296
-1536
-768
-48
0
0
0
0
288
1280
1184
928
784
640
368
96
-192
-432
-672
-944
-1344
-1552
-800
-48
-16
0
0
-16
240
1216
1184
928
800
656
368
96
-192
-432
-688
-944
-1344
-1616
-896
-64
0
-16
0
-16
208
1152
1168
896
752
624
384
112
-176
-432
-720
-976
-1360
-1616
-944
-80
-16
-16
0
0
160
1120
1184
896
768
640
368
96
-176
-432
-720
-960
-1344
-1632
-1024
-96
0
-16
-16
0
128
1056
1168
880
736
608
368
112
-144
-400
-672
-896
-1280
-1632
-1104
-128
-16
0
-16
-16
112
1008
1184
896
736
640
384
128
-128
-368
-624
-864
-1232
-1584
-1152
-160
0
0
0
0
96
960
1200
912
752
656
416
144
-96
-352
-592
-816
-1184
-1568
-1184
-176
-16
0
-16
-16
64
928
1232
944
768
672
432
176
-64
-304
-560
-784
-1152
-1536
-1216
-208
0
0
-16
-16
48
880
1248
960
784
688
464
208
-48
-288
-528
-736
-1104
-1520
-1264
-256
-16
-16
-16
-16
48
832
1264
992
784
704
496
224
-16
-272
-512
-736
-1088
-1536
-1344
-304
-16
0
0
0
32
784
1312
1024
800
720
512
256
-16
-272
-512
-720
-1056
-1472
-1328
-320
-16
-16
0
0
16
752
1360
1056
816
720
512
256
16
-240
-448
-640
-944
-1392
-1328
-368
-16
0
0
0
16
720
1392
1120
864
752
560
288
32
-208
-416
-576
-864
-1312
-1328
-416
-16
-16
-16
-16
0
672
1456
1168
896
768
560
304
48
-208
-416
-560
-816
-1232
-1264
-432
-16
0
0
-16
0
608
1440
1184
912
752
560
304
64
-176
-384
-528
-784
-1216
-1312
-480
-16
-16
-16
-16
0
528
1392
1168
928
784
608
336
64
-176
-400
-608
-864
-1280
-1392
-560
-16
-16
-16
0
0
464
1408
1184
928
784
608
320
80
-176
-432
-640
-880
-1280
-1408
-592
-16
-16
-16
-16
0
400
1376
1200
928
784
608
336
64
-192
-416
-640
-880
-1296
-1456
-656
-32
-16
-16
-16
0
336
1312
1216
960
816
640
352
80
-192
-416
-656
-896
-1312
-1504
-752
-48
-16
-16
0
0
288
1280
1216
944
784
624
352
80
-192
-416
-640
-848
-1232
-1504
-784
-48
0
0
0
0
240
1232
1216
960
800
656
368
96
-160
-400
-656
-880
-1264
-1536
-864
-64
0
0
0
-16
208
1200
1232
976
816
672
400
112
-160
-384
-608
-832
-1200
-1520
-912
-80
0
0
0
0
176
1168
1248
976
800
672
400
128
-144
-384
-608
-816
-1168
-1472
-928
-96
0
-16
-16
-16
144
1104
1264
992
816
688
432
144
-128
-368
-608
-816
-1168
-1488
-992
-112
0
-16
-16
-16
112
1072
1264
992
816
704
432
160
-128
-368
-608
-800
-1120
-1488
-1040
-144
-16
-16
-16
-16
96
1008
1264
992
816
704
448
176
-112
-352
-608
-800
-1104
-1472
-1088
-160
0
0
-16
-16
80
960
1296
1008
832
720
464
192
-80
-336
-576
-768
-1088
-1488
-1168
-192
-16
0
-16
-16
48
880
1280
1008
848
736
496
224
-48
-320
-544
-752
-1088
-1488
-1232
-240
-16
-16
-16
-16
48
848
1328
1040
848
752
512
240
-16
-304
-560
-768
-1120
-1520
-1296
-272
-16
-16
-16
0
32
784
1344
1056
848
752
528
256
0
-288
-544
-768
-1104
-1536
-1360
-320
-16
-16
-16
0
16
752
1360
1072
848
752
528
256
0
-288
-544
-768
-1088
-1488
-1376
-368
-16
-16
0
-16
16
688
1344
1088
864
768
544
272
0
-272
-512
-736
-1024
-1424
-1392
-416
-16
0
0
-16
0
624
1344
1104
880
768
576
288
32
-240
-480
-672
-960
-1392
-1408
-464
-16
-16
0
-16
0
560
1344
1120
896
784
576
304
48
-240
-480
-688
-976
-1392
-1408
-496
-16
-16
0
0
0
496
1312
1104
880
768
608
336
80
-192
-448
-656
-928
-1360
-1456
-560
-16
0
0
0
0
448
1312
1136
896
784
608
336
64
-192
-448
-672
-960
-1376
-1488
-624
-16
0
-16
-16
0
400
1312
1136
880
768
608
336
80
-192
-432
-656
-928
-1344
-1504
-688
-32
0
-16
-16
0
336
1264
1136
896
784
624
368
112
-160
-400
-624
-896
-1328
-1552
-768
-48
0
-16
0
0
288
1264
1168
912
784
624
368
112
-144
-400
-640
-880
-1312
-1552
-800
-48
0
-16
-16
-16
240
1200
1184
928
800
656
384
128
-128
-368
-608
-848
-1280
-1568
-880
-64
-16
-16
0
-16
208
1200
1216
928
784
640
384
112
-144
-400
-656
-912
-1312
-1584
-928
-80
-16
-16
-16
-16
192
1168
1200
928
768
624
368
112
-144
-368
-624
-848
-1216
-1536
-976
-96
-16
-16
-16
0
160
1120
1216
944
784
656
400
144
-128
-352
-592
-800
-1152
-1504
-1008
-112
-16
0
0
0
128
1088
1232
960
768
672
432
176
-80
-320
-560
-752
-1104
-1488
-1072
-144
0
0
0
0
96
1040
1264
992
800
704
480
208
-48
-288
-512
-704
-1056
-1488
-1136
-176
0
0
0
0
80
1008
1328
1040
832
736
496
224
-48
-288
-512
-704
-1088
-1520
-1216
-208
0
0
-16
0
64
944
1360
1056
848
736
496
224
-32
-288
-528
-720
-1088
-1520
-1248
-240
-16
0
0
-16
48
896
1408
1104
880
752
512
224
-48
-304
-544
-736
-1088
-1520
-1328
-288
-16
-16
-16
-16
32
848
1424
1120
896
768
528
240
-32
-288
-528
-704
-1024
-1472
-1344
-320
-16
0
0
-16
16
768
1408
1120
880
736
496
192
-64
-320
-560
-736
-1040
-1472
-1376
-368
-16
0
-16
0
16
704
1376
1088
848
736
512
208
-64
-320
-544
-720
-992
-1408
-1392
-416
-16
-16
0
0
0
624
1360
1088
848
736
528
240
-32
-288
-544
-752
-1024
-1424
-1408
-464
-16
0
-16
-16
0
560
1328
1088
864
752
544
256
0
-272
-528
-768
-1040
-1456
-1472
-528
-16
-16
-16
-16
0
496
1312
1104
880
752
576
304
32
-240
-480
-688
-944
-1376
-1472
-576
-16
-16
-16
0
0
448
1344
1152
912
784
608
320
64
-208
-448
-656
-912
-1328
-1472
-624
-32
-16
0
0
0
400
1328
1184
928
784
608
336
64
-208
-448
-640
-864
-1264
-1456
-656
-32
-16
-16
-16
0
352
1344
1216
944
800
624
336
80
-192
-432
-640
-848
-1216
-1424
-704
-32
0
-16
-16
0
288
1248
1168
912
800
656
384
112
-176
-416
-656
-864
-1232
-1456
-768
-48
0
0
-16
0
256
1248
1200
944
800
656
384
128
-144
-400
-624
-848
-1232
-1488
-848
-64
0
-16
0
0
208
1184
1184
928
800
672
416
160
-128
-368
-592
-816
-1184
-1504
-912
-80
0
0
-16
0
176
1168
1248
976
816
672
416
144
-128
-368
-608
-848
-1200
-1488
-944
-96
0
0
-16
-16
144
1104
1232
960
784
672
416
160
-112
-352
-624
-848
-1168
-1488
-992
-112
-16
-16
-16
-16
112
1056
1248
960
800
688
432
160
-96
-352
-608
-832
-1184
-1520
-1056
-144
-16
0
0
0
96
1008
1264
960
800
688
432
176
-80
-352
-624
-848
-1184
-1536
-1120
-160
0
-16
0
-16
80
960
1264
976
784
688
448
192
-64
-320
-576
-784
-1120
-1520
-1184
-192
0
0
0
-16
64
912
1280
992
784
688
448
192
-64
-320
-576
-800
-1136
-1520
-1232
-240
-16
-16
-16
0
48
848
1296
1008
800
704
480
192
-48
-288
-560
-800
-1120
-1552
-1344
-288
-16
-16
0
0
32
816
1360
1056
848
736
496
208
-64
-320
-592
-832
-1136
-1520
-1344
-320
-16
-16
0
0
16
752
1344
1056
832
736
528
240
-32
-272
-528
-768
-1088
-1520
-1408
-368
-16
-16
-16
-16
16
688
1376
1120
880
784
544
256
0
-256
-512
-752
-1088
-1552
-1488
-448
-16
-16
0
-16
0
624
1376
1136
880
768
560
256
-16
-272
-496
-688
-1008
-1472
-1504
-496
-16
0
-16
0
0
576
1376
1152
912
800
592
288
16
-240
-480
-672
-960
-1408
-1472
-528
-16
0
0
-16
0
528
1424
1200
912
784
592
304
32
-240
-464
-640
-912
-1344
-1440
-560
-16
0
0
0
0
464
1344
1168
912
784
608
336
80
-192
-416
-608
-880
-1328
-1456
-624
-32
0
0
-16
0
416
1360
1200
928
784
624
336
80
-192
-416
-656
-928
-1360
-1520
-688
-32
0
0
0
0
352
1296
1184
928
816
656
352
80
-192
-432
-672
-928
-1360
-1552
-784
-48
-16
-16
0
0
304
1296
1216
960
816
672
400
112
-192
-432
-640
-864
-1264
-1520
-816
-48
0
0
0
0
272
1280
1248
992
832
688
416
144
-160
-416
-608
-816
-1200
-1504
-848
-64
-16
0
0
0
224
1232
1248
992
848
720
464
192
-96
-368
-608
-816
-1200
-1552
-944
-80
-16
-16
-16
0
192
1248
1312
1040
864
720
448
192
-80
-352
-624
-848
-1216
-1600
-1008
-112
0
0
-16
0
144
1152
1280
1008
864
736
464
192
-96
-352
-656
-896
-1280
-1632
-1088
-128
0
-16
-16
-16
128
1120
1312
1040
848
736
464
192
-96
-336
-592
-816
-1200
-1568
-1120
-144
-16
-16
0
0
96
1056
1328
1040
848
720
464
192
-80
-320
-560
-768
-1136
-1520
-1168
-176
0
0
0
-16
80
976
1328
1040
848
752
512
224
-48
-304
-544
-752
-1120
-1520
-1232
-224
-16
0
-16
-16
64
928
1360
1056
848
736
496
224
-48
-304
-560
-752
-1088
-1520
-1280
-256
-16
0
-16
-16
48
848
1344
1056
848
752
528
240
-32
-288
-528
-736
-1072
-1520
-1360
-304
-16
0
-16
-16
32
800
-1008
-1472
-1440
-448
-16
-16
-16
-16
0
624
1408
1152
896
784
592
304
48
-224
-496
-720
-1024
-1456
-1456
-496
-16
-16
-16
0
0
544
1376
1136
896
784
592
304
48
-224
-496
-720
-992
-1440
-1520
-576
-16
0
0
-16
0
496
1360
1152
896
768
592
320
64
-208
-464
-688
-944
-1360
-1504
-608
-16
0
0
-16
0
448
1376
1168
928
800
608
336
64
-208
-448
-672
-928
-1360
-1520
-672
-32
0
0
0
0
384
1344
1200
928
800
640
368
96
-160
-416
-640
-896
-1328
-1536
-736
-32
-16
0
0
0
336
1360
1264
976
816
656
368
96
-176
-400
-624
-864
-1296
-1536
-800
-48
-16
0
0
0
288
1312
1248
960
800
656
368
112
-160
-400
-640
-864
-1264
-1520
-832
-64
-16
0
-16
-16
240
1280
1264
960
800
640
368
112
-160
-400
-624
-816
-1168
-1456
-848
-64
0
0
0
0
192
1200
1232
960
800
656
400
144
-128
-368
-608
-800
-1136
-1456
-912
-80
0
0
0
0
160
1168
1248
976
800
672
400
144
-128
-368
-592
-784
-1104
-1440
-960
-112
-16
-16
-16
0
128
1104
1248
976
816
688
432
176
-80
-320
-560
-752
-1088
-1456
-1040
-128
-16
-16
-16
0
112
1088
1328
1024
832
720
464
176
-96
-352
-608
-832
-1184
-1536
-1120
-160
-16
-16
-16
-16
80
992
1296
1008
832
720
464
192
-80
-336
-592
-800
-1152
-1520
-1152
-192
0
-16
0
0
64
928
1328
1024
848
752
528
240
-48
-304
-576
-800
-1184
-1584
-1248
-224
0
0
0
0
48
896
1408
1104
864
752
512
224
-48
-304
-560
-752
-1136
-1552
-1296
-256
-16
0
0
0
32
832
1392
1120
896
784
544
256
-16
-272
-512
-704
-1056
-1520
-1328
-304
-16
0
-16
-16
16
784
1440
1152
912
800
560
272
0
-272
-528
-752
-1072
-1488
-1328
-336
-16
0
-16
-16
16
704
1376
1104
880
752
544
256
-16
-272
-512
-736
-1008
-1424
-1328
-368
-16
-16
0
-16
0
640
1344
1104
880
752
544
272
16
-272
-512
-704
-944
-1360
-1344
-416
-16
-16
-16
-16
0
560
1296
1072
880
752
576
288
32
-240
-480
-688
-928
-1344
-1408
-480
-16
0
0
0
0
528
1328
1104
880
768
576
304
48
-224
-480
-656
-896
-1296
-1408
-528
-16
0
0
0
0
464
1312
1120
896
784
624
352
80
-176
-432
-656
-944
-1392
-1536
-640
-16
0
0
-16
0
416
1344
1184
960
848
672
384
96
-192
-464
-720
-1008
-1440
-1584
-704
-32
-16
-16
0
0
368
1344
1200
944
816
656
368
96
-192
-448
-704
-1008
-1440
-1584
-736
-32
-16
-16
0
0
320
1312
1248
976
832
656
368
96
-192
-432
-672
-944
-1376
-1568
-800
-48
-16
-16
-16
-16
272
1280
1232
960
800
640
352
96
-192
-416
-640
-864
-1280
-1536
-832
-64
-16
-16
0
0
224
1232
1216
928
768
624
368
112
-144
-384
-592
-816
-1216
-1520
-896
-80
0
0
0
-16
192
1200
1264
976
816
672
400
144
-128
-384
-624
-848
-1216
-1568
-960
-96
-16
-16
-16
0
160
1136
1232
976
816
704
432
160
-112
-368
-608
-832
-1200
-1584
-1056
-112
0
-16
0
-16
128
1104
1280
1008
848
752
480
192
-80
-352
-624
-848
-1232
-1632
-1136
-144
0
0
-16
-16
112
1088
1328
1024
832
720
464
192
-64
-336
-592
-800
-1168
-1584
-1184
-176
0
0
0
-16
80
1008
1328
1040
848
736
480
208
-64
-320
-592
-816
-1216
-1632
-1280
-208
0
0
-16
-16
64
960
1360
1040
832
736
496
208
-64
-320
-592
-816
-1200
-1600
-1280
-240
-16
-16
-16
-16
48
880
1344
1040
832
736
496
208
-48
-304
-560
-800
-1184
-1616
-1376
-288
-16
-16
-16
0
32
816
1360
1056
848
752
528
240
-48
-304
-560
-768
-1120
-1552
-1392
-336
-16
0
-16
-16
16
752
1360
1056
832
736
512
240
-16
-272
-512
-704
-1024
-1472
-1392
-368
-16
0
-16
-16
16
704
1376
1088
864
752
544
272
0
-256
-496
-672
-960
-1424
-1424
-432
-16
0
0
0
0
656
1408
1136
896
784
576
288
16
-256
-496
-704
-976
-1392
-1440
-480
-16
0
0
-16
0
592
1424
1152
896
784
592
320
48
-224
-480
-704
-992
-1440
-1488
-544
-16
-16
0
0
0
512
1392
1168
912
800
624
336
48
-240
-480
-720
-992
-1440
-1536
-608
-16
-16
-16
0
0
448
1376
1184
928
800
624
352
96
-192
-432
-656
-928
-1376
-1520
-656
-32
-16
0
0
0
400
1376
1232
960
800
624
352
96
-192
-416
-624
-864
-1312
-1520
-704
-32
0
0
0
0
352
1360
1248
976
800
624
352
96
-192
-416
-624
-848
-1216
-1440
-720
-48
0
0
-16
0
304
1328
1248
960
816
640
352
96
-176
-416
-640
-848
-1232
-1472
-784
-48
-16
0
0
0
256
1280
1232
960
784
608
336
80
-176
-400
-640
-848
-1184
-1424
-816
-64
-16
-16
-16
0
208
1184
1216
944
784
624
368
112
-144
-368
-608
-816
-1168
-1456
-880
-80
0
0
0
0
160
1120
1216
944
784
640
384
128
-144
-368
-592
-800
-1152
-1472
-944
-96
0
0
0
-16
128
1088
1248
976
800
672
416
144
-112
-352
-576
-768
-1120
-1504
-1040
-128
0
0
-16
-16
112
1056
1264
1008
848
720
448
160
-128
-384
-624
-832
-1168
-1536
-1072
-144
-16
-16
0
-16
96
1024
1296
1040
848
720
464
176
-80
-352
-576
-784
-1136
-1536
-1152
-176
-16
-16
-16
0
80
992
1344
1056
864
736
480
192
-80
-352
-608
-832
-1152
-1552
-1184
-208
-16
-16
-16
0
48
912
1296
1008
816
704
464
192
-80
-336
-576
-784
-1088
-1456
-1184
-224
0
0
-16
0
32
832
1296
1008
800
720
480
208
-32
-288
-544
-752
-1088
-1472
-1248
-272
-16
0
0
0
32
752
1280
1040
848
752
544
240
-16
-272
-528
-736
-1088
-1536
-1376
-336
-16
0
-16
0
16
736
1344
1088
880
784
560
256
0
-272
-512
-704
-1008
-1440
-1376
-368
-16
-16
0
-16
16
688
1376
1104
880
784
576
288
16
-272
-512
-704
-992
-1408
-1376
-400
-16
-16
-16
-16
0
640
1376
1104
864
736
560
288
32
-224
-464
-656
-944
-1360
-1392
-448
-16
-16
-16
-16
0
560
1360
1120
880
768
576
320
64
-208
-448
-672
-960
-1392
-1424
-512
-16
-16
0
0
0
480
1312
1120
896
800
624
336
80
-192
-448
-688
-976
-1424
-1520
-592
-16
0
-16
-16
0
448
1344
1152
912
784
624
336
80
-192
-448
-704
-960
-1392
-1504
-624
-32
-16
-16
0
0
400
1344
1152
896
768
608
336
80
-176
-432
-656
-912
-1344
-1520
-704
-32
-16
-16
-16
0
352
1312
1184
928
800
640
368
96
-176
-432
-656
-912
-1344
-1568
-784
-48
-16
-16
-16
0
288
1280
1184
912
784
640
384
112
-160
-400
-656
-912
-1328
-1568
-816
-48
-16
0
0
0
240
1232
1216
944
816
672
400
128
-144
-400
-640
-880
-1312
-1616
-912
-64
-16
-16
-16
0
208
1248
1264
976
800
672
400
128
-144
-400
-640
-848
-1232
-1536
-928
-80
0
-16
-16
-16
176
1232
1296
976
800
640
384
128
-144
-368
-592
-800
-1168
-1520
-992
-96
0
0
0
-16
144
1168
1312
1008
832
688
432
160
-96
-336
-560
-768
-1152
-1520
-1056
-128
0
0
0
-16
112
1104
1344
1024
848
704
432
160
-112
-336
-592
-800
-1168
-1536
-1088
-144
0
-16
0
0
80
992
1280
1008
832
720
480
192
-64
-304
-560
-768
-1136
-1568
-1200
-192
-16
0
0
0
64
976
1344
1056
864
752
480
208
-64
-304
-560
-768
-1120
-1536
-1216
-208
0
0
-16
0
48
928
1360
1072
848
736
480
192
-80
-336
-576
-768
-1088
-1536
-1296
-256
-16
0
-16
0
32
864
1376
1072
848
736
480
192
-80
-336
-592
-800
-1104
-1520
-1328
-304
-16
0
0
-16
32
800
1392
1072
848
736
496
208
-64
-336
-592
-816
-1120
-1520
-1344
-336
-16
0
-16
0
16
736
1360
1072
848
736
496
208
-48
-304
-576
-784
-1056
-1456
-1360
-368
-16
-16
-16
-16
16
656
1328
1072
848
752
544
256
0
-256
-496
-720
-976
-1376
-1360
-416
-16
-16
-16
-16
0
592
1344
1104
880
768
576
288
32
-240
-464
-656
-944
-1376
-1424
-480
-16
-16
-16
-16
0
544
1360
1152
912
816
624
336
64
-208
-448
-656
-944
-1392
-1472
-544
-16
-16
0
0
0
480
1376
1184
928
816
656
368
96
-192
-432
-656
-944
-1408
-1504
-592
-16
0
0
-16
0
448
1376
1200
944
816
640
368
96
-176
-432
-672
-960
-1408
-1536
-656
-32
0
0
0
0
384
1344
1216
960
816
656
384
112
-160
-400
-608
-864
-1312
-1520
-720
-32
0
-16
-16
0
320
1296
1200
960
816
672
400
128
-160
-400
-624
-880
-1296
-1536
-784
-48
0
-16
-16
0
288
1280
1232
976
832
688
400
128
-160
-400
-624
-848
-1264
-1536
-848
-64
0
0
0
0
240
1264
1248
992
832
688
416
144
-144
-384
-640
-864
-1264
-1552
-896
-64
0
-16
0
-16
208
1216
1248
960
800
672
432
144
-128
-384
-640
-864
-1232
-1552
-960
-96
-16
0
0
-16
160
1168
1264
976
816
688
432
160
-96
-352
-592
-816
-1200
-1552
-1024
-112
0
-16
-16
-16
144
1120
1296
1008
832
704
464
192
-80
-336
-608
-832
-1184
-1552
-1072
-128
-16
-16
-16
0
112
1072
1312
1024
832
720
464
192
-80
-336
-592
-800
-1168
-1536
-1120
-160
-16
-16
0
0
80
1024
1328
1040
832
736
496
208
-48
-304
-560
-768
-1104
-1504
-1168
-192
-16
-16
0
0
64
944
1328
1040
832
720
480
224
-48
-304
-544
-736
-1088
-1504
-1216
-224
-16
-16
0
0
48
896
1328
1024
832
720
512
224
-32
-288
-544
-752
-1088
-1504
-1248
-256
-16
-16
-16
-16
32
832
1344
1040
832
720
496
240
-16
-288
-528
-736
-1056
-1488
-1296
-304
-16
0
0
-16
32
768
1360
1056
848
736
512
240
-32
-288
-576
-784
-1088
-1488
-1360
-352
-16
0
0
-16
16
704
1328
1056
848
752
544
272
0
-256
-528
-752
-1056
-1488
-1408
-400
-16
0
0
-16
0
656
1376
1104
864
752
544
272
16
-256
-512
-736
-1040
-1472
-1440
-448
-16
0
0
0
0
592
1376
1104
880
768
560
288
32
-240
-496
-736
-1024
-1472
-1488
-512
-16
-16
0
0
0
528
1360
1136
880
768
560
288
32
-224
-480
-704
-992
-1424
-1472
-544
-16
-16
-16
-16
0
480
1360
1152
880
752
560
288
32
-224
-464
-672
-944
-1360
-1472
-608
-16
-16
-16
0
0
400
1296
1136
880
768
592
304
48
-208
-448
-656
-896
-1296
-1456
-640
-32
-16
-16
0
0
352
1296
1152
896
752
592
336
80
-192
-416
-608
-848
-1248
-1456
-704
-32
0
0
0
0
304
1264
1168
928
800
640
352
112
-160
-384
-576
-800
-1200
-1456
-752
-48
-16
0
0
-16
272
1264
1216
944
800
656
384
128
-144
-368
-592
-832
-1232
-1504
-832
-64
0
0
-16
-16
224
1232
1248
976
832
688
400
144
-128
-368
-592
-832
-1232
-1552
-912
-80
-16
-16
-16
-16
192
1216
1280
992
832
704
432
144
-128
-368
-624
-864
-1248
-1552
-944
-96
-16
-16
0
-16
160
1168
1296
1008
832
688
416
144
-128
-368
-624
-848
-1232
-1552
-992
-112
0
-16
-16
-16
128
1088
1264
992
816
688
432
160
-112
-352
-592
-800
-1152
-1488
-1040
-128
0
0
0
0
112
1040
1280
992
816
704
448
192
-80
-320
-560
-752
-1088
-1488
-1088
-160
0
0
-16
-16
80
976
1264
992
816
704
480
192
-64
-304
-608
-864
-1216
-1600
-1216
-192
-16
-16
-16
-16
64
912
1264
992
816
720
480
208
-64
-320
-592
-816
-1152
-1584
-1280
-224
-16
-16
0
-16
48
864
1296
1008
816
720
480
208
-48
-304
-608
-880
-1216
-1632
-1344
-272
-16
0
0
0
32
816
1312
1024
816
720
496
208
-48
-304
-560
-768
-1104
-1520
-1344
-304
-16
-16
-16
0
16
768
1360
1088
848
736
512
224
-32
-288
-464
-608
-912
-1360
-1312
-336
-16
-16
0
0
16
736
1408
1136
880
768
544
256
0
-256
-464
-608
-896
-1328
-1312
-384
-16
-16
-16
0
16
672
1392
1136
880
768
560
288
16
-240
-416
-560
-832
-1248
-1296
-416
-16
0
0
-16
0
592
1344
1104
880
784
592
320
64
-192
-432
-624
-912
-1344
-1408
-496
-16
0
-16
-16
0
544
1360
1120
896
800
-32
-16
-16
0
0
368
1312
1168
912
784
624
352
96
-192
-432
-624
-864
-1280
-1472
-704
-32
-16
-16
-16
0
320
1296
1200
928
784
640
352
112
-176
-416
-656
-880
-1280
-1488
-752
-48
-16
0
0
-16
272
1264
1216
960
816
672
400
128
-144
-384
-608
-832
-1248
-1536
-848
-64
0
0
0
-16
240
1248
1232
960
800
672
416
144
-128
-384
-624
-848
-1248
-1520
-880
-64
0
-16
-16
0
192
1184
1232
960
800
672
432
160
-112
-368
-608
-832
-1248
-1568
-960
-96
0
-16
0
0
160
1136
1248
976
800
688
432
160
-112
-368
-624
-848
-1216
-1552
-1008
-112
0
-16
-16
0
128
1104
1264
960
800
672
432
160
-112
-352
-624
-832
-1184
-1520
-1056
-128
-16
0
0
0
112
1056
1264
992
800
672
416
160
-112
-352
-624
-816
-1152
-1488
-1088
-144
0
0
-16
0
80
992
1264
976
784
672
432
176
-80
-320
-576
-768
-1088
-1456
-1120
-176
0
-16
-16
-16
64
928
1296
1008
816
704
464
208
-48
-304
-544
-736
-1072
-1456
-1168
-208
-16
-16
-16
0
48
880
1312
1024
816
720
496
240
-32
-272
-528
-704
-1024
-1424
-1184
-240
-16
0
-16
-16
32
816
1328
1040
848
736
528
256
-16
-272
-496
-704
-1024
-1440
-1248
-272
-16
0
0
0
16
768
1360
1088
864
752
512
240
0
-256
-512
-704
-1008
-1440
-1312
-320
-16
-16
-16
-16
16
704
1328
1056
832
720
512
240
-16
-272
-512
-720
-1008
-1424
-1344
-368
-16
0
0
0
0
640
1344
1088
848
736
528
240
0
-256
-496
-688
-960
-1376
-1344
-416
-16
-16
-16
0
0
560
1296
1072
864
752
560
288
48
-208
-432
-640
-944
-1408
-1440
-480
-16
-16
-16
0
0
512
1328
1120
896
768
592
288
48
-208
-464
-688
-976
-1408
-1472
-544
-16
-16
0
0
0
464
1328
1120
896
784
608
320
64
-192
-448
-688
-960
-1408
-1520
-608
-16
-16
-16
-16
0
416
1328
1152
912
800
608
320
64
-208
-448
-688
-960
-1376
-1536
-656
-32
0
0
0
0
384
1328
1168
912
768
608
320
64
-208
-448
-672
-912
-1312
-1488
-704
-32
0
0
0
0
320
1296
1184
944
800
640
352
80
-176
-400
-624
-864
-1280
-1520
-768
-48
0
0
-16
0
288
1280
1216
944
800
656
368
80
-192
-416
-656
-880
-1264
-1520
-816
-48
-16
-16
-16
-16
240
1232
1216
960
816
672
400
112
-160
-400
-624
-848
-1248
-1536
-896
-64
-16
-16
-16
-16
192
1200
1232
960
816
688
432
144
-144
-384
-608
-832
-1232
-1584
-976
-96
0
0
-16
-16
160
1168
1280
992
816
672
416
144
-128
-384
-608
-816
-1200
-1552
-1008
-112
-16
-16
0
-16
128
1104
1264
992
816
688
464
176
-96
-352
-592
-816
-1200
-1552
-1056
-128
0
0
0
-16
112
1056
1296
1008
816
704
448
192
-96
-352
-608
-816
-1200
-1552
-1120
-160
-16
0
-16
0
80
1024
1328
1008
816
704
448
192
-80
-336
-592
-800
-1136
-1488
-1136
-176
-16
-16
-16
0
64
960
1312
992
800
688
448
192
-64
-320
-560
-752
-1072
-1472
-1184
-208
0
0
0
-16
48
896
1328
1024
816
704
448
192
-48
-288
-512
-704
-1024
-1408
-1200
-240
-16
-16
0
0
32
832
1344
1056
848
720
496
224
-32
-288
-528
-704
-1008
-1424
-1264
-288
-16
0
0
-16
16
768
1344
1072
864
752
512
224
-32
-288
-512
-720
-1024
-1440
-1296
-320
-16
0
0
0
16
720
1360
1072
848
736
528
240
-16
-272
-528
-736
-1024
-1440
-1328
-368
-16
0
0
0
0
640
1328
1056
832
736
528
256
0
-256
-512
-720
-1008
-1440
-1392
-416
-16
-16
-16
-16
0
560
1296
1072
832
736
560
272
16
-256
-512
-720
-1008
-1408
-1424
-480
-16
0
-16
-16
0
512
1296
1088
848
752
560
288
16
-256
-496
-704
-960
-1376
-1424
-528
-16
-16
0
0
0
464
1296
1088
832
736
560
288
32
-240
-480
-720
-992
-1392
-1440
-560
-16
-16
-16
0
0
416
1264
1104
864
752
592
304
64
-192
-432
-672
-960
-1376
-1504
-640
-32
-16
0
0
0
352
1264
1136
880
752
608
336
80
-192
-432
-656
-928
-1376
-1584
-736
-32
0
-16
0
0
320
1280
1184
928
784
640
352
80
-192
-432
-672
-896
-1280
-1520
-752
-48
0
-16
-16
-16
288
1264
1168
912
768
640
384
112
-160
-416
-640
-864
-1232
-1504
-800
-48
0
-16
0
0
240
1264
1248
976
800
640
368
112
-160
-384
-592
-800
-1168
-1488
-864
-64
-16
0
-16
-16
208
1200
1232
960
784
656
384
128
-128
-352
-560
-752
-1104
-1440
-880
-80
-16
-16
0
0
160
1152
1232
960
784
672
416
160
-80
-320
-544
-752
-1136
-1488
-960
-96
0
0
0
0
144
1104
1280
1008
832
720
448
192
-80
-320
-560
-784
-1184
-1568
-1088
-128
-16
-16
0
0
112
1072
1312
1024
848
736
464
192
-80
-336
-608
-832
-1200
-1568
-1136
-160
0
0
0
-16
96
1024
1328
1040
848
736
496
208
-64
-320
-608
-832
-1216
-1600
-1200
-192
-16
0
0
-16
80
1008
1376
1072
864
720
480
192
-80
-320
-560
-768
-1136
-1536
-1216
-208
0
0
0
0
48
912
1344
1056
864
752
512
224
-48
-304
-560
-800
-1136
-1536
-1280
-256
-16
-16
-16
-16
32
832
1328
1056
848
752
512
224
-48
-288
-528
-752
-1088
-1552
-1360
-320
-16
0
-16
-16
32
784
1376
1104
880
784
544
240
-32
-288
-528
-736
-1056
-1504
-1376
-352
-16
-16
-16
-16
16
720
1376
1088
864
768
560
272
-16
-304
-544
-720
-1024
-1440
-1360
-384
-16
0
-16
-16
16
688
1424
1120
880
768
560
288
16
-272
-496
-672
-960
-1376
-1376
-432
-16
-16
0
0
0
592
1360
1104
880
784
592
304
32
-256
-512
-736
-1024
-1424
-1424
-480
-16
-16
-16
0
0
528
1344
1088
864
768
576
304
48
-224
-480
-736
-1024
-1440
-1488
-544
-16
0
0
0
0
464
1296
1088
880
768
576
320
64
-208
-448
-688
-960
-1392
-1504
-608
-16
0
0
0
0
416
1296
1136
896
784
608
336
80
-192
-432
-656
-928
-1376
-1520
-672
-32
0
0
0
0
368
1328
1184
928
784
624
352
96
-176
-400
-608
-864
-1296
-1488
-704
-32
-16
0
0
0
320
1280
1200
928
800
656
384
128
-160
-400
-640
-896
-1312
-1536
-784
-48
-16
-16
-16
0
288
1296
1216
928
784
640
368
112
-160
-384
-624
-864
-1264
-1504
-816
-64
0
0
-16
-16
224
1216
1200
928
784
656
400
144
-112
-368
-608
-832
-1248
-1520
-880
-64
-16
0
-16
-16
192
1200
1232
944
784
656
400
144
-128
-368
-592
-816
-1184
-1504
-928
-80
0
0
0
0
160
1152
1264
992
816
688
432
160
-112
-352
-576
-800
-1152
-1472
-944
-96
0
0
0
-16
128
1088
1248
976
800
672
416
160
-96
-336
-576
-784
-1152
-1520
-1040
-128
-16
-16
0
-16
112
1056
1280
992
800
672
416
128
-144
-384
-624
-816
-1136
-1504
-1104
-160
-16
0
-16
-16
80
976
1280
992
800
688
432
160
-96
-336
-592
-800
-1168
-1584
-1216
-192
-16
-16
-16
0
64
960
1344
1024
816
688
448
160
-96
-336
-576
-768
-1120
-1552
-1248
-224
-16
-16
0
0
48
880
1328
1040
848
736
480
208
-48
-304
-560
-768
-1120
-1536
-1296
-256
-16
-16
-16
0
32
848
1376
1072
848
736
512
240
-16
-272
-528
-736
-1088
-1504
-1296
-288
-16
0
0
-16
32
784
1376
1088
880
768
528
240
-16
-272
-512
-704
-1024
-1440
-1312
-336
-16
0
0
0
16
720
1392
1120
880
768
560
272
0
-256
-496
-688
-992
-1392
-1312
-368
-16
0
0
-16
16
688
1408
1136
896
768
544
272
16
-240
-464
-640
-912
-1312
-1296
-400
-16
0
0
-16
0
608
1376
1136
896
768
592
320
64
-176
-400
-608
-896
-1328
-1376
-480
-16
0
0
0
0
544
1360
1136
912
800
624
336
64
-208
-448
-656
-928
-1360
-1440
-528
-16
-16
-16
-16
0
480
1360
1152
928
816
640
352
80
-208
-448
-672
-944
-1376
-1488
-592
-16
-16
-16
0
0
432
1360
1184
944
832
640
368
80
-208
-448
-672
-928
-1360
-1504
-656
-32
-16
0
0
0
368
1328
1168
928
800
640
368
96
-192
-432
-640
-880
-1296
-1488
-704
-32
-16
0
0
0
320
1296
1184
928
800
640
368
112
-160
-384
-608
-848
-1264
-1520
-768
-48
-16
0
-16
0
272
1248
1216
960
832
672
400
128
-160
-400
-640
-880
-1312
-1600
-864
-64
-16
-16
-16
-16
240
1248
1248
976
832
704
416
128
-160
-400
-656
-880
-1280
-1584
-928
-80
-16
-16
-16
-16
208
1216
1264
992
832
704
432
144
-144
-384
-640
-880
-1264
-1568
-960
-96
0
-16
-16
-16
176
1200
1312
992
816
688
416
144
-144
-384
-640
-832
-1200
-1536
-1008
-112
0
0
0
-16
128
1104
1264
976
800
672
416
160
-112
-352
-592
-784
-1120
-1472
-1040
-128
0
0
0
0
96
1056
1296
992
800
672
432
160
-96
-352
-576
-768
-1104
-1472
-1072
-144
-16
-16
0
0
80
960
1280
1008
832
736
480
192
-64
-320
-560
-768
-1136
-1536
-1216
-192
0
0
-16
0
64
944
1344
1056
848
752
512
224
-48
-304
-560
-768
-1136
-1536
-1248
-224
0
-16
-16
0
48
912
1392
1072
864
752
512
240
-32
-304
-576
-816
-1152
-1552
-1280
-256
-16
0
-16
0
32
848
1376
1072
864
736
512
224
-32
-304
-560
-768
-1088
-1488
-1296
-288
-16
0
0
-16
16
784
1376
1072
848
736
512
240
-16
-288
-528
-736
-1040
-1440
-1296
-336
-16
0
0
0
16
688
1360
1088
848
752
544
272
0
-256
-496
-704
-1024
-1456
-1376
-400
-16
-16
-16
0
0
624
1344
1104
864
768
560
288
16
-256
-496
-688
-976
-1408
-1376
-432
-16
-16
-16
0
0
560
1328
1088
848
752
560
288
48
-224
-464
-688
-976
-1424
-1440
-496
-16
0
-16
-16
0
512
1312
1104
880
784
608
320
64
-208
-496
-752
-1040
-1472
-1520
-576
-16
-16
0
0
0
464
1312
1120
880
768
592
320
64
-208
-480
-736
-1008
-1456
-1552
-640
-16
-16
-16
0
0
416
1344
1168
880
752
592
320
80
-192
-448
-688
-960
-1376
-1520
-672
-32
0
0
0
0
352
1312
1184
912
768
608
336
80
-192
-432
-656
-896
-1312
-1504
-720
-32
0
-16
0
0
320
1296
1184
912
752
608
320
80
-192
-416
-640
-864
-1264
-1488
-752
-48
0
-16
-16
0
256
1232
1168
912
768
640
352
96
-160
-400
-672
-896
-1280
-1536
-832
-64
0
0
-16
-16
224
1200
1200
944
784
656
384
112
-144
-368
-640
-896
-1328
-1632
-960
-80
-16
0
0
0
192
1216
1280
976
800
672
384
112
-144
-384
-624
-848
-1248
-1600
-1008
-96
-16
-16
-16
0
160
1168
1296
1024
832
704
448
144
-128
-352
-576
-784
-1168
-1552
-1056
-112
-16
-16
-16
-16
128
1168
1376
1056
848
704
448
160
-128
-368
-576
-752
-1120
-1504
-1072
-128
-16
-16
-16
-16
112
1072
1344
1040
832
688
448
160
-96
-336
-544
-720
-1056
-1456
-1072
-160
-16
-16
-16
-16
80
992
1328
1040
848
720
480
192
-64
-304
-544
-736
-1088
-1504
-1168
-192
0
0
-16
-16
64
944
1360
1072
864
736
496
224
-48
-288
-544
-752
-1088
-1520
-1248
-240
0
0
0
0
48
896
1392
1104
896
784
528
224
-48
-304
-560
-784
-1120
-1552
-1328
-272
-16
0
0
0
32
848
1424
1136
912
800
576
256
-32
-304
-560
-784
-1104
-1552
-1392
-320
-16
-16
0
-16
16
784
1424
1136
912
800
560
256
-32
-304
-560
-768
-1088
-1520
-1392
-368
-16
-16
0
-16
16
720
1440
1136
896
784
544
256
-16
-304
-544
-752
-1040
-1488
-1424
-416
-16
0
-16
-16
0
624
1392
1120
912
800
592
304
16
-256
-496
-720
-1008
-1440
-1456
-480
-16
0
0
0
0
576
1392
1152
928
816
608
320
32
-240
-496
-704
-992
-1424
-1472
-528
-16
0
0
0
0
496
1376
1168
928
816
640
352
80
-208
-464
-656
-944
-1392
-1504
-592
-16
-16
-16
-16
0
448
1376
1200
944
832
672
368
96
-192
-448
-656
-944
-1360
-1520
-640
-32
-16
-16
-16
0
400
1376
1216
944
816
656
368
112
-192
-432
-640
-912
-1344
-1536
-704
-32
-16
-16
-16
0
352
1344
1232
976
848
688
384
112
-176
-16
208
1216
1264
992
832
704
448
160
-112
-368
-608
-832
-1232
-1552
-944
-80
0
0
0
0
160
1168
1264
992
832
720
448
176
-96
-336
-576
-800
-1200
-1552
-1008
-112
-16
-16
-16
-16
144
1136
1296
992
832
720
480
208
-64
-336
-608
-832
-1232
-1584
-1088
-128
0
0
0
-16
112
1088
1312
1008
832
720
480
224
-64
-320
-624
-848
-1232
-1584
-1120
-160
0
-16
0
-16
96
1040
1344
1024
832
720
480
224
-48
-304
-592
-816
-1200
-1568
-1184
-192
-16
-16
-16
-16
64
976
1360
1056
848
736
496
224
-48
-288
-560
-768
-1136
-1536
-1216
-208
-16
0
0
0
48
912
1376
1072
832
720
496
224
-32
-288
-528
-720
-1072
-1504
-1280
-256
-16
-16
0
0
32
832
1360
1088
864
752
528
240
-16
-272
-512
-720
-1056
-1504
-1328
-304
-16
0
-16
-16
32
784
1392
1088
848
736
512
240
-16
-272
-528
-736
-1056
-1488
-1360
-336
-16
-16
-16
-16
16
720
1408
1136
880
752
528
240
-16
-272
-512
-720
-1024
-1456
-1392
-384
-16
0
-16
-16
0
656
1392
1136
896
768
544
272
16
-240
-496
-720
-1024
-1456
-1424
-448
-16
-16
-16
-16
0
592
1392
1152
912
784
576
288
16
-240
-480
-688
-976
-1424
-1472
-512
-16
-16
0
0
0
528
1376
1168
928
800
608
304
32
-224
-480
-704
-992
-1424
-1504
-576
-16
0
0
0
0
480
1376
1184
928
800
608
320
48
-224
-464
-704
-976
-1424
-1552
-640
-16
-16
0
-16
0
432
1376
1200
960
816
624
336
64
-224
-464
-688
-960
-1392
-1552
-688
-32
0
0
-16
0
368
1360
1232
976
832
640
352
80
-208
-432
-656
-912
-1344
-1552
-752
-32
0
0
0
0
320
1312
1248
992
848
672
368
96
-192
-432
-640
-880
-1312
-1568
-816
-48
-16
-16
0
0
272
1296
1264
992
848
688
400
112
-176
-416
-640
-864
-1280
-1552
-880
-64
-16
-16
0
-16
224
1264
1280
1024
864
704
416
128
-160
-416
-624
-848
-1232
-1552
-912
-80
-16
-16
-16
-16
192
1216
1280
1008
848
720
448
144
-160
-416
-672
-896
-1280
-1584
-976
-96
-16
-16
-16
0
160
1184
1312
1024
848
720
432
160
-128
-400
-640
-832
-1184
-1520
-992
-112
0
0
0
-16
128
1104
1296
1008
848
736
480
192
-112
-368
-624
-832
-1184
-1536
-1088
-144
0
-16
-16
0
96
1072
1328
1008
832
720
448
192
-80
-352
-592
-784
-1136
-1504
-1136
-176
-16
-16
0
0
80
992
1328
1024
848
736
496
224
-48
-304
-576
-816
-1184
-1600
-1248
-208
0
0
0
-16
64
944
1376
1040
832
736
512
224
-48
-320
-592
-800
-1152
-1552
-1264
-240
-16
0
-16
-16
48
864
1344
1040
832
736
512
240
-32
-288
-560
-752
-1088
-1488
-1264
-256
-16
0
0
0
32
800
1360
1056
848
736
512
240
-16
-288
-544
-736
-1072
-1488
-1312
-304
-16
0
0
0
16
720
1328
1072
864
752
544
272
16
-256
-512
-704
-1040
-1504
-1440
-400
-16
-16
0
0
16
672
1376
1104
880
768
576
304
32
-256
-528
-768
-1104
-1552
-1472
-432
-16
-16
-16
0
0
640
1440
1136
896
768
560
288
32
-256
-528
-768
-1088
-1536
-1536
-496
-16
-16
-16
-16
0
576
1424
1152
912
800
592
320
48
-224
-512
-752
-1040
-1488
-1520
-560
-16
-16
-16
0
0
512
1424
1168
896
768
576
304
48
-224
-480
-704
-976
-1424
-1536
-608
-16
0
0
0
0
448
1392
1184
928
784
592
304
48
-208
-448
-672
-928
-1376
-1536
-672
-32
-16
0
-16
0
368
1312
1168
912
800
624
320
64
-208
-432
-688
-960
-1392
-1584
-736
-32
0
0
-16
0
336
1328
1200
928
784
624
336
64
-208
-432
-672
-928
-1360
-1600
-800
-48
0
0
-16
-16
272
1280
1216
944
816
656
352
96
-176
-416
-688
-944
-1376
-1632
-864
-64
0
-16
-16
0
240
1264
1232
944
784
640
368
96
-176
-416
-656
-880
-1296
-1584
-912
-80
0
0
0
-16
208
1248
1312
992
816
672
384
112
-176
-400
-640
-880
-1248
-1552
-944
-80
-16
-16
0
-16
160
1184
1296
992
832
688
416
144
-128
-368
-608
-816
-1216
-1552
-1024
-112
0
0
0
-16
128
1136
1328
1024
848
704
432
144
-128
-368
-608
-832
-1200
-1536
-1056
-128
-16
-16
-16
0
112
1072
1328
1040
832
704
448
160
-96
-320
-560
-768
-1136
-1536
-1136
-160
-16
-16
0
0
80
1008
1344
1056
864
736
464
192
-80
-320
-544
-720
-1072
-1488
-1168
-192
-16
-16
0
0
64
944
1360
1088
880
784
544
240
-32
-288
-512
-688
-1008
-1440
-1200
-224
-16
-16
-16
-16
48
864
1328
1072
896
784
560
256
-16
-288
-528
-720
-1072
-1504
-1296
-272
-16
-16
-16
-16
32
832
1392
1120
912
816
576
272
-16
-288
-544
-736
-1072
-1504
-1328
-304
-16
0
-16
0
32
800
1408
1120
912
800
576
272
-16
-288
-528
-736
-1056
-1488
-1376
-352
-16
0
0
-16
16
752
1472
1168
912
784
560
256
-32
-304
-544
-752
-1040
-1424
-1328
-368
-16
-16
0
0
0
672
1408
1136
912
816
592
304
16
-256
-512
-720
-1024
-1456
-1440
-448
-16
-16
0
-16
0
592
1376
1136
896
784
592
304
32
-256
-512
-736
-1024
-1424
-1440
-496
-16
0
0
-16
0
512
1344
1136
896
784
608
320
48
-224
-480
-704
-992
-1424
-1504
-560
-16
0
0
0
0
464
1360
1168
928
800
624
352
80
-208
-464
-688
-960
-1392
-1520
-624
-16
0
-16
-16
0
416
1376
1184
928
800
656
368
96
-208
-464
-704
-960
-1392
-1552
-704
-32
0
-16
0
0
352
1328
1184
944
816
672
384
112
-176
-448
-704
-976
-1392
-1600
-784
-32
-16
-16
0
0
304
1312
1216
944
800
656
384
128
-176
-448
-704
-976
-1376
-1616
-832
-48
-16
-16
0
0
256
1264
1216
960
816
672
400
144
-144
-400
-672
-912
-1344
-1616
-912
-64
-16
-16
0
0
224
1248
1248
960
800
656
416
160
-112
-368
-624
-848
-1264
-1584
-944
-80
-16
-16
0
0
192
1216
1280
1008
832
688
416
176
-96
-352
-608
-848
-1264
-1616
-1024
-96
-16
0
-16
0
144
1152
1296
992
816
688
432
176
-80
-336
-576
-816
-1232
-1584
-1072
-128
0
0
0
0
128
1104
1296
1008
816
672
416
144
-128
-368
-624
-832
-1200
-1584
-1120
-144
0
0
-16
0
96
1056
1328
1008
800
656
400
128
-128
-352
-608
-816
-1168
-1536
-1152
-176
0
-16
-16
-16
80
1008
1344
1024
816
672
432
144
-112
-352
-592
-784
-1120
-1520
-1216
-208
0
0
0
0
64
928
1328
1040
832
720
480
192
-64
-304
-560
-768
-1104
-1536
-1280
-256
-16
-16
0
0
48
896
1408
1072
848
736
496
224
-48
-288
-544
-768
-1104
-1536
-1328
-288
-16
-16
0
0
32
816
1408
1104
880
752
512
224
-32
-288
-544
-768
-1104
-1536
-1376
-336
-16
0
0
-16
16
768
1440
1120
880
752
512
240
-32
-288
-544
-736
-1056
-1488
-1392
-384
-16
0
-16
-16
16
688
1424
1136
912
784
544
256
-16
-272
-512
-720
-1008
-1440
-1408
-416
-16
0
-16
-16
0
608
1408
1152
912
800
576
288
16
-240
-480
-672
-960
-1392
-1424
-480
-16
-16
-16
0
0
544
1376
1152
928
816
624
320
48
-208
-448
-656
-960
-1408
-1488
-544
-16
-16
-16
0
0
496
1408
1216
960
832
656
352
64
-208
-464
-688
-976
-1408
-1520
-608
-16
-16
0
-16
0
432
1392
1232
992
864
672
368
64
-208
-448
-672
-928
-1376
-1552
-672
-32
0
0
-16
0
384
1376
1248
992
864
688
384
80
-224
-464
-672
-912
-1344
-1536
-720
-32
0
0
0
0
336
1360
1264
1008
864
688
384
96
-192
-432
-656
-880
-1312
-1536
-768
-48
0
-16
0
0
288
1312
1264
992
848
688
400
112
-176
-416
-672
-912
-1328
-1568
-848
-64
-16
-16
0
0
224
1232
1232
976
848
704
416
128
-176
-416
-672
-912
-1296
-1568
-896
-64
-16
-16
-16
-16
192
1200
1264
976
816
688
416
144
-160
-416
-688
-912
-1280
-1568
-944
-80
-16
-16
-16
0
144
1088
1216
976
832
720
448
160
-128
-368
-608
-832
-1200
-1552
-1040
-112
0
0
-16
0
128
1120
1296
1024
832
720
464
176
-112
-368
-608
-816
-1168
-1536
-1072
-128
-16
0
0
0
112
1056
1312
1024
848
736
480
208
-64
-336
-576
-784
-1152
-1536
-1152
-160
-16
0
-16
0
80
1040
1360
1056
848
752
496
224
-64
-336
-608
-816
-1184
-1568
-1200
-192
-16
0
0
-16
64
960
1312
1008
816
720
480
224
-64
-336
-608
-816
-1152
-1536
-1248
-224
0
-16
0
-16
48
880
1312
1024
832
736
512
240
-16
-288
-560
-768
-1104
-1520
-1296
-272
0
0
0
0
32
816
1344
1024
816
720
512
240
-16
-288
-544
-752
-1072
-1488
-1328
-304
-16
0
0
0
16
752
1344
1056
832
720
496
240
16
-240
-480
-688
-1008
-1440
-1344
-352
-16
-16
0
0
16
704
1360
1088
864
752
560
272
32
-240
-496
-736
-1056
-1504
-1440
-416
-16
-16
-16
0
0
656
1392
1104
864
752
560
272
16
-240
-512
-752
-1056
-1488
-1472
-464
-16
-16
-16
-16
0
592
1408
1136
880
784
592
304
48
-224
-480
-720
-1040
-1504
-1536
-528
-16
0
-16
-16
0
544
1440
1184
928
800
592
304
48
-224
-480
-704
-1008
-1456
-1536
-576
-16
0
0
0
0
480
1424
1200
928
768
592
320
64
-192
-432
-656
-928
-1360
-1520
-640
-32
0
0
0
0
416
1408
1232
960
800
608
320
64
-208
-448
-688
-944
-1360
-1520
-672
-32
-16
-16
-16
0
352
1344
1216
944
784
592
320
64
-208
-432
-672
-880
-1280
-1488
-720
-32
-16
0
0
0
288
1248
1168
912
768
608
336
64
-192
-416
-672
-896
-1264
-1488
-768
-48
-16
0
-16
0
240
1232
1200
928
784
640
368
96
-160
-384
-640
-880
-1296
-1600
-896
-64
-16
-16
0
-16
208
1216
1232
960
800
672
384
112
-160
-384
-624
-864
-1264
-1600
-976
-80
0
0
0
0
176
1200
1280
992
832
704
448
144
-144
-400
-688
-928
-1328
-1648
-1024
-96
0
-16
-16
-16
160
1184
1344
1040
848
720
432
144
-144
-384
-640
-864
-1264
-1632
-1088
-128
0
0
0
0
112
1104
1328
1040
864
720
448
160
-128
-384
-656
-880
-1248
-1600
-1136
-144
0
-16
-16
-16
96
1040
1328
1040
848
736
464
176
-112
-352
-592
-816
-1184
-1568
-1184
-176
0
-16
-16
-16
80
1008
1360
1056
864
752
480
192
-80
-336
-576
-784
-1136
-1552
-1232
-208
0
-16
-16
-16
64
928
1376
1072
864
752
496
208
-80
-320
-560
-752
-1088
-1504
-1280
-256
-16
-16
-16
0
48
864
1376
1088
880
768
528
224
-48
-320
-544
-736
-1056
-1472
-1280
-272
-16
0
-16
-16
32
800
1376
1104
880
768
544
256
-16
-288
-512
-704
-1024
-1472
-1360
-336
-16
0
0
0
16
736
1376
1120
912
800
576
272
0
-272
-512
-704
-1024
-1456
-1392
-384
-16
0
0
0
16
688
1408
1136
896
800
608
304
32
-256
-496
-688
-1008
-1440
-1408
-432
-16
0
0
-16
0
624
1392
1136
928
816
592
288
16
-256
-496
-704
-992
-1408
-1424
-480
-16
0
0
0
0
544
1328
1072
864
784
608
320
48
-224
-480
-720
-992
-1424
-1472
-544
-16
-16
0
-16
0
480
1344
1136
896
800
624
336
80
-208
-448
-688
-976
-1424
-1520
-608
-16
0
0
0
0
432
1360
1168
928
816
640
368
96
-192
-432
-656
-944
-1392
-1552
-688
-32
0
0
0
0
384
1360
1200
928
816
672
384
128
-160
-400
-624
-880
-1328
-1552
-736
-32
0
-16
0
0
336
1344
1216
960
816
672
416
128
-144
-400
-640
-880
-1312
-1536
-784
-48
-16
-16
-16
0
288
1344
1248
960
816
672
416
144
-128
-384
-624
-864
-1280
-1568
-848
-64
0
-16
-16
0
240
1312
1280
992
832
672
400
144
-144
-384
-640
-864
-1264
-1536
-896
-80
-16
-16
0
-16
208
1248
1280
976
816
672
400
144
-144
-400
-656
-864
-1232
-1536
-928
-80
0
0
-16
-16
160
1200
1296
976
800
672
400
144
-128
-368
-624
-832
-1184
-1472
-960
-96
0
0
-16
-16
128
1104
1248
944
768
656
416
160
-96
-336
-576
-784
-1120
-1440
-992
-128
0
0
0
0
96
1040
1264
976
800
672
448
176
-64
-288
-560
-768
-1120
1072
848
736
512
224
-32
-304
-560
-784
-1136
-1552
-1280
-256
-16
-16
0
-16
32
816
1360
1088
864
752
512
224
-48
-304
-560
-768
-1088
-1504
-1328
-288
-16
0
0
0
16
768
1392
1088
864
752
528
240
-32
-288
-560
-768
-1088
-1472
-1328
-336
-16
-16
-16
-16
16
720
1408
1120
880
752
528
240
-32
-288
-528
-736
-1008
-1408
-1344
-368
-16
0
0
0
0
640
1344
1104
880
768
560
272
0
-256
-512
-704
-992
-1392
-1392
-432
-16
-16
-16
-16
0
592
1376
1136
912
784
576
288
16
-240
-480
-688
-976
-1408
-1424
-496
-16
0
-16
-16
0
512
1360
1152
912
784
592
304
32
-224
-480
-688
-976
-1392
-1456
-544
-16
0
-16
-16
0
464
1376
1184
944
816
624
320
48
-224
-464
-704
-976
-1408
-1488
-592
-16
-16
-16
-16
0
416
1328
1184
928
800
624
352
80
-192
-432
-672
-944
-1392
-1536
-656
-32
0
0
0
0
352
1280
1184
944
816
656
368
96
-192
-432
-672
-944
-1376
-1568
-736
-32
-16
-16
-16
0
304
1264
1184
960
816
672
384
112
-160
-400
-624
-880
-1296
-1568
-800
-48
-16
-16
-16
0
256
1248
1216
976
832
688
400
128
-160
-400
-640
-896
-1312
-1584
-864
-64
0
0
0
0
224
1232
1232
992
832
704
432
144
-144
-400
-624
-848
-1248
-1568
-912
-80
-16
-16
0
0
192
1200
1248
976
832
704
432
160
-128
-384
-624
-848
-1248
-1552
-960
-96
0
0
0
0
160
1136
1248
976
832
704
448
176
-96
-352
-592
-816
-1216
-1568
-1056
-112
0
0
0
-16
128
1104
1264
992
816
688
448
176
-96
-336
-576
-800
-1168
-1536
-1072
-128
0
0
-16
-16
96
1040
1280
992
832
720
464
192
-64
-320
-576
-800
-1168
-1568
-1152
-160
0
-16
0
-16
80
1008
1296
1008
816
704
464
192
-64
-320
-576
-800
-1168
-1536
-1184
-192
-16
0
-16
-16
64
960
1328
1024
816
704
464
192
-48
-288
-544
-752
-1104
-1520
-1232
-224
0
0
0
0
48
880
1328
1024
832
720
496
208
-48
-304
-544
-752
-1088
-1504
-1280
-272
-16
0
0
0
32
832
1344
1024
816
720
512
240
-16
-256
-512
-704
-1040
-1488
-1344
-320
-16
-16
-16
-16
16
768
1376
1072
864
752
544
272
0
-272
-512
-720
-1040
-1488
-1376
-368
-16
-16
-16
0
16
720
1424
1104
864
736
528
272
0
-272
-528
-720
-1024
-1440
-1360
-384
-16
-16
-16
-16
0
624
1344
1088
864
720
528
272
16
-240
-480
-688
-960
-1392
-1392
-448
-16
0
0
0
0
576
1360
1104
880
752
544
272
16
-240
-480
-688
-944
-1360
-1424
-512
-16
0
0
-16
0
512
1344
1104
864
752
560
288
32
-224
-448
-656
-912
-1344
-1456
-560
-16
0
0
-16
0
464
1360
1152
896
768
592
320
64
-208
-448
-672
-944
-1360
-1504
-624
-16
-16
-16
0
0
416
1376
1184
912
768
576
320
48
-224
-464
-704
-928
-1344
-1472
-656
-32
-16
0
-16
0
336
1280
1136
880
752
576
304
64
-192
-432
-688
-944
-1360
-1552
-752
-32
-16
-16
-16
0
288
1264
1168
896
752
592
320
48
-208
-448
-720
-944
-1328
-1552
-800
-48
0
0
-16
0
240
1200
1152
896
736
592
320
64
-192
-432
-640
-848
-1232
-1504
-848
-64
0
0
0
-16
208
1216
1232
960
800
672
400
128
-144
-384
-608
-848
-1248
-1552
-928
-80
0
0
0
-16
192
1232
1328
1040
832
688
416
144
-144
-368
-560
-768
-1136
-1488
-960
-96
0
0
0
0
160
1168
1328
1040
864
736
448
176
-112
-336
-592
-832
-1216
-1568
-1040
-112
-16
-16
-16
-16
128
1136
1328
1040
864
736
464
176
-112
-352
-640
-880
-1232
-1600
-1120
-144
-16
-16
0
0
96
1056
1312
1024
848
720
464
176
-96
-336
-624
-832
-1168
-1552
-1136
-176
-16
-16
0
0
80
976
1296
1008
832
720
480
192
-64
-320
-592
-816
-1152
-1552
-1200
-192
-16
-16
0
-16
64
928
1344
1056
864
752
480
208
-64
-320
-544
-752
-1088
-1504
-1232
-224
0
0
0
0
48
864
1328
1056
864
768
528
224
-64
-320
-576
-800
-1104
-1504
-1264
-272
-16
0
-16
-16
32
800
1328
1056
848
752
512
224
-48
-320
-560
-784
-1104
-1488
-1312
-304
-16
0
0
0
16
720
1312
1056
848
752
560
256
0
-272
-512
-736
-1072
-1488
-1408
-384
-16
-16
-16
-16
16
672
1328
1072
848
752
560
272
16
-256
-496
-704
-1024
-1472
-1424
-416
-16
-16
0
0
0
624
1376
1120
880
768
576
304
32
-240
-464
-640
-960
-1408
-1440
-464
-16
0
-16
0
0
576
1392
1152
912
800
592
320
48
-224
-448
-624
-912
-1360
-1424
-512
-16
0
-16
-16
0
528
1392
1168
928
800
608
336
64
-208
-464
-672
-960
-1376
-1456
-560
-16
-16
0
-16
0
464
1360
1168
912
800
624
352
80
-192
-432
-656
-912
-1344
-1488
-624
-32
0
0
-16
0
400
1344
1184
928
800
624
352
96
-176
-432
-688
-944
-1360
-1520
-688
-32
0
0
0
0
352
1344
1200
944
800
640
368
96
-176
-432
-672
-912
-1312
-1520
-736
-32
0
-16
0
0
304
1312
1200
944
784
624
352
96
-176
-400
-640
-864
-1280
-1520
-800
-48
-16
-16
0
0
256
1280
1216
944
784
640
368
112
-160
-400
-640
-880
-1264
-1552
-864
-64
-16
-16
-16
-16
208
1200
1200
928
784
640
384
112
-144
-384
-624
-832
-1216
-1536
-928
-80
0
-16
0
-16
176
1152
1232
960
800
672
416
144
-112
-352
-592
-832
-1216
-1584
-1024
-112
0
0
-16
0
144
1104
1264
960
784
640
384
112
-144
-384
-624
-832
-1200
-1552
-1056
-128
0
-16
-16
-16
112
1072
1280
992
800
656
400
128
-144
-384
-608
-816
-1184
-1568
-1120
-144
-16
0
0
0
96
1024
1312
1008
800
672
416
144
-128
-384
-624
-816
-1168
-1536
-1168
-176
0
0
0
-16
80
976
1328
1008
816
688
432
160
-96
-336
-576
-784
-1120
-1504
-1184
-208
0
0
0
-16
48
912
1328
1040
848
736
496
208
-64
-304
-560
-768
-1104
-1520
-1264
-240
-16
-16
0
0
48
864
1360
1056
848
752
512
240
-32
-304
-544
-736
-1040
-1440
-1248
-272
-16
-16
0
-16
32
816
1376
1088
880
784
560
272
16
-256
-512
-736
-1040
-1488
-1328
-320
-16
-16
0
0
16
736
1376
1104
880
784
576
288
16
-240
-496
-704
-1040
-1504
-1408
-384
-16
-16
0
0
16
688
1392
1136
912
816
592
304
32
-224
-496
-720
-1040
-1472
-1408
-416
-16
-16
-16
-16
0
608
1376
1136
896
784
576
304
48
-224
-464
-688
-992
-1440
-1440
-480
-16
-16
-16
-16
0
560
1376
1152
912
784
592
304
48
-224
-464
-688
-976
-1392
-1440
-528
-16
-16
-16
-16
0
496
1344
1136
912
784
608
320
64
-224
-464
-672
-928
-1344
-1456
-576
-16
0
-16
-16
0
448
1344
1136
896
768
592
336
80
-192
-432
-640
-880
-1296
-1456
-624
-32
0
0
-16
0
368
1312
1168
944
816
640
368
96
-176
-416
-640
-896
-1328
-1520
-704
-32
0
-16
-16
0
336
1296
1168
928
800
640
368
112
-160
-400
-640
-880
-1280
-1520
-768
-48
0
0
0
0
288
1280
1200
960
832
672
400
144
-128
-384
-640
-896
-1312
-1584
-848
-48
-16
0
0
0
256
1312
1264
992
832
672
400
144
-128
-384
-624
-848
-1264
-1584
-912
-64
0
0
0
0
208
1280
1296
1008
832
672
400
128
-144
-384
-640
-848
-1248
-1552
-944
-80
-16
0
0
0
176
1216
1312
1008
832
688
432
144
-128
-384
-656
-880
-1264
-1584
-1008
-112
0
0
0
0
144
1136
1296
992
816
672
400
144
-128
-368
-624
-832
-1184
-1520
-1024
-128
-16
-16
-16
-16
112
1056
1296
1008
816
688
432
160
-96
-336
-576
-768
-1104
-1504
-1088
-144
-16
-16
-16
-16
80
1008
1296
1024
832
720
448
176
-80
-320
-544
-736
-1072
-1472
-1136
-176
-16
-16
0
-16
64
944
1328
1040
848
720
496
208
-48
-288
-512
-704
-1040
-1488
-1248
-224
-16
-16
-16
-16
48
896
1360
1072
896
800
544
240
-32
-304
-560
-768
-1104
-1504
-1280
-256
0
0
0
0
32
864
1424
1104
896
784
544
256
-16
-288
-560
-784
-1136
-1552
-1360
-304
-16
-16
-16
-16
32
800
1408
1120
912
800
544
256
-32
-304
-576
-784
-1104
-1520
-1376
-336
-16
0
-16
0
16
752
1456
1152
912
784
544
256
-32
-304
-560
-736
-1024
-1392
-1312
-368
-16
-16
-16
0
0
656
1376
1104
880
768
560
288
16
-256
-512
-704
-976
-1360
-1344
-416
-16
0
-16
-16
0
576
1360
1120
896
784
560
288
32
-240
-464
-672
-944
-1344
-1392
-480
-16
0
-16
-16
0
512
1328
1136
912
816
624
336
64
-208
-464
-704
-992
-1408
-1456
-544
-16
0
-16
-16
0
464
1328
1120
896
784
608
336
80
-192
-448
-704
-992
-1392
-1488
-592
-16
0
-16
0
0
416
1328
1168
928
800
624
352
96
-192
-448
-688
-960
-1408
-1536
-656
-32
-16
0
0
0
368
1328
1184
928
800
624
352
96
-192
-432
-656
-928
-1328
-1504
-704
-32
-16
0
0
0
304
1264
1184
944
816
656
384
128
-144
-400
-640
-912
-1376
-1632
-832
-48
-16
0
0
0
272
1264
1232
976
832
688
400
128
-160
-416
-688
-944
-1376
-1632
-880
-64
-16
-16
-16
0
224
1232
1248
960
800
672
400
144
-128
-384
-656
-928
-1360
-1648
-944
-80
0
0
0
-16
192
1216
1280
992
832
688
416
128
-144
-384
-640
-880
-1296
-1616
-992
-96
0
-16
-16
-16
160
1168
1264
976
800
672
416
128
-128
-368
-624
-848
-1216
-1568
-1024
-112
-16
-16
0
0
128
1088
1264
992
816
688
432
144
-112
-336
-560
-768
-1152
-1536
-1088
-144
0
0
0
0
112
1056
1312
1008
832
704
464
176
-96
-352
-608
-800
-1152
-1536
-1136
-160
-16
-16
-16
0
80
1024
1328
1024
816
688
448
192
-80
-320
-576
-768
-1120
-1536
-1200
-192
0
0
0
0
64
944
1312
1024
832
720
480
208
-64
-320
-576
-800
-1152
-1568
-1264
-240
-16
-16
-16
0
48
896
1344
1040
832
720
480
224
-48
-288
-544
-768
-1104
-1552
-1312
-272
-16
0
-16
-16
32
816
1344
1056
848
752
512
240
-16
-272
-544
-752
-1104
-1536
-1360
-320
-16
-16
0
-16
16
768
1360
1072
864
768
528
240
-16
-272
-528
-752
-1072
-1520
-1424
-384
-16
0
0
-16
16
704
1344
1072
864
768
544
256
0
-272
-528
-736
-1040
-1472
-1424
-416
-16
-16
-16
0
0
656
1392
1120
896
768
560
272
0
-256
-512
-736
-1024
-1440
-1440
-464
-16
-16
-16
-16
0
592
1408
1120
880
752
528
256
0
-240
-480
-656
-928
-1344
-1424
-512
-16
0
0
0
0
528
1392
1168
928
816
608
304
32
-240
-480
-688
-944
-1360
-1456
-560
-16
0
0
0
0
464
1376
1152
912
800
608
304
48
-208
-448
-672
-928
-1328
-1456
-608
-16
-16
0
0
0
400
1328
1168
928
816
640
352
80
-208
-416
-640
-896
-1328
-1504
-688
-32
-16
-16
0
0
352
1344
1216
960
816
640
352
80
-192
-416
-624
-864
-1248
-1472
-736
-32
0
-16
0
0
304
1312
1232
976
816
672
400
112
-160
-384
-576
-816
-1232
-1536
-832
-48
0
-16
-16
0
272
1328
1296
1008
848
704
416
128
-176
-416
-640
-864
-1232
-1520
-864
-64
0
0
-16
-16
224
1280
1296
1024
848
704
432
160
-144
-400
-640
-864
-1264
-1568
-928
-80
0
0
0
0
176
1216
1296
1024
864
736
464
192
-112
-368
-624
-832
-1216
-1536
-976
-96
0
-16
0
0
144
1152
1296
1024
864
736
480
208
-80
-336
-592
-816
-1200
-1552
-1040
-128
0
-16
-16
-16
112
1104
1328
1040
864
752
496
224
-48
-304
-576
-800
-1168
-1568
-1120
-144
-16
-16
0
-16
96
1024
1328
1056
864
752
512
224
-64
-320
-592
-816
-1152
-1536
-1152
-176
-16
-16
-16
-16
64
976
1344
1040
848
736
496
224
-64
-320
-608
-848
-1200
-1584
-1200
-208
-16
0
0
0
48
928
1376
1072
848
720
496
224
-48
-320
-544
-768
-1104
-1488
-1232
-240
-16
-16
-16
-16
48
864
1360
1056
848
736
512
240
-32
-288
-528
-720
-1056
-1456
-1296
-288
-16
-16
-16
0
32
800
1376
1104
880
784
560
272
-16
-272
-528
-736
-1088
-1504
-1376
-336
-16
-16
0
0
16
752
1408
1120
896
768
544
272
0
-256
-512
-720
-1040
-1456
-1392
-384
-16
-16
0
0
16
656
1360
1088
880
768
576
288
32
-240
-512
-736
-1056
-1472
-1424
-432
-16
-16
-16
-16
0
608
1376
1120
880
768
560
288
32
-240
-496
-720
-1024
-1440
-1456
-496
-16
-16
-16
-16
0
544
1376
1120
880
752
560
288
48
-224
-464
-672
-944
-1376
-1440
-528
-16
0
0
-16
0
480
1344
1152
896
784
592
320
64
-208
-464
-688
-960
-1424
-1520
-608
-16
0
-16
0
0
432
1360
1168
896
768
576
288
48
-208
-448
-672
-928
-1360
-1488
-640
-32
-16
0
0
0
368
1296
1152
912
768
592
336
80
-176
-416
-672
-944
-1408
-1584
-752
-32
-16
-16
-16
0
336
1344
1248
976
832
656
352
64
-192
-432
-656
-912
-1360
-1600
-816
-48
-16
-16
0
0
288
1312
1248
992
832
672
400
112
-176
-416
-656
-912
-1344
-1600
-848
-64
0
-16
0
0
240
1312
1312
1024
848
688
400
112
-176
-400
-624
-864
-1280
-1600
-928
-80
0
-16
0
-16
208
1232
1296
1008
832
688
432
144
-128
-368
-608
-832
-1232
-1568
-976
-96
0
0
0
-16
160
1184
1312
1024
848
720
432
144
-128
-352
-592
-816
-1216
-1584
-1040
-112
0
-16
-16
-16
128
1136
1344
1040
864
736
464
160
-112
-352
-592
-800
-1168
-1536
-1056
-128
0
0
-16
-16
112
1072
1328
1040
864
736
480
192
-96
-336
-576
-784
-1136
-1520
-1120
-160
-16
-16
-16
-16
80
1024
1344
1056
864
736
496
208
-80
-336
-592
-800
-1136
-1536
-1184
-192
-16
-16
-16
-16
64
960
1344
1072
880
768
512
224
-64
-320
-592
-784
-1120
-1552
-1280
-240
-16
-16
0
0
48
880
1344
1072
880
784
560
256
-32
-304
-608
-848
-1184
-1616
-1360
-288
-16
-16
-16
0
32
832
1376
1088
880
784
544
256
-32
-320
-592
-816
-1136
-1568
-1376
-320
-16
0
-16
0
16
784
1392
1104
880
768
528
256
-32
-304
-560
-752
-1040
-1456
-1344
-352
-16
0
-16
-16
16
704
1344
1072
848
736
528
272
-16
-288
-512
-688
-960
-1360
-1312
-384
-16
0
0
0
0
624
1344
1088
864
752
528
272
16
-256
-480
-672
-944
-1344
-1344
-432
-16
0
0
0
0
560
1344
1120
896
784
592
320
64
-208
-464
-704
-1008
-1440
-1504
-528
-16
-16
-16
0
0
512
1376
1152
912
800
608
336
64
-224
-496
-720
-1008
-1424
-1520
-592
-16
0
0
-16
0
464
1408
1200
944
816
640
368
96
-192
-448
-704
-1008
-1440
-1568
-656
-32
0
0
-16
0
416
1392
1216
960
816
640
352
96
-208
-464
-688
-960
-1392
-1568
-720
-32
0
-16
-16
0
352
1312
1200
960
832
672
384
112
-160
-400
-640
-896
-1344
-1568
-784
-48
0
-16
-16
-16
304
1328
1232
960
816
656
384
128
-160
-400
-640
-912
-1344
-1568
-816
-48
-16
-16
-16
-16
256
1296
1264
976
800
656
384
112
-160
-400
-656
-912
-1312
-1568
-864
-64
0
0
0
0
208
1232
1232
944
800
640
368
112
-160
-400
-624
-848
-1216
-1488
-896
-80
0
0
0
0
176
1184
1264
976
800
672
416
144
-112
-368
-608
-848
-1216
-1536
-976
-96
0
-16
-16
0
144
1136
1280
992
816
688
416
160
-112
-352
-592
-800
-1168
-1520
-1024
-112
0
0
-16
-16
112
1056
1280
1008
832
720
464
192
-64
-320
-576
-816
-1232
-1648
-1168
-160
-16
0
-16
-16
96
1088
1376
1056
848
736
464
192
-80
-336
-608
-816
-1184
-1584
-1200
-192
0
-16
-16
-16
80
1008
1376
1056
848
720
480
192
-80
-320
-576
-784
-1152
-1552
-1216
-208
-16
0
0
0
48
944
1392
1072
848
736
496
208
-64
-304
-560
-752
-1104
-1520
-1280
-256
-16
-16
-16
-16
32
880
1392
1072
864
736
496
208
-48
-272
-512
-704
-1024
-1472
-1312
-288
-16
0
0
-16
32
800
1392
1104
880
768
544
240
-16
-272
-544
-768
-1088
-1552
-1408
-352
-16
0
0
0
16
720
1376
1104
896
784
560
256
-16
-272
-560
-816
-1136
-1600
-1456
-400
-16
0
-16
-16
16
656
1392
1120
880
784
560
272
-16
-288
-560
-816
-1120
-1568
-1504
-448
-16
-16
-16
0
0
608
1392
1152
896
784
560
256
-16
-288
-528
-752
-1040
-1488
-1488
-496
-16
-16
-16
-16
0
544
1392
1152
912
768
576
272
0
-272
-496
-720
-992
-1408
-1488
-560
-16
-16
-16
-16
0
496
1376
1152
912
784
576
288
16
-256
-464
-672
-928
-1328
-1456
-592
-16
0
0
0
0
416
1312
1152
944
816
656
352
80
-208
-448
-656
-912
-1328
-1536
-688
-32
-16
0
0
0
368
1344
1216
960
832
672
384
96
-208
-448
-672
-928
-1344
-1552
-736
-32
0
0
-16
0
320
1344
1264
992
848
688
416
128
-176
-416
-640
-912
-1360
-1616
-832
-48
0
-16
-16
0
288
1376
1328
1040
864
704
416
128
-176
-416
-624
-864
-1280
-1536
-864
-64
0
0
0
-16
240
1296
1312
1040
864
704
432
144
-160
-400
-640
-864
-1248
-1536
-912
-80
0
-16
-16
-16
192
1200
1280
1024
864
736
464
160
-128
-400
-656
-880
-1264
-1616
-1024
-96
-16
0
0
0
160
1200
1328
1040
848
704
448
160
-144
-416
-688
-912
-1296
-1632
-1072
-112
-16
-16
0
-16
128
1136
1312
1024
832
688
416
144
-144
-400
-656
-880
-1248
-1632
-1136
-144
-16
-16
-16
-16
112
1088
1344
1056
864
736
480
192
-96
-352
-608
-816
-1184
-1600
-1200
-176
0
0
0
0
80
1008
1344
1072
880
752
512
224
-64
-336
-608
-832
-1184
-1568
-1216
-208
-16
-16
-16
0
64
944
1360
1088
880
768
528
256
-32
-304
-576
-784
-1136
-1568
-1280
-240
0
-16
-16
0
48
896
1392
1072
864
752
512
256
-16
-288
-544
-768
-1104
-1520
-1296
-288
-16
-16
-16
-16
32
848
1392
1072
864
736
512
240
-16
-288
-544
-736
-1056
-1456
-1296
-304
-16
0
-16
0
16
752
1360
1072
864
752
544
272
32
-240
-480
-704
-1024
-1440
-1360
-368
-16
-16
0
0
16
688
1376
1104
896
816
592
304
48
-240
-496
-704
-1040
-1488
-1456
-432
-16
0
-16
0
0
640
1424
1136
896
784
592
320
48
-224
-512
-752
-1056
-1504
-1488
-480
-16
-16
-16
-16
0
576
1456
1200
944
816
608
304
48
-224
-496
-736
-1056
-1520
-1568
-560
-16
-16
-16
-16
0
528
1440
1200
928
800
592
288
32
-240
-496
-704
-976
-1424
-1552
-608
-16
-16
-16
-16
0
448
1424
1216
960
816
624
320
64
-192
-432
-656
-928
-1392
-1584
-704
-32
0
0
0
0
384
1360
1216
976
848
672
384
96
-192
-432
-656
-912
-1376
-1616
-768
-32
0
0
0
0
336
1376
1264
992
848
672
400
128
-160
-400
-656
-928
-1376
-1632
-816
-48
0
0
0
0
288
1360
1312
1024
848
688
400
112
-176
-432
-672
-928
-1360
-1616
-880
-64
0
0
0
0
240
1312
1312
1008
848
688
400
128
-160
-416
-656
-880
-1280
-1584
-928
-80
-16
0
-16
-16
208
1280
1312
1008
832
672
400
112
-160
-400
-640
-864
-1248
-1552
-976
-96
-16
-16
-16
-16
160
1184
1296
1008
832
688
416
144
-144
-368
-624
-832
-1232
-1584
-1056
-112
0
0
-16
-16
128
1120
1312
1008
848
704
448
160
-128
-368
-640
-864
-1232
-1584
-1088
-144
-16
-16
0
0
96
1040
1312
1024
864
736
480
192
-96
-336
-592
-816
-1216
-1632
-1216
-176
0
0
0
0
80
1008
1360
1088
896
768
512
208
-80
-352
-592
-816
-1200
-1632
-1280
-208
0
-16
-16
-16
64
976
1408
1104
896
784
528
224
-64
-352
-592
-784
-1136
-1584
-1296
-240
0
0
0
0
48
912
1408
1104
880
768
512
240
-48
-304
-560
-736
-1072
-1504
-1296
-272
-16
0
-16
-16
32
848
1424
1120
880
768
544
240
-32
-304
-576
-768
-1056
-1440
-1280
-304
-16
0
0
-16
16
752
1392
1104
880
768
528
240
-16
-272
-528
-720
-1008
-1440
-1360
-368
-16
-16
0
0
16
672
1376
1136
912
816
592
288
16
-256
-512
-736
-1040
-1488
-1488
-448
-16
-16
0
0
0
624
1392
1168
928
832
624
320
32
-256
-528
-768
-1072
-1536
-1520
-496
-16
0
0
-16
0
576
1440
1184
928
816
624
336
32
-240
-496
-752
-1072
-1536
-1568
-560
-16
-16
-16
-16
0
512
1408
1184
944
832
640
352
64
-240
-480
-704
-1008
-1456
-1568
-624
-16
-16
-16
-16
0
464
1408
1200
944
816
640
368
80
-224
-464
-704
-976
-1408
-1552
-672
-32
0
-16
-16
0
400
1392
1248
976
848
672
384
96
-192
-432
-656
-928
-1344
-1552
-720
-32
0
-16
0
0
336
1360
1248
992
848
688
400
128
-176
-416
-640
-912
-1312
-1552
-784
-48
0
0
0
0
288
1344
1264
992
848
688
416
144
-144
-400
-656
-896
-1312
-1568
-848
-64
-16
0
0
0
240
1296
1264
976
832
688
432
160
-128
-400
-656
-896
-1312
-1584
-912
-80
-16
-16
0
0
208
1248
1296
1008
848
720
448
176
-112
-384
-624
-864
-1280
-1600
-992
-96
-16
0
0
0
176
1232
1344
1040
848
704
448
176
-112
-368
-624
-848
-1232
-1584
-1040
-112
0
0
-16
-16
128
1168
1360
1056
864
736
464
192
-96
-352
-624
-832
-1232
-1616
-1120
-144
0
0
-16
-16
112
1120
1392
1072
864
736
464
192
-80
-352
-624
-816
-1184
-1552
-1152
-160
0
0
0
-16
80
1008
1344
1040
848
736
496
224
-48
-304
-640
-880
-1248
-1632
-1232
-192
-16
-16
0
0
64
944
1360
1072
864
736
480
208
-48
-304
-576
-800
-1152
-1600
-1312
-240
-16
0
0
0
48
896
1392
1088
864
752
512
224
-48
-304
-560
-768
-1104
-1536
-1328
-272
-16
0
-16
-16
32
832
1392
1120
896
768
528
240
-16
-272
-512
-720
-1056
-1536
-1376
-320
-16
-16
0
0
16
768
1424
1136
912
784
560
256
-16
-272
-512
-720
-1024
-1472
-1392
-368
-16
0
0
0
16
704
1424
1152
928
816
592
288
16
-256
-512
-736
-1040
-1488
-1440
-416
-16
-16
-16
-16
0
640
1424
1168
928
816
592
304
16
-256
-512
-736
-1040
-1488
-1488
-496
-16
-16
-16
0
0
592
1472
1216
960
816
592
288
16
-256
-480
-688
-976
-1424
-1504
-544
-16
-16
-16
-16
0
512
1424
1216
976
832
624
320
32
-240
-512
-768
-1040
-1488
-1552
-608
-16
0
0
0
0
448
1392
1200
944
816
624
304
32
-256
-496
-784
-1056
-1472
-1584
-656
-32
0
0
0
0
384
1328
1184
928
800
624
320
32
-256
-512
-768
-1024
-1440
-1584
-720
-32
0
0
-16
0
336
1328
1200
928
800
624
320
48
-240
-496
-752
-992
-1376
-1552
-768
-48
-16
-16
-16
0
288
1248
1168
912
784
624
352
80
-192
-432
-640
-880
-1280
-1536
-832
-48
-16
-16
-16
-16
240
1248
1232
960
800
656
368
96
-192
-416
-624
-864
-1280
-1600
-928
-80
0
0
-16
-16
192
1184
1248
992
864
736
448
160
-144
-384
-624
-880
-1312
-1680
-1040
-96
-16
-16
-16
-16
176
1200
1312
1040
864
736
464
160
-144
-400
-656
-880
-1280
-1664
-1088
-112
0
-16
-16
-16
144
1184
1344
1056
896
768
496
192
-96
-368
-624
-832
-1232
-1616
-1136
-144
0
-16
-16
0
112
1088
1344
1056
880
752
512
224
-64
-336
-560
-768
-1168
-1600
-1184
-176
-16
-16
0
-16
96
1072
1408
1104
880
752
480
224
-64
-320
-544
-736
-1104
-1504
-1168
-192
-16
-16
0
0
64
976
1344
1040
832
736
496
240
-48
-304
-528
-720
-1056
-1456
-1184
-224
-16
-16
0
-16
48
944
1392
1072
848
752
512
256
-16
-288
-560
-784
-1104
-1504
-1248
-256
-16
0
0
0
32
832
1360
1040
848
752
544
272
0
-272
-544
-784
-1136
-1584
-1392
-336
-16
0
-16
-16
16
768
1392
1104
896
800
576
288
0
-272
-560
-784
-1136
-1568
-1440
-368
-16
0
0
-16
16
720
1440
1136
896
784
576
288
16
-240
-512
-736
-1088
-1552
-1488
-432
-16
-16
-16
-16
0
656
1440
1168
912
784
560
272
0
-272
-512
-704
-976
-1408
-1408
-448
-16
-16
-16
-16
0
592
1408
1136
880
768
560
288
32
-240
-480
-688
-944
-1360
-1424
-496
-16
-16
-16
-16
0
512
1376
1152
912
784
592
320
64
-208
-464
-672
-960
-1408
-1552
-608
-16
0
-16
-16
0
448
1392
1200
960
832
672
368
80
-208
-480
-736
-1008
-1440
-1600
-672
-32
0
0
0
0
416
1424
1248
960
816
624
336
80
-192
-464
-752
-1040
-1472
-1648
-736
-32
0
0
0
0
352
1392
1264
960
800
624
336
64
-208
-448
-736
-992
-1408
-1600
-784
-48
-16
0
0
0
-592
-816
-1216
-1584
-976
-80
0
0
-16
-16
176
1232
1360
1072
864
720
