-576
848
224
-1392
-640
-1088
80
384
-656
-1216
-1488
0
-624
-432
480
160
560
160
-672
-480
-912
688
1184
1152
848
208
192
1344
1232
704
1424
176
-912
-160
16
272
-1456
48
464
1680
480
528
496
-1600
-928
-1216
-848
-768
-976
-128
432
1008
-880
-1136
-1824
-1104
-208
-560
-1136
464
32
672
-1104
752
-48
-880
-784
-1312
-480
1808
256
432
-992
-528
976
-624
-608
464
272
-64
64
-1488
-1632
-416
-944
-368
-496
-1344
928
1856
1888
-608
-112
1136
-480
-432
-1024
-736
48
96
-1424
-752
112
-848
-800
656
800
880
-400
-368
736
480
-704
-1568
512
368
-208
1248
-1440
-640
-256
688
64
-624
96
-64
-912
-336
-912
848
608
-1632
-1184
768
336
-384
576
432
128
352
1056
-96
1536
1504
1152
960
480
528
1472
144
-1072
-1472
-1968
-624
-1120
224
288
-1744
-2000
-1120
-176
-384
-1184
-1168
-1216
256
-1136
-1024
-992
-1616
-1264
1216
400
-96
544
-592
-592
-144
48
-800
-464
-1424
592
480
1552
1408
-320
-224
-224
544
1104
432
416
-160
240
544
704
-752
-432
1776
304
832
336
-688
656
128
-1152
-2032
-704
-1472
-560
528
352
0
-1136
-560
-1744
320
48
-1568
-1424
1376
-272
-432
-976
432
1936
1104
-1328
-1968
928
96
-192
160
-1360
224
192
-256
800
1600
112
928
1296
1296
-64
256
736
-64
-784
-672
-1216
-928
-496
-1808
-1600
176
-400
224
-160
272
-576
-992
-1520
-672
-48
624
448
-336
1472
-256
-272
528
1840
48
224
832
-16
-1056
-1024
240
160
-832
816
1024
480
-256
-1008
1200
464
-1376
-432
-128
-720
-704
624
-640
784
800
784
1792
1472
1120
-544
-448
976
896
496
-704
-1152
608
1216
1728
-96
-704
-144
-432
48
1392
224
-192
144
576
-192
1472
368
1552
432
-1568
-656
544
-224
-1840
-704
-208
592
0
1984
576
-368
-752
1104
-256
160
96
128
-912
-448
688
-400
-208
-16
-352
-336
1104
-416
-1968
368
128
544
752
1232
736
1312
1392
1584
944
48
1904
1328
1104
-848
144
1072
800
608
1040
-560
-1344
-864
-1584
-1968
-1696
-1392
-288
-2032
-800
544
1312
320
-864
496
-256
-1520
-48
656
688
-160
352
528
1296
592
1280
544
128
1360
816
-48
-1808
-1424
-784
-176
-400
-800
-752
-1408
-816
224
-448
-1024
-928
-752
-608
-1072
-272
-784
912
944
48
720
-432
-1024
-416
592
16
720
768
256
496
-544
560
400
2000
416
320
752
-1264
192
-16
-32
352
-368
-1776
832
896
-432
-288
1296
-256
-784
480
144
416
272
-560
-752
-656
-96
816
-1648
-1040
240
-368
48
-880
-544
-384
-1408
-352
1312
2032
1648
992
-160
448
-224
-896
-144
1280
464
640
800
400
64
1040
928
-384
-960
-80
416
-624
-288
-1568
736
0
-1024
-1184
-64
-80
944
960
352
496
-736
-736
-112
-992
1024
1168
784
96
64
368
288
400
416
-80
-480
-688
48
224
192
16
112
-864
-1824
-32
1264
1840
320
-784
-1376
-80
-352
32
704
1024
1808
-576
608
-1040
-256
-608
1184
576
592
640
-256
816
912
752
1728
-656
-640
272
288
288
-400
-960
-112
-560
176
-400
-320
16
-544
-1216
-496
-1920
-1168
-1040
-880
1568
1792
-1152
-1408
0
-1376
512
800
-912
-1152
752
-1408
-464
-848
-464
1536
1952
-896
-544
256
368
1728
1792
16
384
-384
-1088
-448
-656
-784
-464
-128
1472
1552
1008
48
96
-176
-688
-496
-1280
-704
336
1792
1504
1296
80
-576
1440
384
368
208
1408
1504
1376
64
288
32
240
-1328
-1584
320
1616
-448
160
2032
-368
608
1424
720
576
-384
464
208
-160
640
1824
1168
1088
1328
1264
-1728
-1616
-1312
-1568
-432
-384
-32
1216
1216
-288
368
416
-992
-1088
-528
-1984
-1472
368
176
-1600
-1008
-1376
-1696
-1904
-160
-512
-848
64
880
-640
-64
-1024
832
880
1056
-400
784
432
48
320
-80
-544
-896
720
-384
-464
1264
672
-896
-304
-2032
960
416
-304
-320
-1344
176
1824
-64
96
64
-800
-1984
-1264
-416
-112
800
512
128
1392
368
-384
-544
-1552
-608
-928
-896
1408
1536
-864
-848
1520
-512
-64
-544
-96
464
272
960
1456
1760
512
-1008
368
-208
-176
1312
-304
288
640
-224
-144
1856
400
1008
1216
1056
-624
-1136
-1696
-208
112
16
1312
816
960
1008
-704
1520
384
-560
1360
640
1280
1056
688
-112
-752
416
-64
-576
1040
448
-672
-608
608
384
1216
-896
-784
-1264
-1776
-192
-672
128
1472
768
960
1984
80
816
-400
688
-512
464
-448
-1616
-176
-304
-368
-960
-1456
-592
176
-288
-1632
-1024
-656
944
-64
-1840
-1360
-1536
288
1840
896
-432
-784
-1792
-816
704
-368
-1296
288
656
544
-512
688
-1088
-1248
16
976
384
1696
784
624
-48
-272
-512
-592
240
2016
224
16
1472
80
-416
-192
1120
288
-48
-1600
-192
-448
464
-480
-848
80
176
496
832
-880
-1520
-1456
-144
288
-112
-1024
-1344
-1840
1824
896
832
-256
-384
176
1392
-1088
-1536
1072
-96
32
1296
1168
-1920
-560
688
816
736
512
-64
-640
-1312
1296
-400
672
-544
-560
848
1168
16
1920
1664
-80
-768
272
1728
720
-624
-192
-240
-1216
-128
-1264
-1184
-1040
-400
-1456
880
-112
-1408
-320
-32
576
-144
1040
-784
-1104
-368
1440
-144
-1376
-16
160
-64
-1008
288
1376
160
1712
336
-848
-1328
-1568
64
-1072
-1536
1120
192
256
-656
864
512
480
624
752
-352
-1904
-16
-416
560
528
848
320
-320
320
1664
528
1184
288
480
368
-496
832
752
896
-448
0
-512
704
240
-176
704
976
1728
1184
-1712
-96
1056
-416
1232
992
544
304
592
416
176
-1488
-1120
-608
-512
0
-144
1264
320
-1216
480
112
-208
1248
1600
1504
1200
1296
-352
288
-1392
-1248
592
-576
-1584
144
-448
-592
176
208
176
1952
1280
864
-1168
240
-32
-144
1664
528
864
1376
800
112
464
-1088
-1152
-128
-416
1840
2032
1072
-928
480
1552
592
-528
-896
-64
-1120
1616
-752
-480
-1696
-1488
-560
1472
1120
240
-320
-464
-2032
-1488
-48
416
-384
-992
240
-624
-624
-432
672
592
-384
96
432
-1040
0
-784
-1952
-320
576
-1120
-624
-448
16
-224
-1568
496
-464
1408
-240
-848
752
-528
-1040
736
16
32
656
-1248
-704
-784
-1952
-1328
-208
-96
480
-624
-560
-96
480
-1072
-992
-464
48
560
-192
-1280
240
576
-992
-1344
-1168
-816
480
320
1200
736
-144
-880
16
208
-1392
-1456
-208
160
-992
-544
96
864
928
-704
-224
-592
912
1024
-336
816
-288
-368
-16
352
672
288
656
-864
-768
-288
96
-320
-160
816
-448
736
240
-1920
304
624
1440
208
1888
-48
-160
-1680
-1280
192
288
-1088
-1088
496
1152
-864
1152
1584
-1312
-160
-1520
-704
912
688
400
688
32
16
288
-64
1216
-384
-528
-1088
0
-192
-1472
-1168
80
480
752
-384
-320
-768
-112
1104
-256
-16
352
448
480
-720
-1312
-112
-240
-64
1072
-1232
-64
1488
1200
-240
432
816
320
1040
1184
-240
-368
-608
-1648
32
128
288
64
16
-304
656
32
-144
336
624
16
-832
-1136
-880
-672
-48
752
1104
-432
128
1120
0
-880
32
-352
-144
-640
-864
1216
1040
880
416
928
1936
-1152
-352
-288
384
544
704
-224
240
0
784
1648
352
-128
528
-1520
-1072
896
1424
-1200
-416
96
304
-304
1360
816
-240
768
512
-368
448
1392
1808
1280
800
224
-1808
-1984
736
32
336
-928
-1840
-96
32
-288
880
1072
-1984
-944
-144
1776
448
320
656
1664
480
1856
1328
160
0
-464
-912
-672
720
-1296
-432
-480
752
1568
32
-1232
16
448
304
-416
240
256
-1424
352
400
-336
448
-1152
544
1104
-1280
-1008
-816
-1664
544
-1136
-992
480
464
-288
80
-272
-816
-1424
-976
384
1280
624
-1344
-1184
256
272
1184
80
-32
-656
1088
-880
-128
672
1328
720
-16
-448
-784
-80
608
1184
-800
512
-1392
-1408
-1040
-768
480
352
-48
-1120
480
416
-432
912
256
704
448
-16
-496
-1088
-1104
96
-400
-704
-1872
-1680
288
736
416
144
-1760
-112
1376
-976
336
-352
-272
-624
-560
-704
0
544
1728
1072
160
-448
-1408
144
-1632
-1504
-80
48
-496
-832
160
-560
-256
960
384
-1760
-832
-96
-1232
-1328
-1040
544
-592
560
816
464
240
576
-1584
-112
-1872
-576
1264
-464
1232
1072
-928
656
352
-192
1120
80
1312
1056
528
-1312
-1824
-192
-464
-16
256
224
432
-1344
-1392
-880
-80
560
-1248
-400
912
688
592
736
384
672
544
-736
-432
352
752
720
-864
-832
1072
1216
1120
224
1152
272
1200
976
720
-656
-688
128
0
-144
0
544
-1408
64
1712
848
-704
-832
-608
-368
848
160
848
-496
-336
16
912
-160
-1088
384
1424
1120
-736
-1456
-1136
528
272
784
1008
288
-352
816
1936
-1248
-1488
-1488
80
-240
-560
1600
736
-1376
-896
704
-576
576
432
208
960
704
256
384
320
432
720
144
-848
-1872
-848
-416
384
-720
-1568
-992
-1136
-528
160
-1120
-800
-1632
-32
768
48
592
-784
-1344
-1312
-320
1152
1168
-32
-1360
-544
-992
1856
720
720
736
864
1456
1472
-96
-288
112
-1312
-2016
-112
848
624
688
352
528
-352
-352
-272
-80
96
1264
1152
944
-608
-944
-336
-1104
-848
192
384
208
-640
-16
-1424
368
-1104
-1104
-736
480
192
752
-256
-1616
-1632
-448
-240
1888
688
592
-144
16
-640
-1504
-928
160
-848
-1376
880
-1136
-1296
-1312
-1408
-208
-1040
-1120
-1248
-1600
-944
-608
368
1440
864
-208
-1744
352
832
544
-544
-832
-688
-976
-448
-1856
-640
-944
-832
-1392
-960
-1152
112
-832
0
720
16
1088
1904
288
160
-512
-1968
-208
-1456
304
1488
1008
-416
48
128
1408
-224
-1632
-1024
-1120
960
-400
-256
-48
-912
624
1216
1936
1376
896
1648
-304
96
-1632
-128
544
1552
288
80
960
32
-416
1040
96
-1952
-1280
-960
-176
848
1920
608
912
496
-272
208
208
208
1040
-240
-1456
-848
-800
-1328
-1168
-1088
-592
-848
-496
176
928
1120
304
112
1360
-432
848
32
-768
-1792
832
368
832
-1664
128
816
-896
480
-640
-112
272
608
-464
288
-496
208
784
-480
-128
-32
1232
912
960
688
-400
768
384
544
1456
1056
-128
-1776
-944
-560
176
-736
-864
-832
-960
176
1216
1920
864
800
-784
192
336
192
640
288
608
-784
-464
784
352
32
464
224
-448
304
720
784
-480
16
64
1024
1328
592
-624
-1152
-480
-720
-192
-256
-672
720
1392
176
384
-1552
-624
-1248
-704
-400
-896
-448
-320
96
1072
192
-1696
-544
48
320
-480
912
128
-640
-1136
208
464
-304
480
1200
896
16
816
112
-304
64
-320
-1088
224
480
624
432
-720
256
1376
1328
1424
976
1264
1920
224
-1152
688
880
-1248
1232
272
-304
416
288
-224
-1872
-1216
-1792
-32
64
464
432
656
-112
-896
720
1728
784
400
-320
-112
-1936
-832
-1200
-304
1024
320
-1072
-1008
-752
912
672
656
368
512
-176
432
-608
208
-368
-272
880
1024
256
-160
1344
1520
144
-1168
592
-1104
-240
672
-1520
224
1648
336
-1280
-160
-1248
-1200
-1776
-176
-944
-560
-320
448
272
1408
560
-96
-176
-608
48
960
-976
-1456
-1968
-160
-1728
-1472
-576
208
-512
672
-944
-704
-512
432
-752
-512
-416
-320
-1152
0
304
-976
-1360
-960
-1088
720
864
656
-1056
-592
-736
-320
0
416
160
-432
848
-80
-1920
304
-32
-576
336
1424
576
-304
-160
-1328
-496
-1488
64
48
1120
304
-656
-1040
-896
-1088
816
1024
352
-1456
-928
-1568
-1792
-656
-880
112
-976
-736
-160
-1312
-48
912
976
-192
-1344
880
832
528
1344
1376
976
1040
672
192
-448
-960
496
768
384
1424
-96
1168
1344
128
-688
-2000
1072
1248
352
-1056
160
240
-416
672
-544
-1872
-560
240
-192
-752
-480
-1168
-1664
1056
0
-576
-992
-912
-1360
-80
272
1680
656
-624
1440
1024
-1232
-624
-608
256
-880
-48
224
112
640
320
608
1120
-752
-880
608
1568
464
320
464
144
1728
16
1168
464
528
-800
-1264
-1264
-656
-256
-592
112
1296
0
1296
880
-176
-1056
80
192
1200
1264
1104
-288
1024
576
288
960
544
880
1392
176
-1504
144
-336
1552
1488
848
1328
-864
-672
-768
1216
-912
384
176
400
256
1088
224
-528
-384
-1568
-1040
-816
256
448
-1280
-896
-16
112
-464
320
688
-768
-48
1456
-320
544
-1856
-672
-592
384
0
-48
768
144
-976
-1760
288
1008
32
-528
-1040
112
-1312
-1344
16
400
416
1584
1472
1168
640
-112
-256
480
1488
1584
-720
528
1104
-1184
608
-976
-1232
416
1808
192
-224
-272
-224
-592
1584
320
-384
-1296
-1296
-704
1760
1360
1264
-1952
368
272
1008
128
1168
-112
-1008
-352
1792
144
208
-176
-192
-224
1424
-960
-992
-1792
-1616
-1168
512
240
-240
-1376
-1328
-1056
-816
544
-560
880
-768
-1520
-416
432
1152
-1168
-1184
48
896
-288
-96
368
-288
-1280
-1184
-1296
-960
1408
1808
384
-752
1536
704
528
-1728
-576
1328
736
-256
-352
-1296
1216
1968
416
-1696
-624
-1696
-592
-1488
-1536
-864
1296
464
-560
240
144
-224
64
240
1488
1328
96
1552
528
320
416
176
1360
-816
1728
576
1216
-64
496
48
1360
1552
-96
704
1312
1248
-256
-832
400
-464
-160
928
-1408
-896
800
1360
304
0
816
224
160
-1472
304
-640
-1648
-1392
368
816
-160
48
1440
-208
-336
240
-1328
256
-368
-1280
-624
-96
368
-336
-1344
-256
560
1344
656
-208
160
-1216
-192
928
768
-1040
368
448
-1376
112
-1360
336
1312
0
-480
64
-1888
-352
-1376
-928
272
688
-208
-576
-1008
304
-224
960
1904
-528
1152
1536
1856
304
544
944
-496
-1280
640
864
-400
-1184
1088
976
384
-384
-1648
-320
-320
272
-176
176
-1008
-192
-624
176
288
-1024
-1312
-1072
-720
1312
480
512
1648
1200
1664
96
-480
208
-256
576
-528
1552
-208
-496
1296
1824
432
352
624
-384
-1904
-976
-2048
-48
-848
64
1200
96
-1152
224
1552
1232
848
-656
-992
-352
-416
304
-96
720
224
-16
-1040
-1680
-176
80
448
-576
-368
-624
-240
-1296
-848
-912
-1392
432
480
1296
720
1136
-352
176
-880
-1296
-1600
-1072
-1648
-464
-256
928
1776
96
944
-144
224
656
0
-816
-848
384
1072
1296
1424
1824
1280
-704
32
544
368
-1456
-336
-560
304
-1120
-1472
-544
528
144
-352
944
784
-960
-880
-1536
-912
-288
-1408
-1760
-400
1904
1824
880
-1584
-752
-544
-1552
-496
656
1120
1808
640
1104
-624
-400
1440
-16
-368
-480
448
-384
-944
128
-1424
-640
-448
480
784
816
-32
-1552
464
1184
-208
1168
1360
352
144
160
-1680
-688
-1008
-1024
-1808
-944
1616
1072
-1936
-192
768
688
1392
736
-928
-1280
-512
-1280
640
-272
720
-256
-592
192
1232
-448
816
608
624
-1104
-272
-1456
-1088
-912
-1152
48
1520
624
-256
-320
1184
-48
-640
-848
112
-112
1472
128
-272
1280
544
-688
-752
-176
512
1280
480
-400
-1328
-272
384
928
1200
-656
-1536
208
976
272
112
640
1520
-80
320
-1008
-592
-976
-816
-352
-720
1984
1824
1984
464
1280
592
608
-720
112
-2032
-64
1248
1360
-720
-816
160
2016
416
384
-336
176
-448
1600
576
-480
928
1136
128
128
-400
496
-704
-1296
736
416
1296
288
688
864
-672
-816
-192
-768
-992
576
976
656
-432
-832
-1248
-1264
-1616
-432
-944
-160
304
1056
-1504
-1120
-1120
224
1200
-832
-1280
-480
1744
-64
-944
-240
1200
1120
112
-1424
848
256
256
-240
-288
-16
-1088
-704
-880
608
1584
592
1424
1584
384
-32
-2000
-1312
1152
928
1840
-80
-1840
-832
256
144
496
1200
656
1008
-16
-256
736
704
384
496
-1728
272
128
272
1296
1088
-960
-1024
208
16
464
272
-1200
-80
1072
368
-720
112
1184
0
1184
-512
672
1072
336
1696
1488
1536
1184
-432
-1040
144
144
-416
48
-112
720
-1328
-1104
-384
16
-992
-752
-512
-1264
-1088
-480
-1216
-1296
1584
752
-944
-864
848
1488
1312
-1072
-1344
336
768
816
896
1328
1184
592
-528
-688
-688
-912
1440
1664
384
112
320
800
208
-272
768
-1920
-592
-144
-1328
-176
96
1040
-688
-1056
-768
944
160
1584
-592
-448
-480
-112
-1072
-560
-448
-176
-1440
-544
-368
1296
336
-1248
-16
400
-896
-1728
-480
848
-368
0
1104
752
-1584
-144
-1040
-448
-656
1536
400
-1392
896
-688
-272
-1232
-880
-192
-816
-96
-480
1488
688
80
672
-128
992
-1328
480
672
-544
-752
496
1392
1040
1536
608
-208
-832
96
-64
-272
-480
-1248
144
1664
800
624
1216
320
1392
-1440
-352
-816
1360
112
-32
-640
-304
208
48
400
1376
-1040
240
704
-128
304
832
624
-208
1136
432
-944
400
848
512
-304
400
-32
-672
560
-208
-576
-1904
-688
-64
752
-368
-960
1056
-320
0
-96
1360
1120
800
1024
1504
448
-144
-832
800
1488
48
-224
-640
144
-336
-336
-128
1408
1152
-32
176
32
-224
896
160
-304
-336
-96
-544
-336
-256
224
1248
672
32
-656
-864
-1760
-960
560
272
-1536
-784
832
-672
1072
240
-192
1088
880
-112
-1056
-1280
-224
-128
1408
2000
784
-912
128
-96
352
736
1424
-1152
592
992
448
-992
-720
368
1840
592
368
272
-752
-1152
-1168
208
400
672
1696
352
160
-1216
-112
304
1104
-1488
-1152
64
-496
32
112
-224
-192
-16
0
-224
-1248
-720
-1648
-384
-592
656
272
-592
-384
-1056
-368
416
-608
-1248
464
112
400
1040
-112
-1328
32
1152
32
176
-944
-1408
-144
-464
-1680
-368
-528
528
368
80
1376
320
-512
816
1616
1120
336
432
464
-720
832
992
624
880
-16
80
-720
0
496
1120
944
-496
-208
144
0
144
-304
-1456
-1504
-592
-1056
-1280
-672
288
1456
-560
784
-320
-272
32
-768
-464
-480
-1008
-336
464
816
912
1280
-528
720
0
512
-1344
-992
-80
-16
-352
-256
848
-256
-512
736
1568
960
-1184
-864
304
1968
832
1872
-288
-1552
-1536
-960
928
816
32
-1200
-1744
1088
176
640
1712
1504
-352
0
-656
-960
-656
80
-560
-1056
-624
128
1744
-864
-496
-272
304
-544
144
1904
-96
-720
208
-224
448
1456
560
-1152
-2000
-1664
-960
-1296
-368
1232
624
-80
-560
-1056
640
-784
-1616
1472
-144
-80
-784
-656
48
-784
-1008
896
-1232
-512
912
1216
512
-1728
-432
64
912
176
1120
1456
272
880
1952
-1136
1392
1888
1760
416
1312
320
16
-304
272
192
1728
624
208
-768
-992
-704
-864
-704
-1312
-192
-32
-192
-752
-1360
16
928
64
400
864
-944
176
1328
-208
-976
560
368
-656
-960
-1264
-64
-576
1920
592
608
80
288
-1200
-1040
656
1472
-720
-752
1824
1312
160
-240
1072
480
-1072
2016
1008
-720
-784
-464
-944
1424
976
416
-96
-928
-944
-1040
-1072
-816
1360
16
688
-400
416
624
368
1264
960
-800
576
48
-1424
-848
-80
1312
1120
-256
-448
-1232
-352
272
1392
192
-320
464
-16
128
96
-768
-128
-1760
-1376
-144
-160
272
752
-1200
-480
-656
-1584
-1280
-1440
-560
368
128
160
-144
-768
128
320
576
-976
-1360
-64
-1440
-160
-80
32
-576
16
800
-512
-1024
-944
1120
752
-656
-416
32
-1552
256
672
-496
720
-304
48
992
-112
352
416
-336
-1360
656
0
-1360
-432
128
-1136
-1344
-544
0
-1024
-1552
-1872
320
1392
288
-1040
-352
-544
-928
-304
1680
592
784
1120
-976
-1296
-1200
192
1120
1744
1600
80
1488
-432
1248
160
-1008
0
-1024
-944
80
1232
-816
-1648
-752
1264
448
-560
-688
304
-1088
-608
-480
1232
1088
656
224
1184
560
-464
928
1312
-528
512
1008
-64
-624
624
-1232
-912
128
-32
480
32
-656
-448
-1856
-1808
-80
896
-1504
-1920
496
112
-160
-384
1072
-128
-512
-784
1840
32
-960
-176
-272
-192
-1216
-1248
-208
-928
-1280
-928
176
-1232
0
-1328
-656
-736
416
-160
-48
304
688
-304
-720
0
528
-496
-32
1712
64
768
224
416
1024
416
1184
1200
496
464
-464
-800
784
-192
-384
896
1616
192
-768
-432
-480
1312
-448
-192
-752
1248
240
320
16
-368
-336
320
-128
96
-80
1136
1072
368
-832
-848
1280
-368
560
128
-256
-416
-768
-1232
112
624
1008
-1008
688
1376
-256
544
336
-336
592
1840
-208
-1872
176
-688
-624
-240
304
480
-336
-1280
-592
1328
-16
656
272
-1456
960
-48
1008
1776
400
-1008
432
192
-128
1072
1424
-1136
1712
208
640
976
64
-176
-688
-608
-288
-304
-112
256
1104
1072
848
368
784
128
-1360
320
-1120
-384
144
0
544
1184
1424
368
-736
-192
-96
-464
544
-368
-2000
64
-832
-1040
32
-80
928
576
720
-288
-368
0
704
-16
800
-224
1120
400
-960
-512
752
1568
-688
-928
-832
144
-400
768
240
-128
1104
-912
-144
320
-1120
-800
-944
-656
752
1520
1456
224
912
832
816
272
-912
-624
-800
-880
-128
-752
336
656
-192
720
848
704
304
192
1024
-784
-912
224
1744
240
-96
400
880
-192
-880
-1408
624
304
-976
160
256
1136
-592
-896
304
-192
-784
688
288
128
-288
-656
800
-368
-592
-1536
-976
608
-1680
-1040
1376
1264
-624
-1424
-256
-1776
352
336
64
-1328
192
1120
256
64
48
-176
224
512
-960
-1280
-816
-448
-480
-800
1584
-240
0
-1376
-288
1872
-112
-176
-976
-1056
-960
1536
576
-672
-256
-752
-240
-880
1312
1072
-336
144
-640
-336
-1024
-912
688
752
960
-224
1056
1856
560
624
2032
-688
-848
1024
80
-1856
-864
688
-688
16
-464
1216
880
512
-144
416
848
448
528
704
960
336
256
-304
-656
-1584
-1008
1536
1744
-1408
-864
-960
-544
-416
976
64
1136
304
-816
-1424
-912
-224
176
624
-256
816
224
400
1808
304
-1520
0
336
1600
112
-1312
-1440
-672
-560
464
-576
-768
-480
1536
1184
752
880
-704
-384
-672
272
-576
-1360
-336
496
1424
512
-272
-272
-336
176
-288
-1488
-224
1264
912
-32
256
-576
144
656
144
1056
1088
320
192
-1248
-1584
-1200
144
160
-880
-1264
-688
-608
-688
1520
-64
320
240
336
-64
-1264
-1216
-384
-896
-880
-480
-1488
-1040
480
576
848
160
848
-144
-704
160
-1552
-976
-1232
-656
752
1456
1536
624
-1664
-1760
-64
1456
208
-1056
-1408
-544
528
-512
-1440
416
256
-432
-1600
1008
576
-1072
-320
-800
-1504
-1376
192
48
-1088
-112
368
224
-160
400
-784
1408
544
272
1200
800
-208
-368
960
-160
-1232
-1312
-2032
96
272
-272
-720
-592
-560
-480
768
832
48
1872
1136
1392
1520
-976
-640
-880
-272
-96
848
-880
-1248
80
416
80
-432
-48
96
672
1344
-1344
832
880
400
1200
544
544
1152
432
128
480
-1344
-816
560
144
-240
-1600
-368
1520
272
-128
-1456
-736
-32
208
-1072
-1152
368
608
-592
-880
-1104
-96
-1648
-1840
-1760
-400
1360
1984
144
-1152
384
-592
160
-272
48
736
-1408
64
-304
-1616
-304
576
1968
1568
-336
-320
-64
-736
640
528
1776
-2016
-1312
2032
1280
112
944
1632
800
-368
-48
-1408
-112
-1696
624
864
-176
-1616
-1296
336
1072
1312
0
880
-1904
432
896
272
-64
-1392
-1712
1392
-496
-1392
-1248
-352
336
-368
-528
128
400
528
464
-400
-656
-1040
-208
432
1120
544
-256
896
688
-128
-368
1680
1392
720
400
1056
336
512
1024
-1120
-96
1808
448
-528
-1024
336
1200
1312
176
-544
-1184
-400
-576
-976
-960
-1616
400
768
368
1488
928
976
1408
-848
-1296
-672
-384
16
-288
160
-16
-1744
-1632
-880
-192
160
-1184
-1488
-720
-592
800
1680
-528
-1344
-464
-736
-720
-1520
-288
-1504
-352
768
-592
-528
-480
-496
1632
464
-1760
-1184
-1440
-688
32
80
-1184
-224
112
624
816
496
368
-480
512
160
880
96
-736
976
1360
1056
688
-400
-432
944
-160
192
1904
-32
-1744
0
784
448
-832
-384
-1024
1504
48
704
-528
-1008
704
-48
-1088
-1616
-1584
240
704
-1792
-512
208
208
-592
-416
272
-784
128
-352
-896
1488
144
-448
-96
864
496
576
1776
896
96
880
160
-320
-288
-688
-176
64
-832
-656
-672
-96
-608
-1344
-1072
432
576
-192
1120
864
-880
720
-224
208
128
-464
-1232
-768
400
-624
656
528
-640
464
1232
112
736
656
-1120
-96
1424
240
-1024
-1232
-32
768
-704
-400
784
256
1104
-1648
-1504
-1872
-336
-1248
-96
-1840
-528
-192
-672
-192
-1040
400
-992
-656
-768
832
-416
0
-320
-80
-736
-944
880
1696
1296
-384
-1696
-1120
192
1728
-96
-48
1552
-480
-432
720
-80
240
1440
1760
48
-752
-96
48
-32
160
112
368
-608
1168
-1584
-304
-1008
-1152
-32
1024
-368
-1248
-1872
-432
-736
-1376
-1168
-832
-288
48
-1040
752
-608
-256
1312
1264
1360
544
-48
1072
800
1952
720
320
32
288
992
-352
-2000
-208
-1296
432
384
-1200
-752
-1312
-832
1136
496
464
-912
704
704
1024
1936
832
0
944
1072
864
240
-592
-800
-128
1328
848
800
720
880
1632
1584
-544
496
240
-144
-960
-1184
16
-896
-784
-1856
-976
-608
-1312
800
528
-144
48
-1472
-672
704
-896
464
-240
928
704
-576
-48
80
544
1552
896
800
1472
112
-768
1616
-16
-1152
-160
-1088
-352
208
592
-560
240
-176
256
-192
608
1168
464
-1120
208
304
1520
-32
-1728
-352
-960
1008
176
1968
1120
304
-608
-64
352
-400
352
-16
-544
720
1040
1296
304
-240
1456
1280
48
-528
416
208
-640
544
848
496
-160
192
1024
368
624
1488
1456
1280
-848
-992
1664
896
-1024
-528
-304
-480
1440
112
1232
1264
512
48
-96
-1792
-1040
368
384
-352
-1520
-720
-32
80
-160
-1184
-608
-1360
-1040
-640
-336
1392
-592
-704
-128
-1264
16
880
32
336
352
-544
-496
-512
-144
-1264
-1088
352
-592
-1104
336
48
1344
1376
-112
656
-256
-432
-1168
-1520
48
16
112
672
1760
160
-448
1232
160
-368
-1600
160
384
-256
-1024
48
1040
1424
16
1584
400
544
-560
-992
496
624
-304
928
480
-160
-832
-1040
400
-1088
-64
880
1184
-560
-1184
-752
-384
224
-432
-992
-256
-976
-688
-144
336
320
1696
-1664
64
-592
800
256
-192
-1216
-1344
-1456
-1040
816
1008
-608
-304
-400
-384
80
640
96
1232
1072
-288
192
784
-144
-576
-528
192
-1888
-1984
-464
1040
-176
1120
640
400
960
-608
-256
400
1296
-1168
-880
-48
-96
400
112
752
-128
-512
-1504
-400
-608
-64
656
224
-1120
864
48
-336
336
816
576
1408
800
656
-240
752
-720
-928
-848
32
-512
960
0
1296
1008
-544
1488
1136
592
-352
-368
560
1856
528
160
256
1504
800
-864
-464
-256
880
32
-640
-224
-736
-560
480
416
-656
272
384
1184
32
768
944
640
-16
-1040
-1120
64
608
48
304
1184
1344
544
1360
-192
192
864
-304
-288
-1424
-96
-48
-256
896
1648
1504
864
-1296
-1216
704
832
-16
848
368
-224
-160
-864
-368
416
-704
272
-768
-976
-944
-656
-1440
-576
16
-304
-688
1552
1136
768
-80
1376
400
512
928
960
-464
-256
-240
384
1040
1024
-128
528
-1088
-320
-1136
-48
-880
-720
208
-624
-720
816
1056
1648
-640
-912
384
96
576
16
-464
64
432
64
-16
144
-1184
-1040
80
16
960
1200
224
688
-256
-1056
-368
1760
784
-1248
-928
-720
-1408
1648
592
624
544
-224
720
-288
416
272
896
-1312
-768
-1472
-1056
-1440
-416
-1472
-848
-752
960
128
-464
-144
-1328
160
80
1488
-272
-336
720
880
944
-336
-672
992
2000
-336
96
-64
176
-1216
1408
-848
-1632
-1728
-1424
-944
-960
-288
1120
-1776
-672
-624
-112
800
1712
368
-480
-256
912
1296
1648
944
-336
-128
-1872
-368
592
-224
112
64
-384
-176
-1648
-1296
-400
480
1264
544
-1856
848
-128
-736
-544
-432
992
192
416
-832
-880
80
1824
944
1312
-480
-528
-288
336
864
1472
-1040
-1760
1280
-1088
-2032
-752
-1776
-528
-1504
-1008
400
1664
1984
-208
-624
16
656
-752
848
1616
1392
-912
-1504
-1488
-576
800
-304
-256
-16
-480
784
-1312
-736
-1200
-176
784
1248
32
-672
-928
-1808
-192
-448
-272
480
512
-16
-992
592
-784
-48
-256
416
-704
-1040
-304
-1376
-768
-560
544
-1280
-1968
-608
-256
-48
-32
-544
-752
1728
496
-1664
-1552
-1456
32
-560
416
-672
-1760
-704
1808
320
-352
-688
16
-320
368
-16
-624
-208
-864
-816
-1600
-1232
-720
-944
-256
1136
272
-1280
-544
-1456
272
-64
1008
608
1376
1520
1104
160
16
864
-768
160
1232
448
464
320
464
-384
-400
-480
-16
-752
-1456
-656
-576
-1152
-1376
-1040
-1056
1248
768
368
448
-784
-1248
-592
1584
-1376
-1056
1168
688
448
-336
-784
-272
-960
1344
1568
-832
-192
-208
240
512
-1232
-144
592
-1296
160
-48
1296
1440
448
-288
1152
-992
-1840
-624
-64
-1984
-1392
-784
-352
192
912
544
-768
-512
1088
800
544
-288
-976
-2048
-1488
-48
-512
672
656
-144
-1056
384
1024
-528
-176
1920
656
-1152
832
1472
-320
-1952
-192
-1472
-992
-368
-912
848
1392
1264
-176
-1104
-720
-1536
400
480
144
1824
-224
-656
-32
1296
208
-432
-1408
-720
-544
-1360
144
-304
-1536
768
16
384
1312
1568
1168
640
544
-256
-48
320
-544
-480
800
1008
-96
256
560
976
112
224
1344
864
720
-880
-592
1456
240
-240
-1856
288
816
240
64
992
352
-1840
704
576
1120
-352
-496
1552
-400
-800
-464
-352
-16
-864
-1632
-704
-272
944
-192
-912
1184
752
-32
-1024
-960
-976
208
-592
-464
1904
-480
-1632
-704
-768
640
448
288
-992
704
1936
-128
-640
-1584
-1600
-128
384
768
-976
592
1216
48
64
-1088
-1072
384
-384
-576
176
496
-784
-1280
-720
464
304
-160
768
1280
816
144
-1600
-272
1584
560
224
848
944
-240
400
-336
-848
-1696
-736
-1376
-240
-432
912
688
-1472
192
-1328
-1104
-368
-896
-1392
-1120
-480
1200
1296
-288
1344
624
672
-416
1344
1424
576
-1040
784
288
560
1328
1824
1600
-928
160
416
544
1232
1904
192
800
1072
1264
96
-2016
-224
-96
768
832
-640
-1040
672
752
-704
-1376
-480
-64
128
16
-592
976
-736
-400
-960
1168
720
-1360
-608
-1712
176
2016
1088
112
1552
944
1184
144
1776
144
16
-400
-912
-1312
-400
-336
816
1008
640
480
-736
-192
1248
-864
-1536
1136
176
-1328
816
1328
336
176
640
224
-304
-304
-832
-992
-1088
560
704
1248
304
-624
-288
-752
-384
1136
352
-368
1584
928
16
1024
-192
-432
-704
480
-656
-16
224
704
-576
-1328
496
496
-272
-1488
208
-288
176
288
384
-224
-96
1280
1808
-592
-880
-384
-592
-1360
-848
1120
1888
448
-832
-1232
-1744
-1408
-592
96
944
912
1488
-1136
-880
-848
-480
-304
1216
352
944
592
64
-96
384
-96
-16
16
-1488
-64
-112
-432
560
1232
1152
1456
368
1600
-1632
-1840
-96
608
1040
1952
1440
-176
-256
880
-80
-912
-544
352
736
-832
368
464
1520
-832
-1872
912
288
208
-560
-1600
-656
-848
-496
-288
-704
-240
640
1200
1200
1296
1696
-48
928
624
-464
-224
-1440
-816
48
1280
816
1168
-784
-496
672
-32
-1056
-848
-768
-240
-464
-1040
-384
-192
768
128
496
1264
1504
1408
1680
-512
-1952
112
-1200
-736
688
1456
1248
528
-1392
-720
768
352
704
304
480
224
-448
736
800
592
240
1584
1392
496
224
-272
-992
-624
816
-864
-560
-1488
688
-144
-432
592
-1104
64
-1152
96
1376
-304
-128
-1376
-1616
96
240
48
336
1104
320
512
-96
336
1632
672
1136
-400
528
-800
-624
-1216
-368
1552
1744
-112
-96
-1440
608
1776
-368
-1376
-640
1088
816
576
-448
48
32
1472
1776
848
96
256
1024
1728
1184
-96
-864
-224
-224
-2032
-624
208
-1776
-576
-1088
-144
-96
-752
320
1312
1728
1088
960
112
-528
912
256
-432
-464
16
368
1376
608
-336
-448
-464
416
1088
1504
944
-1488
-624
-1456
-1344
768
1024
-640
-752
128
-2048
-448
-224
-1872
-672
1664
1552
880
-272
-160
1696
992
1216
192
464
-768
-336
848
128
-1552
-304
448
112
-1920
-688
224
1152
288
208
-1152
432
-544
-1120
448
1024
-64
-848
352
64
-752
1200
800
-1664
-240
-80
560
-80
608
-352
192
1552
-256
528
-656
144
1504
0
-1280
-48
768
1840
160
1072
640
-112
-832
240
-704
-1344
-704
-320
-1104
64
256
560
-208
-688
0
1520
1088
-80
-464
-1216
-1264
304
-544
-1280
-1232
-1152
-64
-480
-800
352
144
368
256
-784
768
-400
-1728
-144
496
672
64
176
-112
-464
1200
1120
-448
1632
816
-448
496
608
-736
-304
-496
-672
-608
-48
352
448
-1200
176
-464
1488
592
704
-208
-352
1488
944
-272
-144
-816
-1408
-1072
-352
-128
-240
-1120
-800
1072
544
480
320
-1408
-128
288
688
1024
928
1088
1344
256
1760
-1728
-1296
-1024
-1056
-416
-464
1152
-1344
1104
208
-112
208
-928
-1424
832
432
288
-848
-1744
608
1088
-1040
848
1376
-736
688
-784
-1200
-1120
656
1360
1344
-48
-32
-1968
-1120
-848
-2032
624
1856
800
992
1472
-560
-2000
-576
-144
-672
-16
0
-688
-1184
944
-1424
-128
-1040
304
-160
-624
-784
16
784
736
608
-832
1776
1968
608
192
-448
-1632
-768
704
320
-1232
-96
112
-112
-1984
-864
416
-1232
352
720
1104
1024
464
-144
352
-1008
416
-624
-1360
160
1008
1904
1184
320
416
384
-336
-912
-400
1696
336
-704
-288
-400
-896
-368
-976
-224
-64
-896
400
1184
960
-448
544
-560
-704
64
1296
608
304
960
1504
-432
304
1040
-1024
-640
-848
-1616
-208
176
-1344
-640
1440
-304
-256
880
400
416
-1088
-144
-656
576
752
-272
-208
-512
-1312
1568
1440
592
-1120
464
-80
560
-192
-176
-960
960
-496
-816
352
624
96
592
1616
176
640
768
-672
208
848
-768
-288
-80
-2048
-1296
-288
-1920
288
448
-848
1712
1424
944
-640
-384
448
-896
-128
896
128
80
-80
1168
-272
-48
144
288
-1056
1424
1072
-560
-1280
-176
-368
640
96
1296
-352
-272
-1472
-720
96
-224
288
-80
816
-16
-880
-896
-1200
-368
-624
-1376
-1072
-368
2016
544
1168
1840
1008
912
-960
-192
1376
384
-720
560
1296
-864
672
1136
-480
288
-944
-272
448
1392
1232
1344
176
1600
1072
1536
896
416
-224
-800
896
1632
-352
-1120
-176
736
288
576
256
448
240
-1952
-736
576
-16
-1744
-736
-912
816
1280
-1536
-320
-1856
-1632
624
576
-544
-304
1296
1520
320
-1504
-1456
-144
-16
1024
144
-1680
-80
1808
608
-304
1648
1376
1088
1744
-336
-704
-176
-432
-480
-48
176
592
528
160
608
144
-368
-576
48
-1008
-16
352
64
896
752
1200
1216
1360
1088
64
-768
-944
960
-1312
-576
464
2016
-1424
272
1344
336
832
1296
1568
192
-752
256
-1248
-992
480
-624
1104
176
-432
-1280
144
-32
-368
-1168
448
-512
-784
128
-1056
400
192
384
80
-80
768
1248
1168
800
-48
416
-32
-528
1088
-368
-1536
496
-880
1488
768
80
512
-384
-176
704
-16
1600
688
64
1136
-496
-1712
-544
-192
-272
-768
-800
-48
-64
-1040
-432
-416
-848
-336
288
1360
1152
-80
-64
-576
-512
1248
1152
1488
816
48
192
880
384
768
-352
48
592
-512
-1424
-1056
-1072
-1152
240
-960
-416
-96
816
0
1056
-16
1120
304
656
-384
912
1360
-656
-880
-1408
-1680
-1264
-144
-288
-1504
-128
-1072
-976
-944
-1040
112
528
-48
-352
-1952
-1552
752
1776
0
-288
-1744
-864
-224
-592
-1424
-176
704
1120
1200
1616
688
-416
176
512
176
-1168
-832
-288
-672
-768
-128
-992
-128
-272
80
-864
-624
112
1040
320
224
-464
0
-64
-256
-208
-1056
896
576
976
1600
1520
-1104
-304
16
-736
496
640
-272
-816
-1328
-784
1632
400
-944
-224
960
-128
-384
80
-672
160
-304
-896
-1120
-784
-608
256
1248
1424
1104
80
1616
1040
-128
48
384
688
1872
1552
1024
112
1120
368
736
1312
-288
304
-80
1088
272
-192
-512
-864
928
1232
1520
336
-512
-1056
-96
-256
-496
864
720
608
816
-720
-464
-288
336
-1920
-1872
-800
-1280
-592
-144
240
-1520
-576
544
1552
0
-272
-1072
704
-1696
-1616
-1040
-1312
-1440
-1120
-1360
-1200
-1008
704
784
-1376
192
-736
0
-1008
-336
0
768
256
1280
512
80
864
1024
1056
1616
-432
-368
0
-720
-688
-912
-960
-1264
-1456
-544
608
-656
-80
-1472
-768
-704
720
-976
-592
-64
368
256
288
-752
-1552
-1648
-768
672
1616
48
-160
-1920
-1056
288
1152
1888
-544
-1808
-80
-80
-1024
496
368
192
-752
-1344
-656
-672
-336
288
112
304
96
672
-560
-64
80
-128
608
1648
1424
1216
1712
384
-1888
-368
960
-240
-992
-1344
-560
640
208
-96
-544
-1584
-208
144
1088
992
432
208
-1808
-256
320
-320
-1024
672
176
-928
144
624
128
112
1824
832
-288
-1056
416
864
480
-432
832
-512
-384
-48
224
624
1056
608
560
672
848
-832
-112
912
1968
-64
16
-352
80
1712
1056
-1296
208
-272
464
-368
1456
1632
320
1008
800
448
-1024
-1008
-80
1264
416
-384
192
-576
-1072
-240
320
384
1216
1232
224
-1136
-704
592
832
1488
-368
192
-80
720
-896
-384
96
-992
-1568
640
416
1024
1536
592
-224
576
-160
-1360
-336
-672
1408
288
-1376
-672
-240
672
-80
-1104
-1952
-1632
-544
-1920
-432
-1344
272
-624
-992
688
944
64
-896
784
512
2016
1504
-752
-624
-640
16
48
-576
-112
800
64
720
-624
928
1552
432
-1344
-288
-448
-528
-208
576
1632
-128
1120
-192
-480
256
-1040
16
832
160
-176
-768
304
1200
928
176
-288
-48
-48
272
208
784
1360
-160
-976
-416
512
-1616
-1344
-1264
-128
656
272
1664
480
1328
528
2000
432
-1104
-1440
304
544
896
1728
352
272
256
-1360
-1344
496
464
-944
-912
-1280
-624
160
256
416
384
-448
-400
-1088
-1408
416
1952
224
224
144
-496
-192
384
1648
-1552
-1632
-352
-672
-416
-832
-976
80
-272
944
-352
-1984
-1216
-160
-1200
-912
112
1904
1248
80
736
1312
272
608
608
1856
1072
-496
-48
-32
384
736
448
1024
1136
352
-1200
-1008
-1296
-560
1536
400
880
1984
1184
48
400
-1024
160
1680
-336
-208
192
528
-992
-1408
-1072
896
-512
-320
-80
-592
-752
704
160
-224
-768
-1008
-240
1296
-832
-496
-816
-256
-192
-272
704
48
48
-592
768
800
432
1328
-640
-832
-880
-224
-336
-1248
-144
-688
-544
384
64
1408
80
1440
336
1200
1488
-480
-1344
-976
-80
-928
-384
-768
496
1504
1072
320
-112
928
1600
896
1712
640
1280
464
32
272
-1456
-432
-400
752
-1040
-1216
-1872
80
-208
208
1152
448
64
-688
-224
-736
-1296
-320
-64
-992
128
-656
80
1216
272
-368
-832
-1408
368
-1008
-672
32
-96
224
-656
112
1184
976
32
-1088
-704
976
-144
368
1744
1136
864
-864
704
1952
-560
1168
896
1136
256
-432
16
720
640
-192
256
-224
240
-880
608
192
-448
-992
-336
-128
1488
-432
-320
1056
320
-144
-112
-320
-944
-32
-496
1296
-736
-1568
-624
656
-1168
1120
-208
800
-192
-512
-1552
640
-752
-1120
1472
1296
-816
-528
-1264
-448
192
1120
1312
1200
-352
-1104
-1424
-1280
-656
-688
-592
272
-1440
-1024
896
128
448
848
512
-112
528
-992
-1888
-80
1744
1056
832
-32
848
336
32
-720
-912
-1584
400
560
480
336
-800
-880
208
-352
-128
1168
832
-864
-400
1008
1344
-976
-208
864
320
-1152
-1760
-1376
-960
-1456
144
-640
-976
-672
464
-1088
16
-400
-352
848
416
-656
-736
752
816
-496
768
-432
-1248
-832
-1360
-1184
-320
-1280
-288
944
192
-1936
-1760
-224
912
912
-1712
-576
256
-176
-544
-1552
1360
768
-416
368
32
288
-1152
-1152
-1680
-96
-224
384
-96
-896
-480
240
848
480
-528
-1888
-1328
-1408
-2016
-1664
-288
944
1584
464
352
-144
688
864
352
288
-112
-464
-432
-608
144
-384
1600
1072
464
-16
-1248
432
896
832
448
1104
304
1728
496
256
752
2032
-208
-2032
-512
1056
944
1584
48
-656
176
1360
208
-448
368
-1456
-1376
-384
-352
480
464
-800
592
2032
688
-640
-496
1280
1552
560
-224
-1568
-1536
-960
-1648
368
-992
-96
-1072
-192
112
-480
736
1104
-800
-576
-576
-704
1616
336
-1360
-1632
464
-160
336
256
32
48
-880
352
608
-576
-352
80
192
-720
112
608
1312
240
-1536
912
704
256
288
-1792
272
1072
512
640
160
-432
-352
208
1024
-704
-16
-1840
896
32
-32
-1008
-1312
848
160
32
160
272
-576
480
1616
-1328
-400
-16
-784
-144
-656
1040
-32
144
1472
1408
1248
-464
-528
1536
848
-928
-384
624
656
80
1648
640
816
1296
-416
-96
416
1168
-16
-400
-16
704
1056
656
320
1392
1264
-592
16
-352
-208
-784
-1200
-800
-208
384
448
-304
64
-800
-1120
-1056
-1488
-592
1840
288
-16
-160
0
464
-448
-1152
-864
1088
144
1088
432
-912
-1440
-1632
-624
128
-208
-640
304
-816
-1072
-1136
1280
80
1600
1632
-176
768
1056
1264
64
-432
-688
1248
208
-224
-928
-176
-1104
-784
656
-32
704
-576
-1392
112
-1104
-1280
-1184
1504
-1024
-144
-368
-512
672
-464
144
704
-1232
-528
-320
624
240
-1424
1312
128
1728
-272
-928
-1104
128
800
144
-400
-1008
-928
960
-576
-144
-1168
400
-928
944
560
-1040
-224
832
-608
-640
1184
400
-1024
-320
608
-784
1216
688
384
384
528
-1040
-672
304
592
-912
-1136
1056
-352
848
384
288
608
1184
-1072
-144
-160
128
1520
1664
448
-800
-944
736
-432
928
144
768
32
-1136
-240
864
32
-48
944
1056
528
-528
640
96
848
256
-1424
-1440
336
1728
1200
-496
-144
-96
-1424
-320
1616
816
-560
-496
-672
-144
-1584
-640
-32
912
368
272
1104
816
832
1536
1152
1552
800
-704
-960
-800
528
-848
-1184
-608
512
-976
-592
16
1280
-576
592
176
80
80
-1200
-352
-608
-896
-1872
-1408
-64
1392
1136
1024
256
432
-960
-144
112
160
96
-272
-944
-368
-528
64
-896
-736
-1616
-1376
288
976
288
112
1712
1600
528
-1184
-1968
544
-496
-1424
-960
-336
-1600
-64
944
720
1088
-1408
-1408
-160
1264
448
1984
1424
720
912
1456
-992
-304
1008
-400
-240
496
-608
240
480
-960
512
-48
1888
1136
-1584
-80
-896
-1104
160
944
-1168
-1616
-1520
-224
-1264
336
96
736
1664
-288
-384
-48
112
-1536
720
688
368
32
0
1424
304
-1184
160
944
1664
1280
64
-944
-2048
-480
32
0
-336
176
640
1056
368
832
544
608
-224
-272
-320
160
896
928
1072
752
144
-1328
-1840
-16
-1328
-1232
-1136
304
-1040
-464
960
1568
176
448
16
912
-1488
576
1888
1488
416
1312
1120
352
-752
304
-48
-352
-304
1008
880
736
496
768
752
-592
144
112
928
-48
-784
-912
400
224
-1904
-1632
-448
-1472
-1056
1792
0
-48
32
400
-976
-1472
160
1632
1952
-992
512
688
-64
-608
816
736
1216
-368
-1808
-384
384
768
-368
-720
-1136
-400
-1872
-224
1200
1040
192
704
-944
-1104
1264
528
1072
-208
-608
704
352
-576
-320
-1216
-1936
-832
-240
1024
1728
448
-1472
768
560
1440
1392
80
176
864
1728
-1136
-880
-576
448
832
-1232
-336
320
736
-688
896
1408
48
-800
368
-48
-912
-448
816
624
1536
-336
-1264
-208
-112
-512
-432
-512
-336
544
592
-1392
256
928
976
1376
-384
736
-848
-1456
672
848
976
-272
624
1808
384
-400
1168
-2016
-1712
-512
944
784
160
1488
-304
-304
-352
416
-256
352
144
-736
-992
-464
-240
144
-96
-1456
-1536
-1152
-272
816
480
1504
-560
-752
1328
-1168
-416
-496
1232
1872
544
1184
544
-496
-16
-256
192
-1216
1568
1840
256
-320
1008
1216
464
464
-80
672
-1072
-448
-1840
-1760
-864
400
1056
-1056
-1072
176
-288
-976
-320
64
496
-720
640
1536
320
-32
-1344
-1264
-192
1008
1392
1008
-1104
-416
-48
-304
-992
848
64
80
-352
448
176
656
-240
-1936
-1536
-240
256
576
-784
-1536
-1200
1152
1568
816
400
-640
-1632
-1888
-320
-1296
-160
96
1056
-32
-608
-144
976
992
0
864
-400
880
320
-528
-1232
192
-112
-912
-368
1136
32
848
-512
-1040
256
1328
1536
1152
240
-1552
-1616
816
-528
-16
400
1440
624
-256
464
208
-704
-768
800
544
-656
-192
-464
1248
1568
544
544
-1264
-1104
-688
784
-224
-208
832
624
1440
256
0
-272
448
-112
-1664
-1408
-656
-48
544
-560
-1856
-1584
-1120
-592
-384
-96
-1152
976
768
-1040
1840
864
528
1904
-352
-1040
-1392
-1200
64
752
-16
-448
880
928
512
224
1280
64
240
-848
-128
448
-560
864
1888
-80
-448
640
1728
1312
1952
1264
976
1760
736
368
-512
288
-208
-112
640
-624
-544
-528
1040
1536
1968
-576
-1168
-944
1200
-224
-688
-272
-256
928
736
656
736
1664
-416
-976
112
-816
-1296
-336
-1648
400
1136
-496
736
-640
-432
-928
752
1360
672
-1280
-1008
-624
-432
-1616
-112
272
352
-304
-192
160
576
128
208
240
-448
-592
1504
1008
-640
-1456
-1024
-592
-1600
-720
-128
384
352
-192
-1488
-1088
-512
1152
288
-624
-416
528
384
1008
64
1504
-320
208
-432
720
-144
1968
912
1200
480
1712
416
-752
192
-816
928
-368
-1408
-816
0
496
-1264
-304
128
-1152
-1792
-464
-336
-992
464
1248
-1904
480
-1216
-1200
-1040
-1072
-1328
-272
-576
-80
-1920
-96
-1104
-576
-704
1712
0
1728
1136
-1104
-1280
80
560
448
-272
-336
-304
-80
-1200
-688
1312
1472
208
-864
-784
-816
-240
224
-864
-1968
-1296
688
0
752
-256
-1184
-1616
-1344
-1120
704
-16
1440
1408
-320
736
960
800
-1280
-288
-704
864
448
192
1824
176
896
1408
-768
432
1664
544
-736
384
-1632
-32
-336
-672
240
-1104
528
1136
192
560
1072
960
-208
1456
1216
528
-224
336
384
832
608
736
-848
-944
-640
-960
-192
1008
-608
-1136
-64
1648
160
-64
832
1152
16
-1200
-208
-784
1984
1168
-944
-1376
-1520
-192
112
-288
400
192
64
1040
-416
-512
384
-368
144
384
-448
-1136
128
944
1264
752
208
1664
592
480
-192
-976
304
-400
-112
144
496
80
496
176
1120
-512
32
-400
-288
0
512
1104
-576
-1296
-576
-1152
640
-480
-1184
-112
-1184
-1488
912
-1024
-464
-1184
192
1664
576
-768
-1536
-512
-64
-528
-1552
320
864
-208
-208
-112
-1072
-288
-512
-1264
-1264
1536
816
-32
256
144
816
-432
-1536
64
256
1520
1232
848
1040
-16
-1120
1056
400
752
800
960
-320
-944
656
1584
-176
-144
-496
-720
-720
-1008
-1584
-352
-320
-1664
-720
16
-1936
-992
1104
688
944
64
1088
496
1008
400
608
272
-384
880
496
-1232
-544
112
208
432
288
-1712
-1152
864
1920
1440
-272
-912
-624
-1360
-1600
-240
1440
-1056
-48
1440
-1424
-1616
112
-96
976
-1072
-928
592
-1008
-368
-352
-1584
-1840
-1504
1360
1472
1968
272
352
1664
1200
-384
-1456
-816
-1648
-656
0
864
2016
256
-976
-448
896
624
1408
400
32
832
640
-128
256
-288
-304
-384
672
816
-144
-1296
-1888
-944
1920
1120
496
288
-64
720
-1312
-112
-1376
-752
112
368
-96
-16
-32
1136
32
-1136
-992
1008
1520
96
-640
544
1120
-720
-96
1952
784
832
-1472
-1984
-1760
256
384
-80
1408
736
16
-240
-1456
144
160
-512
864
768
-80
-832
1600
1664
192
1296
16
-192
736
544
-944
-192
-480
1520
688
288
-624
528
1136
400
880
960
96
-1056
-784
320
912
-784
-464
80
32
-608
-112
-1168
-1312
1088
1408
-1008
-432
416
-1680
-48
-240
-960
464
1104
128
544
-16
384
128
1616
1968
1632
240
1280
384
-640
-496
-80
176
112
688
560
1152
-1392
-80
-464
-208
-544
-1216
1584
848
1808
672
592
128
2016
-16
-352
-544
512
1744
144
320
-592
-1488
-560
-1616
-1360
-160
-1152
-656
-32
560
-800
-688
624
464
-272
-1024
-816
-656
-576
624
512
-816
-896
288
-624
-1296
-624
-288
800
144
176
-176
608
672
1248
-528
-432
0
-160
-736
560
480
32
-368
-96
800
-800
-32
-384
-512
272
432
-1232
-1472
-16
-288
-1280
-624
-336
-784
1184
656
-16
-432
864
-144
592
-64
-160
-848
112
-176
-832
-256
-912
-1344
-160
-464
1152
176
336
112
336
448
-464
-1984
448
-448
-112
-96
592
-160
928
1600
1088
912
-320
848
336
-1552
-1792
-368
-736
560
1152
448
128
1008
-640
-720
-400
-1552
-1280
576
688
704
1152
560
-544
-304
-1760
-1696
-656
-1600
-144
-384
-336
-864
-496
0
-1056
-224
-1616
-1168
384
384
128
-256
-96
-1360
-256
608
1632
464
272
768
-560
-720
-432
-112
-1008
-1536
464
432
-288
800
128
1568
-416
624
160
672
-864
-784
1392
944
-512
-592
144
-1344
-784
160
544
-208
-464
-1392
1696
576
-96
32
64
448
-752
1648
208
224
-1696
-1600
768
992
464
704
656
880
720
128
512
-416
-912
-192
304
624
-432
48
-384
-1296
272
-1120
-128
1616
1008
1456
-1568
-912
432
-1072
-1280
-1056
-1696
-304
992
960
-1296
-1168
-464
-272
-1552
-1296
-1440
-1792
-1728
-432
1888
1264
32
400
1824
1312
-1200
-1088
1264
640
1520
1504
496
-1472
-480
-208
-1040
-624
-1472
-960
-384
160
-592
-1120
944
672
144
672
-1104
-1328
288
768
-32
-432
1232
832
0
-1200
-48
576
-336
544
-832
-16
-1568
1552
1104
-1376
-608
688
416
-384
-416
-640
-96
1264
608
1808
1104
-416
1056
-1136
-96
-16
96
-528
1392
1568
-96
576
752
416
-496
528
-976
-1696
336
-64
-112
1136
1248
-880
16
-1296
-1296
-480
1216
400
432
-1104
-1376
-800
-320
-96
-624
368
-352
-944
720
2000
2032
400
-848
-1056
-80
256
304
976
-1744
1024
-560
-240
272
480
96
-128
720
688
544
-1776
-720
-1024
560
144
912
-896
-928
848
-800
-784
256
-1344
-128
1024
64
192
-1088
368
-992
-336
704
128
-832
-464
-416
608
368
1456
-448
0
1744
-64
-240
224
-368
-1248
464
-80
560
432
576
160
-928
1024
1200
-336
-2048
-1616
624
560
192
-64
-1152
160
-848
-192
-432
-688
-1408
-384
832
928
944
1072
-80
-1200
-1520
640
336
976
496
-48
640
80
480
-752
-416
-912
-112
864
-656
-176
-448
-240
-1360
64
656
1616
1056
240
1520
-160
-976
-432
1536
-208
-528
-384
-912
-784
-448
-432
-1376
-512
912
-672
800
848
-176
-208
240
1504
656
-784
-432
1136
1024
1056
560
-128
-1056
384
528
1440
-112
-464
256
-1024
32
-96
-208
1184
496
-336
912
-416
64
432
896
-1408
1232
128
-32
208
-1200
-928
-416
384
304
128
512
592
-240
240
1040
416
1664
288
-48
592
592
304
176
144
-528
1696
1120
-816
-704
-272
928
192
672
-288
-464
-400
-352
-272
-752
-2048
-160
-1184
-784
-592
496
1568
-160
-688
-1472
-192
-528
-368
-224
-432
16
-432
-2032
-416
608
2016
320
32
304
192
704
-1888
-1168
-32
624
-448
-144
32
1120
1936
1072
1040
1216
1504
-288
-352
64
112
-144
1040
1808
-592
944
672
-480
-448
-1664
-1216
1408
240
-912
160
1520
48
1088
-176
-368
848
-1408
-16
656
464
-224
144
-1504
-1920
192
1728
864
-256
240
1088
704
-960
192
768
288
-656
-896
80
-112
688
-480
-1952
-576
-64
800
-208
-944
144
192
160
-992
128
-992
-528
768
1728
1056
1056
1472
160
-1104
-1344
-176
-720
784
1248
1248
272
-464
-32
976
1360
1200
1456
-1120
1408
1264
-848
-960
-176
1504
928
-480
800
-32
1104
-528
912
1456
1408
-1088
-640
1104
1488
528
-320
-320
912
688
448
-544
-656
-320
-1488
-1008
-976
-1776
-1808
-928
-1072
-384
-400
-256
1264
1264
720
176
208
512
-912
-528
-784
-1408
944
432
560
1408
-2032
-928
1312
1488
256
1888
1680
1280
1008
448
-128
1536
768
112
-1152
-624
-64
496
-176
1984
-720
-1072
288
640
896
1104
336
688
64
752
1376
-160
-144
-304
-752
480
-624
16
480
-864
864
464
992
640
528
-224
-576
32
-512
-384
208
-144
160
-352
-1136
-240
512
592
-656
-1248
-96
-1248
-1072
-688
-992
-160
-1616
-480
-288
-1360
-1024
-736
-400
896
-976
-960
16
240
320
1936
1424
1088
912
-768
-1760
-656
-1344
208
784
368
-912
-928
80
-1408
1008
736
240
800
784
96
832
160
-1376
-688
-784
32
896
832
160
912
400
-1408
320
-1600
832
1424
-800
-80
800
0
1296
48
-160
-160
-464
-416
-176
-304
224
-80
-224
-656
-1488
688
496
1184
-80
-1008
-352
-1120
800
-720
-2016
-1184
64
1360
496
-560
-544
208
-304
-160
-48
640
512
-96
-960
-48
816
832
32
-368
-288
464
912
-176
-1824
976
1008
-640
-432
848
240
64
1200
1936
608
1104
1040
-1024
-1600
-880
544
1200
-368
-112
-1328
-160
-512
704
944
176
64
816
832
-1504
-1600
-496
-832
-880
-1648
912
1520
336
-336
-176
288
-528
-1088
480
1328
-576
-112
-240
496
1008
368
-768
-1440
-1456
1472
1232
1184
112
544
480
-496
-32
-496
976
1200
128
1616
1552
-448
544
1872
224
-1168
80
1056
480
800
688
-496
-704
-944
-432
1888
1328
1152
864
-48
-128
-272
256
-1280
384
1648
-912
-1376
-1984
672
1584
672
336
-192
-736
-1680
-800
112
96
688
-16
-640
208
-784
-1056
-1328
-1264
-1584
-1792
-1296
-896
-64
512
-1776
-1440
-448
1328
-752
-1584
-528
128
720
1712
1952
592
1168
640
-1264
-464
-2000
96
400
976
608
-368
992
-256
-592
-800
-800
416
1424
80
992
-384
-368
-1248
192
-448
-928
832
1408
-64
816
304
1536
-528
-288
-336
-656
-320
-864
-1200
-1872
-1232
-1056
1840
384
0
-1280
-1184
-224
-432
-1568
-304
-320
-16
320
-1280
-1216
-992
464
-144
256
656
-704
528
816
1008
144
-432
-912
-208
-304
848
480
1232
-64
-1712
176
880
-1280
448
1856
1040
464
352
-464
-496
-464
-640
1408
816
288
-160
-304
816
224
1728
864
1152
288
976
0
1808
480
-592
16
-496
32
208
752
-112
-48
-960
192
-1072
448
336
1152
736
1808
1200
896
-496
-944
-432
-448
960
272
496
-1136
1216
1264
896
832
1440
192
960
800
1088
560
-944
432
864
-304
-448
288
-448
1328
1744
896
-176
336
-1344
-464
320
-112
1136
208
-704
128
-304
-576
-64
-288
-592
-144
-1824
-608
128
976
752
368
256
496
672
0
400
736
752
-624
448
112
-944
-1504
1664
144
1072
1136
432
560
192
-880
1088
272
656
-336
320
-896
-1248
-1424
1360
1456
672
-576
-1216
-208
320
-768
-112
-112
-944
112
656
-848
-1216
-112
144
384
-432
192
-752
1968
-160
-1664
304
464
-64
-416
-928
-1328
-1200
-880
-1008
64
-768
352
1312
-752
-1456
944
1232
448
1200
1808
1200
1616
1408
96
-240
-1824
-1424
-16
-960
-416
752
-176
1584
752
-64
-288
-592
-192
224
-96
-656
-1264
-1600
-1824
496
816
928
-368
-944
192
-16
-1680
720
960
144
832
800
736
608
-112
192
-1984
-1536
1248
1328
272
1632
848
-960
80
128
-560
-128
-816
368
896
-352
-336
-80
480
288
-96
-288
1392
-496
-496
1424
848
464
-240
176
-416
-784
272
1664
160
16
672
288
1760
288
-1856
-1104
1888
960
240
576
528
-64
-32
-864
1392
1840
320
1136
752
1040
-1328
-864
-64
-1040
1760
640
1024
704
-624
-176
-1344
-960
336
-1136
-960
208
544
912
-192
-1712
-944
-48
-1104
400
-352
-480
-1040
-624
-848
1280
624
-256
-656
64
1712
464
-1712
32
1904
-256
-224
288
-720
-1280
704
-64
-1664
944
1280
-1216
-720
-32
384
-256
-608
208
1312
-528
64
-64
704
-736
1120
1296
-736
-320
-80
-2048
-1168
1056
736
384
-768
-864
768
-464
-1968
-592
16
1152
1216
240
1824
1952
352
-416
-912
0
880
-384
1120
912
-432
-1392
-1248
416
-496
-384
-1200
-496
-912
944
192
720
1056
592
-1072
-832
-1360
304
224
-1408
-128
-320
416
-496
208
-976
-1920
-1920
-528
-64
-448
-1712
-1440
-1584
-800
112
592
432
-368
-352
-224
256
320
992
752
608
1184
240
624
-32
160
-112
-1280
-368
160
-992
-832
400
-512
-64
1024
1104
320
1024
912
-256
-64
1312
48
352
304
1824
-352
-368
-608
448
-560
128
-160
1504
448
96
640
-1744
-1184
-448
96
-368
-160
-848
960
-160
-1424
-896
800
-224
1760
-816
-1376
-592
-736
-992
-144
-64
160
-240
-80
-624
-320
-688
-1984
-1728
432
480
-32
-1216
-1808
-336
-1264
-720
-1552
-608
-1200
-1216
-736
-96
-1088
-1680
-1040
-624
-720
1328
1520
1808
-16
48
160
-496
1520
1104
672
-496
-1008
1984
1344
-896
-880
-288
-1552
80
624
0
-432
1152
1584
656
560
336
640
1392
-1120
80
-1248
-1376
-1504
-1136
-1120
784
320
432
816
-160
-272
-1024
-1472
-656
-208
-512
-48
880
944
-1152
-432
-1008
-400
-608
1744
-240
-1104
-1088
464
1840
832
48
-256
-784
1296
-192
1184
2016
1792
448
768
1584
-16
-368
-368
352
-2032
-16
208
-368
960
1280
1376
-592
-1008
1664
144
-160
384
-640
-1936
-1712
-352
-1072
480
-1120
-224
-432
-1072
-768
576
1072
-240
-16
-800
-1872
-864
-208
-880
400
32
-272
-768
-1072
-688
352
544
-128
-1424
-1216
-768
-1360
-432
1184
-864
-1152
-672
912
1328
-1136
-992
-32
1136
672
656
544
1760
-1584
-1200
1328
-208
-960
-528
-1856
224
1952
-624
-304
-96
-1040
-2032
-1648
-752
432
224
688
464
-400
1024
-224
-1328
192
1056
752
624
-336
-128
704
592
224
64
1552
352
-656
-1584
-1712
-544
1552
560
432
-336
320
816
208
208
288
304
-320
-1040
-208
736
336
1168
336
-1024
-48
176
864
-720
80
-1648
-880
-1760
-1136
-848
-736
-512
-1344
-1280
-896
784
576
-192
1632
304
-592
-320
-1712
-1584
-560
336
1568
1712
400
-1056
-400
-1200
480
800
-416
-832
112
1616
1200
1632
-208
-464
-480
-288
112
-624
272
336
-1440
-48
368
368
-144
112
1312
1200
-288
-944
192
-32
480
944
112
640
1632
576
1392
-304
-304
1296
688
1232
640
64
608
-16
-160
-976
-64
128
-736
624
-480
-688
1424
1008
416
-304
-128
256
848
-128
-352
-544
240
-1136
-928
96
928
-240
672
400
-240
352
-432
912
288
576
-320
64
352
416
944
128
1360
96
-784
-1168
-960
-896
-256
-128
-992
-1744
-400
448
-96
224
1088
480
-320
272
-1376
-816
-1216
-544
576
944
864
-368
432
-192
-624
-400
-640
-1616
1040
736
-48
0
-288
112
720
752
1088
144
-784
-1808
-736
-112
544
1248
272
1328
-560
432
1200
1632
1200
704
1040
-144
-1248
-912
-240
-304
-480
1664
-192
-1328
-704
-1264
-368
336
-336
64
368
640
816
0
-16
96
-112
-1360
432
192
512
464
-1488
-1104
592
-1024
-864
848
-16
1200
432
640
848
416
-960
-1296
-608
-1568
448
336
-928
-720
-768
1200
256
832
-448
-656
-368
416
992
272
1296
-400
448
-320
-192
-1440
-752
-384
-624
-1472
-208
-256
-1568
-960
800
64
-464
-720
-224
-80
-528
-1376
-1184
-48
-112
464
672
-480
496
1712
1008
-1088
-944
1104
-576
368
672
48
-48
-320
-80
1248
-80
-1840
1280
1680
-1440
-592
1552
-32
-80
800
1104
-1360
-816
64
1120
1232
576
-1008
-880
-208
2000
1280
1200
1520
1360
448
224
-1552
-1456
912
992
-800
-432
-896
304
-656
-1168
-384
-624
-64
1488
160
-1888
-592
-240
1312
96
-272
-128
-560
-1456
-288
-816
-960
-1600
-336
480
-960
112
576
-1344
-384
64
-1104
-816
928
-1472
-752
-352
-576
-1840
-272
-688
-368
-64
-1280
-2016
-1840
-176
-288
-48
-480
1968
864
-640
-1728
-240
1168
1552
192
336
288
448
464
-1216
1552
928
-2000
-768
-336
256
1056
896
1072
1008
288
128
624
-32
96
1216
1152
480
400
-592
-992
816
-128
-144
384
-512
-992
-320
240
416
1488
-48
32
1760
1344
-1184
16
-448
-1216
-1872
-1840
112
-64
704
1232
-1232
256
672
976
272
528
16
-48
-432
-784
-784
752
352
-1264
-512
1136
-480
-1088
-1088
-32
-480
-832
768
64
960
16
848
272
1504
224
496
-304
-1824
240
256
-688
-48
1856
-416
-1872
-672
-544
-960
224
-352
-1104
432
752
-256
-48
48
1168
512
-64
-656
-1024
-32
576
1056
-304
-1360
-608
-336
1440
32
-528
192
-1520
-688
-160
1344
128
16
528
-16
1200
-1056
-784
-368
-688
-704
-48
1328
560
-112
1904
-160
-96
-544
-16
288
176
1712
96
-192
768
352
-960
208
-912
-1168
1776
1184
-944
-976
-352
752
-816
-176
-720
-960
736
976
-80
832
432
1808
1056
-336
1136
240
528
-528
-624
608
928
544
960
1040
-720
-1584
-544
-528
1088
-528
576
288
816
-752
-496
1312
464
-416
-912
-960
-1392
-752
-32
-784
-1472
-976
176
1456
1184
-352
-592
-1952
-1312
-48
944
-336
144
-864
-464
-944
-992
-1824
-96
-1664
464
1712
768
912
-832
-1504
-1168
864
848
256
-416
720
1024
1424
-752
896
224
-1600
-528
-96
864
1248
480
-336
-80
800
-192
-1504
0
-16
-912
0
1104
816
96
-528
-1840
512
912
-176
832
-1840
-768
-256
-848
-1120
-480
-272
-1248
704
-128
480
544
-992
304
448
-160
-1360
-1616
816
112
-80
-112
272
-16
-80
-1280
144
-80
-736
336
1536
1120
-1440
1312
848
-32
-336
256
752
224
-432
880
-624
-672
-1024
-544
-512
240
336
-736
-192
-464
-1696
-224
-864
80
1216
1088
560
976
-240
1056
-752
-912
1104
-880
-160
992
256
2000
-992
-1040
-864
-320
1152
1136
-656
-1120
-1456
208
112
864
800
1136
832
-464
-1136
-336
640
1088
-640
1040
896
864
368
1344
-1008
1104
368
-1456
-160
-128
-1264
160
1072
-768
-1904
-1248
-784
80
1760
1264
1312
-336
-64
128
528
160
528
912
16
-560
-1584
-400
-928
-768
832
864
-64
-672
544
-224
-272
176
-1072
-80
624
-1472
-448
-816
1472
1184
608
256
-912
304
-1280
944
0
0
-1184
960
-80
-1040
-656
-1024
160
368
1136
-720
-384
-1120
-160
-448
-1184
576
1600
1552
1520
1888
-464
-1744
-1744
-928
832
144
-352
-32
560
288
-832
-1136
-672
-112
-1200
-624
400
-128
-816
-1152
-368
-64
-384
1920
496
-1568
-272
256
400
1008
576
-784
-784
768
1888
944
-432
-1328
-1568
-784
160
400
1552
48
64
384
-160
-1392
-80
-1024
-1312
-176
-16
1024
1648
256
-720
368
736
-1440
320
-1008
-1136
784
-528
544
-992
-128
-256
384
1424
96
528
1168
0
784
1280
576
784
-416
96
-576
-656
-368
-896
-464
-1232
-160
-384
-288
816
1824
336
-1408
-368
-240
32
-1648
-688
-64
-16
176
736
-32
-960
512
256
-1328
-384
-640
-1312
-1504
-128
928
-160
496
1968
640
-416
416
448
1376
-752
-416
-144
592
1200
1696
-640
-896
400
592
272
-736
832
720
-768
464
816
-880
384
-832
224
-752
-208
-432
544
208
-112
-848
256
-208
-1024
-864
-528
32
880
672
-512
-656
-2000
-656
-560
-784
-1120
768
368
-512
-1936
-1632
1136
-256
80
-352
-1184
-1872
-1888
-640
-240
192
-1072
-1328
-224
-912
1024
-64
448
1104
544
-224
-464
1312
0
-784
-144
-640
-1456
-1840
768
928
512
-640
-592
-208
-208
512
-416
1552
1520
1024
1008
1008
656
-560
256
-640
-704
-1152
-416
-1216
-1504
-400
1120
1696
256
-112
560
1856
976
704
-256
640
720
-464
336
368
1232
320
384
848
176
1648
-368
-1312
-1344
-752
864
352
-16
864
608
-752
-352
1616
1344
-560
-320
192
-848
-496
-1536
-480
-864
1168
-880
-1312
-784
-272
-80
1376
1472
-1264
-112
32
-400
48
240
-64
-16
-880
-1408
-144
-80
1392
-96
-336
592
-832
416
1344
512
288
-80
240
-96
1488
-400
-752
816
32
208
1056
816
736
512
848
-352
-400
80
1488
192
1168
1920
1648
-160
-464
-880
-496
-1120
-752
-272
544
-1712
-1312
-320
192
-48
-1808
256
-1024
-1632
-1456
960
832
-672
304
1504
256
-1584
1088
-592
704
160
544
976
368
80
-1328
-1424
-1008
-912
-480
-2048
-1824
-1280
-272
768
720
720
816
464
816
944
256
1072
1680
1264
928
560
1904
1152
288
336
-16
32
240
784
1504
1376
224
-848
160
256
-1584
-400
-176
1424
1216
608
-368
1264
608
1040
1152
96
-1408
1184
2000
848
1136
-432
-96
-672
64
-768
1824
800
-288
-752
-464
-1312
-1216
96
-752
1696
1344
720
-640
1040
736
-384
192
1072
80
1360
-672
-48
1264
496
64
16
448
816
288
1744
1376
736
544
752
-96
288
96
-496
-944
-592
448
1696
592
-1504
-1648
0
-528
-736
1024
288
1904
624
-32
-1776
-528
-1360
-864
-832
-1648
192
1136
-576
-320
-1104
-128
560
1712
-128
-1360
688
-480
-1040
-2032
1296
288
1696
608
-1088
-288
576
304
256
240
1040
-144
-448
-400
96
-1232
-16
-1008
-896
16
336
1648
1392
1168
-96
-576
16
-464
624
560
-272
752
-16
-752
-32
160
-160
-240
-192
288
640
848
-304
2032
1440
-320
-272
-224
-992
-1360
-832
544
480
-80
-240
-320
-416
576
-32
-784
-1536
-160
1520
1088
-416
-432
-96
560
-704
-1152
-1232
160
-1200
80
-128
496
256
288
0
608
64
176
1264
-432
-1184
0
-384
-1712
-416
48
656
-256
-96
-48
-1648
-240
-736
-672
592
-768
-256
48
-496
800
1024
480
1872
1344
1008
544
1184
-1376
-784
-496
-1120
752
480
848
32
576
592
-1008
-1024
832
1728
112
1488
-32
-640
-320
384
-512
-1312
-864
-1184
-464
-1232
128
-400
-1120
16
-48
-2032
-1824
896
-352
208
304
112
0
-1520
-272
-1840
-848
-368
-1440
-1360
-2000
-592
544
480
1120
-240
64
-1856
-1120
-704
176
560
-1472
-192
704
1504
784
16
528
832
960
992
-160
-64
720
672
-1472
912
32
-992
-1536
-848
-544
-1904
-992
-1440
-64
1424
1168
1120
688
208
-464
1088
-416
-1712
1408
464
-736
-480
-752
-1184
96
800
-96
-368
448
816
304
-48
384
1312
784
-1152
-240
96
-496
-400
1424
1136
688
-2048
-1648
-736
-544
-320
560
1424
208
1088
1584
0
1280
1808
-432
-336
-608
-912
-976
-816
-1008
-432
1664
64
832
160
112
-1728
-1248
-1392
-576
-1504
-1648
80
224
912
512
576
-288
-224
-112
-1248
-1920
-1152
0
560
-368
736
640
512
-320
1328
208
-1504
-960
-672
-240
-544
-816
-128
-560
-336
-288
-336
1088
992
672
-784
-1776
-624
880
384
-448
48
-256
0
-128
1312
1488
1392
1600
112
-1328
-1200
-144
-1808
-1600
-1488
-144
-1840
-784
-1312
-2000
-752
1280
928
-800
304
1200
2016
1776
-1456
736
480
1648
1552
1888
608
-1008
128
1488
704
800
416
1424
784
960
272
-96
1680
1360
1280
-48
304
64
1104
-112
-720
-80
640
320
1696
1200
-192
-1424
496
592
1712
-672
-16
-384
-816
96
-336
-128
-64
160
-704
-416
80
624
736
-192
-240
544
944
1056
1984
352
-976
-352
16
352
48
1168
-896
-1232
-64
672
112
-336
352
-560
-464
-1728
-1104
112
272
1264
848
848
-800
-1184
-416
-1152
-176
-192
-272
-352
768
-752
-784
704
800
-1216
-784
-496
-1392
-1328
-64
-640
-1008
-816
-16
128
256
-1696
704
1680
464
176
912
-288
112
704
-272
-208
-624
352
752
16
-1984
-256
1360
304
-736
1008
592
624
560
-80
-768
-1152
224
448
128
608
-1504
-928
-192
-544
-448
640
-400
208
80
304
-512
-240
-1136
-320
16
-336
-1424
-1440
-48
-144
416
-336
32
-480
-1408
592
672
880
-1344
-1376
256
624
-736
-1552
-1088
352
240
48
-192
-592
-544
-800
-1168
-1152
-832
-448
128
96
-48
-1120
-624
-960
-704
-144
-304
-896
304
592
-1296
-208
-592
-1216
-1584
-944
-80
-128
928
1152
-80
944
256
-416
-496
-544
352
-384
432
704
1792
-1296
-768
16
608
-816
592
1952
736
-400
1072
960
896
-304
672
864
-704
1200
496
592
-224
-1344
-1040
592
960
1120
1296
-192
-1408
-1024
32
-320
672
512
192
-96
224
-448
-112
-384
-416
0
1712
624
416
800
1584
32
576
-1328
-1664
592
1136
624
1504
624
-944
-544
16
-1536
-384
128
-80
-96
-48
1376
16
-1184
-704
-864
288
480
528
-1232
-848
-752
-272
-768
-64
-16
-864
-400
-1200
320
384
-1328
-448
-256
288
1136
1024
1296
-1104
-48
480
-512
-896
32
384
64
1328
-512
1088
848
-496
448
16
16
-144
-640
352
-176
-624
-1200
-848
-32
560
-720
384
1840
304
-784
-384
-272
-272
-208
-592
-560
-1312
-192
304
16
-160
960
208
-576
-544
-112
-1360
-1328
-688
992
1712
816
1808
-304
112
464
-304
128
-1504
-800
640
-32
1136
1392
1696
1760
448
-1696
-1392
-320
912
1968
-384
768
1088
944
-720
528
-112
-320
-576
-1056
800
496
912
640
-32
640
-544
368
400
-528
512
1312
1680
-16
-336
-528
-256
-32
-496
-688
-1264
1744
928
-272
96
992
464
288
928
64
-1360
528
1632
16
336
-624
-480
-288
-672
-880
416
1472
-640
64
976
912
1712
-640
-448
-1712
-1024
-1504
-1184
-80
800
-416
-640
-960
-896
928
-96
1120
64
1552
-1648
-320
-1296
-416
736
-1136
-1072
-1056
-304
528
80
80
512
-128
-496
-2032
-1008
368
-160
-592
-160
-448
816
80
144
-480
1056
96
-128
1344
1376
32
624
-720
-1264
384
-64
816
224
192
1328
752
448
-128
-80
-1584
-720
80
32
-816
304
160
-320
1888
-992
-384
80
-512
1168
912
-848
544
-96
-496
-1696
880
2016
96
288
80
-368
-1120
1248
-1392
-1536
32
128
-800
-1360
224
1856
-432
-448
496
-432
-592
-704
-512
-1456
656
896
-912
624
768
640
1104
1120
-272
-736
-1136
-496
256
-64
1376
432
448
-848
-176
-208
400
80
1264
208
-432
624
-528
-336
192
1696
656
320
-1472
-384
576
1648
896
-784
-1712
-112
-1008
-1584
-112
944
352
-160
160
256
1200
1136
-304
-304
-128
288
-832
80
-144
-320
-320
-480
480
848
1376
640
-608
96
-736
-1440
-768
-1712
-1168
-688
-496
176
-32
48
1024
832
-1328
-1568
-704
-256
688
-144
-64
-736
-672
-1520
992
1824
-832
96
-208
1312
720
32
1120
1216
-144
-368
448
384
-1056
-640
80
-48
-48
-1056
-224
288
-448
544
704
592
352
-1056
128
256
-1040
-240
496
640
144
-976
992
-64
-1456
-256
144
-464
-208
1488
-160
-1136
-432
176
928
-752
608
480
704
-192
448
688
496
-512
-592
0
-1552
-624
672
432
-640
224
-272
-304
464
-896
1296
272
1616
-832
-720
960
320
32
560
1168
-384
-144
992
528
-16
-352
-784
-464
1728
976
1456
528
720
832
288
-768
-1376
-1120
-576
-416
-352
-224
656
-592
-1536
-1232
864
1424
-96
-672
912
1808
-272
-1456
64
304
624
432
1856
-112
-784
-176
544
912
512
1088
-128
-768
-448
288
896
720
-144
-64
608
-256
-32
1280
-80
-832
-224
1056
-144
-224
-1712
-1088
64
224
-240
-1152
-48
272
1888
1952
800
-640
-16
928
864
240
880
-576
656
-16
240
576
-352
-768
-592
-1120
-640
-304
-560
-976
-784
-800
-144
128
240
352
-16
-768
-320
-1008
-816
752
1328
240
-1600
-608
-1472
-560
288
-480
672
384
1024
-32
-784
512
-960
-144
-160
-784
480
-368
848
128
-224
-608
-784
-832
448
912
624
-240
368
-272
-176
1504
-656
-848
-1648
-1616
704
256
176
368
1232
608
1216
560
224
688
1760
-1008
-1360
80
-432
-400
-352
1424
1696
64
1312
864
-1488
256
1648
224
656
-48
-336
928
704
1232
368
1536
240
1392
992
896
1584
768
1024
912
688
352
144
864
768
64
496
176
1872
-736
-720
1040
-512
-288
-784
624
1408
-256
928
-1232
0
1616
896
224
-320
-352
1536
-592
-896
-64
768
1456
432
-80
-768
-560
-912
256
-512
-1184
448
816
-160
-816
-304
-1024
-1504
-16
944
240
784
-272
96
-1200
-224
-672
-1152
-80
1136
160
1440
1248
-736
592
-944
32
256
-64
1456
960
64
-112
-528
1456
336
-1584
-96
160
352
-624
336
-1344
-16
288
-176
-1424
-912
-592
-1168
-416
160
-288
512
672
496
656
768
-48
112
384
-368
-752
544
-208
-736
-128
-576
-1792
-944
-96
-768
176
-544
336
112
160
1056
528
48
1008
32
720
112
-1152
1168
1664
528
144
-992
-160
-1056
-912
336
-1264
-432
496
672
80
-528
416
1296
544
-944
80
240
-2016
-1216
176
-896
-384
384
832
-368
-864
-512
-560
224
336
-16
768
64
528
880
-112
416
688
-496
240
80
-336
-64
-1904
416
1536
704
-176
208
-848
-160
-560
336
-1200
240
832
272
336
592
448
-384
-1200
-1584
-1824
448
272
-1072
752
-64
-48
-272
1136
640
-176
-752
-352
1056
464
624
-432
-1856
-800
1232
1072
1264
640
656
960
-176
400
-912
-160
-1504
-512
-1024
1248
352
48
880
832
32
-1856
400
800
752
720
-32
416
-528
-704
-624
-112
-768
624
16
-480
704
-352
1008
1488
272
-176
-544
-320
-480
-496
-1504
-992
496
400
592
1136
1200
1520
624
-656
-48
-80
-736
-864
-432
144
-384
-848
272
1488
368
-608
-704
-816
-352
544
208
-992
240
1616
-400
-608
-80
320
-1360
-752
896
-256
1056
-544
-1600
-976
416
240
-96
-896
-48
-1008
64
752
-304
-896
-864
-656
-688
-1008
-1376
-1264
-656
528
1360
480
-768
-592
592
-528
848
448
-1376
272
-320
-752
144
112
1120
592
-48
784
576
-624
-1024
-320
-320
624
-576
-496
-976
528
384
1200
1744
-32
-624
-720
-400
-16
368
240
-1504
-624
-432
-672
-1616
-944
-1040
384
-1344
-1120
-368
-336
-1472
-1456
-832
-1056
-624
-1328
2000
752
-1568
-1200
-656
-1952
-272
-1312
-384
-512
-112
-512
-1696
-384
1184
448
-1696
-1008
368
1232
528
-416
-1168
1040
960
576
800
1296
768
-624
-112
224
208
-64
304
1744
1488
240
-176
-1424
112
784
-624
-96
-1136
-1056
-336
464
544
-304
-1040
-1808
-656
-144
-640
-112
-928
-1328
-704
432
-1072
-80
704
-624
-864
-304
464
1440
1120
-208
-256
-176
784
624
1008
384
-1168
0
-1056
80
496
-800
768
-496
-1008
432
1840
640
-160
-176
560
-1056
-304
-560
-32
-768
-1024
-368
-1248
144
-992
32
688
784
-800
-816
1104
16
-48
-624
-1056
-208
464
448
320
64
-480
528
912
-1728
128
-240
-1072
64
-1328
-1552
-336
208
-448
-1504
-192
-480
-1232
-1696
32
-832
-688
1296
576
320
1232
-1328
-1216
-208
0
368
1088
400
512
1552
1200
32
544
-528
-1296
-2000
-1760
-864
480
224
-1328
-16
1200
32
-416
960
1248
752
560
480
512
32
-128
960
1344
1472
784
128
1120
1504
-1568
496
1024
-144
48
1024
-736
-1072
176
1264
-1856
-272
672
944
1760
48
640
992
1600
-336
-256
144
1136
560
1440
224
-384
928
-192
-1184
-560
-416
1376
528
-560
-1024
-992
-1568
-1760
-1312
-880
-976
-1760
224
1056
1504
896
384
-368
-1024
-208
0
-368
512
-176
-608
32
1680
1520
48
608
816
-1216
-1312
-816
-1600
-1456
-432
-816
-1136
400
-1488
-848
608
-112
-320
896
1936
816
240
0
816
688
560
1360
1664
368
128
0
288
-1424
-1600
-816
-640
1856
96
-192
-352
1392
800
-160
-992
-1936
-1536
-784
432
-704
-512
-1072
-1264
400
1120
1104
576
96
432
624
-464
-240
-1168
-352
1168
688
-448
-1424
-80
208
-144
-976
-976
144
-1264
-256
-1664
-1552
-1840
816
-32
-1408
144
128
1392
640
592
864
-48
-1296
160
896
784
1120
-400
0
-608
-1632
-656
-384
-320
352
1216
416
-1136
208
688
96
-176
-1248
-1616
-352
160
-240
-112
-1552
-1328
-768
-368
-400
-1152
-1328
-1600
400
848
272
800
1424
352
-1008
-400
336
0
272
-336
224
128
-1952
-480
704
-624
-1712
736
528
848
-16
-256
896
848
848
1504
1728
-1120
-416
-912
-1872
-1360
-208
-1104
-1296
-1008
-1104
528
1184
544
1408
-544
688
672
64
800
1040
1472
-64
-368
-528
-1280
-544
-1088
1184
416
672
912
608
-432
640
16
-544
1568
1120
0
720
272
864
944
-640
224
1024
-880
-112
368
368
1152
768
1360
1216
-1264
-2032
-1072
-112
-464
-144
112
640
208
544
-672
-784
-160
1552
336
560
-1168
592
144
-576
432
496
624
288
224
336
704
-544
-944
-624
-1040
832
432
1280
1392
784
128
-1104
144
80
304
-80
-1776
-1552
-320
1056
16
-416
-880
-1552
-1968
-1104
-1488
240
-544
-1456
128
1184
-720
-48
-624
-1232
-128
592
544
-896
-32
1216
96
-1232
432
608
-704
288
0
-848
-1168
-864
-1136
0
448
-864
448
-1264
-880
-128
-1456
-1952
-336
-208
96
-1072
720
48
160
-656
-896
-736
-544
-384
-1648
592
480
1056
624
-1136
-1744
-976
112
416
112
1968
640
208
-1792
-1472
-928
-48
1184
656
1936
784
416
176
-576
-352
-560
944
1104
-352
-688
-976
-624
0
-1568
-16
-512
1040
1280
832
-160
-1088
-944
1280
1984
896
864
-176
160
160
-576
112
240
656
-336
816
1248
1216
-1264
-1424
800
928
-80
1024
-304
-432
-144
-1488
-496
-96
-416
1376
-1456
-1216
928
1584
1376
-144
-1056
-1280
336
-352
-80
0
-480
-384
144
48
-64
64
432
624
560
-288
-576
-1168
-544
-512
-1296
688
1040
240
-240
-816
448
1200
1120
48
720
976
1216
-144
-656
-160
1088
-96
208
1456
544
-224
-752
400
-800
-1568
-448
-1648
-1200
960
896
-336
-1552
-112
1280
1392
1856
1616
-128
1456
16
112
-800
-48
32
-304
-272
432
704
352
-608
-288
272
400
1504
-128
-224
48
320
1328
240
-432
-352
1104
608
1040
-1840
-1200
-1120
-880
-1392
-336
1072
1472
-1056
32
-224
-112
-1472
-720
48
-352
768
1424
-400
-832
-432
-1552
-784
400
-1296
-176
624
-336
-1488
-1616
-192
-576
-560
-272
-384
192
-336
1072
240
-384
-288
1568
112
80
1760
1520
448
-352
928
416
-208
1648
1744
-32
1568
960
-48
256
1392
1968
384
384
960
-1104
64
-448
-96
112
-160
-176
-1440
160
976
-576
-176
400
336
288
-240
-784
1584
208
80
-1744
624
1408
912
-320
16
768
-336
304
-208
976
768
160
432
-560
896
1456
672
-384
480
144
-464
480
-1776
-1232
-1024
1952
1232
240
-64
64
976
-128
832
544
416
-592
96
160
-880
-1232
-592
-1264
-1136
-1696
416
416
1568
224
1024
1920
784
256
800
1680
-480
-176
-768
-944
-16
-928
-1136
-464
-32
272
-752
-464
112
1312
240
688
-1584
-1568
544
-688
-1776
-528
512
-464
800
1584
-768
-1616
-448
-1680
-208
704
-1472
-1520
-448
16
496
1328
-448
-1648
-1680
480
752
-32
-80
-1712
-432
-976
304
368
-816
-1856
-1280
208
928
1184
448
-240
48
-176
64
-112
864
1424
-1088
-64
1296
-1216
-1248
-1824
-208
-128
-1120
-240
-1104
784
1088
320
0
-1936
-448
-192
768
1088
-1600
-1008
736
176
-320
144
-112
416
624
1008
1328
-208
608
-528
-1904
-1200
-1248
-160
-1040
-880
864
1024
96
1520
80
-1392
-1680
-1184
0
288
624
608
-896
336
-448
-112
1024
1792
768
864
544
160
-400
-400
368
784
592
-848
-1648
-288
-544
32
1968
1728
-416
832
368
-656
768
1232
1360
96
-1104
416
720
-1472
-1328
608
16
352
-752
-1152
-64
-960
1088
320
-256
-960
-1248
-1360
128
144
96
288
1552
-16
464
1008
1952
752
1072
-1264
-1072
-1024
208
-1104
-352
416
784
2000
-1056
-832
-144
1072
-144
-448
-368
-752
-832
736
432
1392
-320
208
1648
816
544
-656
-1088
1280
400
592
-1520
352
656
16
96
400
624
-48
-1136
144
-816
-336
832
-592
-864
272
-1040
496
464
-880
-800
1184
656
864
384
-816
976
288
320
1632
848
1440
112
368
1664
688
-1328
128
224
-1360
-1584
-864
224
-432
-192
-864
944
1504
1984
560
432
80
416
400
-896
-1056
-544
-32
112
1072
240
608
1136
304
-192
-32
-1712
-656
672
-96
-400
96
-432
-1680
-224
112
-720
304
912
912
1168
240
-1344
-1248
-752
-496
-1424
-160
-512
-1072
304
-1184
-352
384
752
688
416
1440
1136
208
1472
592
448
16
1968
-288
304
1280
-160
544
-912
-480
368
1008
96
-1696
-240
-288
-304
-1952
112
-704
-272
-1680
-256
448
384
1296
-1200
-1568
-848
864
624
656
1456
864
960
384
816
848
-288
-1120
-112
1872
1872
1104
1232
-1088
-1664
-528
256
-448
352
592
-1264
-1328
-640
-1216
1072
1216
-1248
-2032
-496
560
-336
-928
-656
1616
1696
32
352
288
-432
480
496
144
-256
-1904
-1520
800
640
-64
496
-240
-608
-320
384
-256
-192
-112
640
176
-544
-16
-48
192
-144
624
-400
-1344
-464
1168
304
112
-480
-848
624
192
-672
-528
1632
544
-368
528
-80
-912
-96
-880
-1040
96
224
784
528
-48
1024
880
-1584
480
672
-832
-224
-416
-832
176
-336
512
-256
-224
-864
-1008
-640
256
-208
1008
752
-1136
256
-400
-528
416
-656
928
1152
-48
640
624
-528
-1328
-2032
-752
-864
-1760
-1088
-32
-992
80
-464
-48
-1488
-1648
32
176
-560
-1424
-1568
272
-208
912
592
-1408
-256
480
-496
160
192
-1280
-944
1376
592
-144
464
-368
848
-368
-992
832
1200
-64
-672
-688
-1696
-272
-416
-1520
1248
432
-1600
-736
304
1232
1024
624
-80
240
1696
944
-160
-1184
928
544
688
-704
-1552
-208
512
-1104
-1456
-1936
-736
96
736
-544
-1024
-880
-608
-192
560
-1488
-64
384
288
640
-640
-1024
448
1056
1152
1632
1648
1488
-64
-1680
-16
-48
-144
-672
736
656
16
368
448
384
-832
464
880
-304
-1264
-1280
-240
32
-992
-672
640
-480
240
1712
720
160
-1392
576
800
1296
640
-32
-1488
336
1360
768
272
-688
736
608
-192
352
-896
112
800
-80
768
176
-1136
-1280
320
528
-1024
720
384
-16
832
240
944
544
-720
480
1104
-752
-96
672
304
-752
-176
-576
672
688
240
-528
-688
-496
416
64
-896
-128
752
-400
16
-576
-336
496
64
416
416
1600
1008
864
528
-128
-752
-496
-304
-288
-1632
-832
1360
768
512
1280
-768
-672
-160
1168
1248
1392
1120
304
-400
-656
176
-576
-1168
-1104
-208
-720
-704
-528
-1808
-960
-432
-496
352
1664
880
-736
288
240
-1088
-1424
-368
688
1200
48
-544
-864
-1296
-608
112
-1168
-1008
-528
-944
-272
-48
656
1104
800
-1024
-592
-16
-1088
-224
-1360
832
976
-1296
112
1136
144
304
352
-720
784
1760
1376
-448
-304
-96
768
384
176
784
640
272
-432
528
1712
-320
-1344
1184
144
-1488
-1072
-32
1360
1328
-16
256
848
-32
112
1376
656
-1312
-624
-944
-1952
-944
-192
-1392
-736
704
-528
-288
336
-560
-1024
112
1312
752
-1936
-1072
-192
448
32
1024
784
368
128
32
-480
-656
-720
-800
-752
-1440
-1392
-1264
-1120
-864
512
1216
-256
-16
864
1968
240
-576
-80
752
-96
-544
176
-720
1072
144
-496
-608
576
656
-80
-1936
-832
400
-1536
-800
-1536
-1440
384
944
176
-304
64
-1104
-688
-640
-1168
-1456
-944
64
464
-512
-304
-1008
-1200
-2000
352
-656
-272
-1552
-32
848
688
-384
-1424
-1136
112
1152
848
80
-96
-48
512
336
816
352
880
1184
-752
-208
-80
752
592
256
-144
1728
832
880
800
-880
32
-1232
-768
1520
1152
-96
-160
-192
528
896
512
-1936
-880
768
160
1744
1376
-608
-480
1200
-64
-432
-992
192
1072
-1008
-272
-720
608
1552
1328
688
-2016
-1552
-160
-416
-560
-304
304
272
832
1008
-1440
-480
-240
1024
-16
-144
0
-848
160
-128
736
416
272
1600
-576
576
320
-1664
-1040
-720
-496
-992
384
432
-592
400
512
-544
-1040
-304
1568
1024
-272
384
-1600
-400
672
528
-256
816
1040
608
-1168
144
1728
1168
-976
-608
592
1312
-208
-1904
-1072
-784
-240
480
-192
192
-1888
-1104
816
-368
-400
432
352
304
-208
704
-352
-112
1264
-480
-1376
-240
-1216
-1616
-1744
-1136
-528
-592
896
768
880
208
848
1648
928
112
800
-384
0
1040
144
-912
-1248
128
-16
-448
-624
624
1328
-560
-80
-1456
-1632
-288
48
1184
-480
176
800
464
192
1392
1296
-112
528
1344
464
256
-1040
-320
-16
816
336
816
256
-272
1680
1584
960
-784
-1120
-608
32
-912
-288
-944
-64
-304
-576
-864
-736
-432
704
224
144
336
80
176
976
1936
1504
304
-1056
-720
288
-16
-640
1296
-720
-1072
208
208
-1248
-112
-272
304
-368
112
-1088
-384
416
144
704
-144
-320
1488
1712
-608
-528
992
208
1088
-1088
304
544
512
-1056
-1552
464
352
0
-880
-544
-288
1376
-304
192
416
-736
-1280
752
80
-608
336
560
-544
720
640
608
48
-784
-1440
-560
-656
-592
160
-704
-1504
-96
-656
336
368
176
-224
240
-1504
-1472
656
1456
160
80
-448
-400
608
240
304
640
-2000
-1456
-208
-464
-1664
1376
1904
-624
-1744
-1056
-576
176
-592
128
-128
-1088
-1888
-384
-1328
720
688
-208
128
1200
1456
288
-912
-1632
-720
1888
656
-1232
-448
-352
-256
-160
224
-1072
-1312
-864
-752
1136
-1024
-656
800
-704
416
480
-1168
-1232
1136
384
1680
-192
-1600
-512
-1104
272
-176
-288
1056
-80
-1968
-1168
-800
-240
-1136
-560
-704
-656
-288
-1920
-16
512
-416
1520
960
-832
384
864
80
-736
-320
-272
-672
368
-736
-608
272
-16
-976
-1968
-1904
-992
640
192
720
-64
-1040
-576
464
-800
-976
-160
384
-448
240
736
-320
608
-144
-48
-128
704
-1744
-816
64
-1184
-384
-448
-784
-560
272
1520
816
848
-1120
1376
1584
-176
-1792
-1184
-1936
-272
-768
-768
544
1792
-848
-928
-576
704
1024
944
752
-432
-976
192
-160
48
16
352
1712
352
-416
-32
-48
-1856
-48
-1392
-272
-512
-1040
-1872
272
608
-48
-32
-560
256
1728
-848
-224
-544
-160
-448
320
-272
576
656
-528
336
1408
0
1712
-464
-48
480
688
1424
320
48
672
608
720
-240
-944
-1200
544
288
304
112
-2048
-1008
-224
304
32
80
544
-1456
-64
-592
-672
448
160
384
352
1712
1248
-480
-720
64
192
256
-1552
368
16
960
-112
-1440
-688
656
1632
1296
-48
96
976
1952
624
1008
-160
1200
1184
-144
-1168
400
-544
-752
608
-416
32
-960
-1280
-560
-96
-1328
-512
-144
96
192
-240
-304
-1520
-144
1104
-304
96
32
608
1200
464
-608
-704
-176
480
160
80
560
48
1120
48
688
-704
-1504
1440
1104
-304
752
1024
1696
624
-64
1376
-64
400
560
-2048
-416
-1664
-1696
-400
-112
1360
880
-960
-640
80
-1744
-368
176
-720
-464
-1200
-784
384
352
-1744
-560
32
-992
-976
-1440
-640
-1728
-64
544
-656
-1328
-944
-672
-320
-1120
128
-272
-64
1120
512
496
960
0
496
1216
1696
0
1504
304
-304
-528
1520
176
1152
-688
640
96
880
992
-1840
-624
1008
-192
-704
-1024
704
752
-1568
256
1264
-544
768
1488
352
-368
-208
-1216
-1056
192
656
-992
0
736
704
864
880
-1056
-656
368
-432
-496
-80
-416
-1488
224
-528
-704
576
64
640
608
1152
1728
-672
-1440
912
448
-160
-80
-1280
-1168
-656
448
-64
-32
-272
448
704
-448
1760
-672
-1056
-1424
-1472
-64
48
304
-192
128
1376
1600
448
1312
608
-592
-912
-704
880
448
304
688
1056
-1840
-1056
-1760
240
1056
816
-304
-752
464
-320
-1616
-1040
832
464
-96
-96
160
224
-752
-1936
112
528
-816
-96
-752
-2048
-992
-656
-768
464
688
-816
-928
-1376
592
480
-912
272
-496
-560
-1936
-272
-240
272
-1488
992
816
416
432
112
624
1600
1152
304
-720
-688
912
512
768
-144
1552
256
1600
1728
1072
-16
16
-544
384
-192
544
416
912
-48
416
1120
-64
-528
1792
-160
-688
1232
176
1040
1488
160
-1696
464
592
1232
-400
560
304
-16
-544
1264
1136
1296
-208
944
-160
-1936
-144
-1104
-176
208
208
-784
-1504
32
1776
352
-176
1120
1168
96
-1088
80
416
624
592
1264
592
-96
1552
1504
1440
1072
1104
1200
896
448
528
128
160
592
-112
-800
-960
-240
-464
928
208
272
-832
448
-880
-128
-1392
-416
-240
-608
1168
672
-752
-848
-752
-1200
-1456
640
640
-1216
64
-944
-1168
-1616
-128
192
1008
-1072
400
-176
-640
-2048
-1088
-64
112
272
-976
-608
1264
448
32
688
1296
1344
-800
-672
-640
-912
-464
-320
-704
-368
-608
416
-560
-768
-32
128
-1872
-32
-112
528
480
224
-800
-1344
112
208
-144
-1216
-1088
-704
0
-848
288
-368
-1024
-1264
1040
704
-80
-816
-1184
336
272
-768
304
32
432
1472
1136
464
832
-1088
-288
-176
80
80
448
944
128
-1776
-1824
912
1600
1296
192
-1440
128
640
400
304
-848
-288
160
1664
144
-256
576
-1392
-1776
240
-1696
-368
-224
-1648
-736
-1072
-720
592
-592
-16
336
-240
-848
624
-736
-528
1216
640
-528
-832
608
848
448
96
288
-16
912
96
-304
1648
1376
576
-896
-80
224
896
528
192
368
-272
-1296
-1152
-1392
-224
768
-1392
-1408
112
800
-1056
-320
-1104
-560
-592
-96
496
-208
256
1696
-1104
-816
144
992
240
112
-496
416
-368
1472
928
-64
-528
-352
-1200
-1584
-928
-1216
-1440
784
304
176
640
384
-896
-1472
-576
-976
-224
-1232
784
-560
-176
-320
880
-432
-976
-576
-944
48
832
1232
-1248
48
112
-848
816
960
624
960
1824
832
-48
896
704
1440
384
384
656
1072
1200
704
-16
-304
-240
-416
-1088
128
592
176
64
336
16
1744
-560
-1088
272
992
-160
-880
-944
-368
368
560
-320
-544
-416
-288
1712
64
-1712
-1552
976
1824
464
1152
432
896
736
-240
-864
-672
-672
-1136
-848
272
-192
144
-432
-1488
-32
-1072
-256
128
-256
-144
208
0
-720
-160
-960
-1440
-800
48
1088
1328
16
720
-1040
-1104
-512
-576
-848
-1376
-448
688
1584
112
448
1440
64
-768
320
-400
304
-848
-1264
-1312
-1184
912
-480
1584
1056
1184
-384
-640
1232
1696
1392
768
-1360
560
672
640
-560
-1472
-832
-352
16
-864
32
-416
-304
-1344
-368
-16
416
768
992
-384
-80
-1184
-1312
320
1600
1376
1024
656
112
800
816
192
-704
16
-240
-1088
-1200
1232
1504
1216
1088
832
-304
16
160
352
1776
32
-256
672
128
-768
1184
-240
-688
1040
1408
-384
-784
-800
-1504
976
320
752
592
1360
960
320
368
-688
-1248
864
1776
48
704
80
-2048
-1968
-1280
432
560
-944
-1664
-1568
-528
352
16
-208
-48
-192
1984
640
224
1184
1504
448
176
-1072
1376
144
816
736
352
-752
-448
1792
-160
-640
336
704
-1776
-736
784
-848
-1968
496
336
624
288
112
288
1120
1056
-144
-672
-1824
-576
1776
752
160
-448
-592
464
1280
48
1392
320
128
-16
-528
-400
1200
288
32
896
1040
-816
-400
-416
-1488
928
1680
-464
-1360
-240
1040
688
-1600
-1040
-1024
-368
-112
-48
880
288
-624
240
1344
64
-240
-1888
-320
1216
112
-672
96
-192
-432
480
-240
720
-144
-64
-672
-1456
1088
864
-1056
928
176
-48
944
304
-512
-1248
-1696
272
-176
64
64
464
800
-1184
-464
-336
304
80
-992
-304
-1456
-1712
-656
-592
-240
-688
-448
-384
816
1280
800
80
48
-464
1600
816
816
368
496
-1216
-1216
1184
-368
-80
-496
-992
144
-48
-1296
-64
224
768
592
-352
-1568
-48
-336
208
-320
-544
896
608
1024
-352
-1552
288
912
-32
-624
32
464
-1088
-112
-432
-192
1040
944
-160
-704
256
1696
224
320
-560
512
-32
-1520
-1552
-1312
-1328
-384
464
1008
640
1520
80
-336
-1152
-848
-1424
-1376
-672
-32
1552
-32
16
1472
-416
-848
16
1040
-944
-192
-672
752
528
752
608
1552
864
-592
-768
-1984
-640
1584
288
-464
-1664
304
864
-176
-848
-1952
-752
-608
288
240
-1856
128
112
-1376
-656
1056
1088
112
-1616
720
672
832
336
-1040
-1696
-704
608
-880
640
-416
432
-976
624
192
-1264
-512
0
-496
-96
-256
96
928
400
-128
512
1168
944
272
288
1120
576
320
-592
-16
1776
-256
-576
-192
144
-192
-1904
-720
-752
-464
-1296
-1184
1472
-1056
-2000
-160
240
-800
-368
-160
-1088
496
1168
1328
784
976
368
1792
1536
1184
80
-864
-560
-160
112
-288
-384
-512
-1440
-1184
-128
368
432
656
128
-208
224
960
-176
1696
-400
-112
1200
672
-912
-592
1200
416
96
576
-800
752
128
-176
1216
240
544
272
-576
1168
1824
-432
-128
-128
208
-128
-336
-1920
-784
-688
384
112
-288
112
352
-608
-144
400
-1120
560
896
-96
816
0
224
864
864
1424
16
768
480
784
-240
-576
-1760
-1664
-544
-480
-544
-832
-384
-1216
-1104
-1504
-80
-320
-208
-2000
-1200
576
1056
32
-288
-336
16
896
1968
-432
144
864
576
1088
-1232
1008
624
-1008
-752
-1056
-1024
1008
400
1152
-144
-544
1248
-448
-992
32
928
656
1872
560
960
224
432
912
-160
928
576
-272
-464
-224
0
1072
48
448
832
-176
-48
-1088
-64
-16
1344
800
-448
-352
-112
-768
96
-1088
848
1488
-1824
1088
1120
-480
-880
-1856
1040
1328
-16
-800
80
720
1216
928
1840
640
528
1408
1104
1200
-64
-1072
-80
592
608
-128
-464
-944
-656
-32
240
592
-192
-128
416
1376
-208
-1200
624
416
48
-384
-1648
1024
256
96
-112
1360
64
784
-64
1536
1296
528
736
144
-1152
-1456
-368
352
1536
-512
864
-592
-1104
928
368
1024
-112
560
1232
448
-320
-1120
48
-416
-240
608
1664
144
-752
192
-384
-96
-656
-96
1072
1200
-144
608
608
-896
-784
-176
-208
1360
864
928
-1008
-368
-320
112
576
-720
1472
1792
-880
288
-80
432
-464
-752
-960
-64
-48
-992
1072
416
1408
1600
16
-976
640
-992
-464
1392
-16
-1520
1408
736
240
-1488
48
80
816
672
32
-464
80
128
272
1920
608
96
80
-1152
176
-48
688
912
-1200
-560
32
-416
320
-1648
400
960
112
-1680
208
-288
-672
368
-848
-144
1648
-96
-928
-1152
224
80
-1072
-1456
-1632
16
1232
1696
-112
1376
288
-784
816
-528
-656
-304
-784
-128
-320
512
768
160
-1008
-880
-176
-768
-928
-512
-240
432
560
-496
0
-112
-1728
0
544
-224
-992
368
1360
2016
1872
1376
576
1248
224
96
992
112
960
-544
-512
-800
1328
2016
1312
0
1856
64
-1328
-192
80
80
-768
528
-64
-304
1072
-112
-32
-896
-1472
-576
-464
-2048
-800
-736
-800
-1424
-1296
240
-496
-336
1488
832
0
576
32
-800
-576
1264
304
912
880
-1184
-1104
-912
288
800
-320
-1056
1904
1280
1552
-880
-1632
-928
-1104
128
48
1856
1168
-848
416
-416
-1968
-1584
272
-640
-624
960
688
-1776
-960
-736
-960
544
1232
784
-80
1216
736
1216
304
432
1232
-688
-192
-1552
-912
-592
-816
-304
-288
-1712
-1040
240
-80
224
32
512
-656
-16
-1360
-1120
656
1664
1280
688
1760
416
560
-352
-704
544
-48
496
-624
-176
944
-608
-176
1264
0
-1776
-976
272
1184
-32
864
1424
176
-96
-336
208
-640
48
912
160
928
1216
-1088
-704
1984
1184
1200
112
496
384
640
-144
32
-752
-224
528
96
-144
-592
-1616
-16
-1200
-1856
-1152
-1296
-144
-1120
-384
128
336
-16
-256
-544
-752
752
32
-512
-816
672
-1200
-1440
1088
208
128
1712
-1440
-1296
-1024
-544
96
-208
64
1856
512
-288
1984
-272
112
-496
368
1440
-272
-320
-1728
-656
-1120
-1424
-464
-64
320
1008
-1232
624
1648
1616
1552
368
-1344
-1696
176
-1024
-848
832
464
368
928
1216
1824
688
1584
480
112
-688
928
1760
560
912
1728
-976
-896
1120
208
-1440
336
832
832
464
160
-848
1392
256
1056
928
-192
-704
-880
-1520
544
1152
1440
256
-1248
-1312
608
-352
832
640
-464
-1200
-688
-1664
-960
-848
-1424
-1216
-608
-688
832
1088
-96
864
368
128
896
1664
352
-144
304
1488
1568
1088
1120
704
768
720
592
848
992
928
1776
1408
240
1664
2032
1232
-816
368
-384
-1216
-1760
-960
-544
-16
736
96
-1232
-896
-432
1808
672
256
208
-384
-688
-160
-144
1664
1152
1216
240
784
368
480
144
-1072
-800
512
-544
624
624
-464
592
432
1888
-896
-48
-128
-1088
-1296
-320
-1360
-912
-2032
288
704
-592
-144
-224
-944
-192
-512
-336
160
-224
-336
-144
-896
-976
-304
-512
32
80
-672
-112
-32
-304
896
-192
-32
-256
-816
1296
496
976
-592
-240
-288
-1120
-400
0
1040
752
544
560
128
-464
-1184
160
-1760
-480
-912
-1120
0
576
1008
2016
1568
944
352
1200
272
-1392
-208
-672
-240
-560
-432
496
1392
1312
-240
-240
96
576
-656
-112
208
-832
-1936
-1712
-1104
560
-304
544
16
304
1856
2032
1072
-512
1168
32
704
-160
784
1344
176
336
1024
-496
-928
-656
448
64
-1488
-1120
-1360
-1120
64
928
944
1536
496
576
-608
-896
-1200
-1376
864
512
-688
-112
432
96
560
-576
-656
-432
-832
-272
832
656
-368
-208
304
864
-416
-832
-544
-256
288
304
-864
-160
912
112
464
1472
608
-1488
400
512
48
176
-1552
-1616
-352
-80
-1696
-224
-928
-1744
-416
-384
-128
-464
-368
-960
-1232
-1152
-928
-368
672
-1168
-96
1248
-576
-752
1104
-128
768
1360
752
-144
240
768
-416
-688
-400
672
-1728
-1808
-576
-432
-208
-336
-96
-256
-640
432
864
512
960
352
512
128
688
-1568
-224
176
176
96
112
-384
448
1568
640
432
-1152
-1056
336
1040
-336
-80
-208
1072
1440
1040
-720
1120
-784
-720
736
0
-448
1392
2032
528
-1600
-1232
624
1984
944
1840
-1120
-368
1024
1920
176
800
192
432
-368
-1600
-512
-2016
-1280
848
1536
1200
112
480
1008
1200
448
-1968
-1264
-832
-1136
-1136
-1392
-704
736
128
1776
1200
272
-400
336
-1344
-384
-1856
208
352
336
992
1584
-240
128
1104
1104
352
80
-272
-960
-240
1600
-560
-1008
-944
-1536
1008
1776
-624
224
1264
-304
48
672
944
-80
-656
-624
160
-576
-848
-48
-896
304
-704
-448
832
1488
-240
-304
-192
976
-432
-480
880
928
-48
1232
1552
-544
-432
448
1328
704
1792
800
320
-1840
-432
192
1104
976
1184
-32
-1120
-1856
-736
-1024
-384
-656
256
256
1008
2032
864
112
-240
-544
-1872
-1008
-272
-1984
1616
368
-768
-1344
-64
336
48
352
-272
-1008
-464
-1104
-1584
-576
480
16
352
-128
-400
-1344
48
-768
192
160
-976
-224
-960
-96
912
32
240
1520
352
448
-208
-960
-832
-176
1440
80
-1536
416
1840
880
848
1664
416
-560
-1744
-688
-1344
-944
528
128
-560
432
320
928
768
832
-608
784
-288
208
-1024
-240
-512
1024
192
464
-656
-1072
-1024
-1280
-1136
128
-544
1264
-64
-128
-592
-592
176
-32
-192
-912
-720
-880
-544
1408
288
-464
-1200
-800
-48
-432
-1088
528
192
1056
1440
752
1936
768
-720
-288
-640
-1552
-912
-1408
-1712
-112
-416
-1056
864
-144
-944
-1280
-208
288
-720
48
-1136
-688
-1392
1168
1552
-624
-528
1152
1216
-80
-112
-672
-1152
-272
1184
176
-1072
128
208
-896
-1104
768
1968
-208
288
-1584
-272
-192
1152
-384
-336
128
640
896
-80
-480
384
480
400
432
-256
-464
720
336
1488
-416
624
1488
1760
-368
1312
1936
672
-96
1456
-352
-144
-928
-1456
-528
576
1456
688
128
128
-176
-336
-976
-1040
-592
-1376
1136
416
-880
-1472
-976
-560
240
-608
48
-1648
-144
816
-352
432
2000
656
720
832
1168
928
1632
256
880
1456
704
-128
-1664
-1232
-1072
-416
368
208
-192
1792
736
720
-1024
-1584
544
416
832
-144
32
320
-320
-656
368
0
-880
448
576
16
160
-128
-480
-304
64
672
16
-1376
-912
-128
-1296
-1616
-992
16
-272
1680
1088
368
-320
-976
-160
-1216
-752
80
-464
320
-64
-240
-848
-1088
-1312
-608
-592
-1872
144
608
720
800
-784
-1344
-16
-336
1584
-384
544
-704
-1296
608
1824
416
848
192
256
-544
-1104
-464
-336
-208
0
912
1312
352
-1872
-80
-448
-528
1024
-288
-576
720
272
1584
368
-464
-576
-1200
-1136
-576
608
-208
-1152
-720
672
288
112
576
-928
112
-160
-1248
-1152
-256
-1296
-320
1232
512
-912
-1408
-1920
-944
128
832
1472
1440
720
-592
176
-1216
-1840
-32
-1520
-1040
-1584
-32
-352
-880
-48
32
-896
-480
-96
-1200
-528
-48
544
-16
-96
-912
192
-800
-336
-432
-368
-464
896
1664
576
640
112
-2016
-1936
80
256
-592
-48
1472
1360
192
1696
1120
-576
416
1472
1664
1328
1872
496
1008
64
-1344
-752
1520
960
-144
80
1440
1920
800
176
224
144
-1232
-464
544
-224
448
208
16
608
-976
-1088
-816
-800
-560
752
96
-176
-784
-512
80
-1632
-240
112
-96
-64
-1408
192
-912
-1712
480
1712
864
0
496
-704
32
-928
-1888
-16
608
1120
272
384
1168
192
272
-64
-864
192
2032
1232
-1216
-576
80
-432
-880
-1104
1200
1200
-160
224
1232
1248
-496
400
1072
768
1696
400
-704
1568
208
-1376
608
800
880
224
560
320
1648
240
448
320
224
-464
-256
208
-944
-432
-176
-816
1776
-176
480
816
1040
448
880
-976
-1008
-1632
160
1040
720
-16
-416
-1056
-304
1168
688
-1872
-880
1968
112
-464
-192
-48
80
-400
416
1696
64
48
464
1488
-912
-656
640
1904
224
688
224
-608
-1104
-624
624
896
1520
-240
576
448
416
976
-864
32
1072
512
320
-656
368
-768
-1040
784
1232
-1488
-1184
832
-784
-1840
-448
-976
-752
-352
640
-192
1168
-352
-976
-112
1040
624
320
928
352
1952
-208
-128
720
896
0
1600
80
48
-592
-352
-704
-592
192
240
-1968
-832
-752
1344
1712
1504
-704
-352
-208
-336
-1520
640
1504
-752
-992
32
-96
176
1376
720
688
-1648
-320
336
336
1408
400
-96
-496
-1552
144
-400
144
-448
1184
240
96
816
-224
992
864
-464
-768
-96
-320
256
-96
-1552
-1056
272
-160
-592
0
-640
-1072
-528
912
-816
-448
-1168
-16
576
1312
336
624
304
608
-416
576
-448
-768
-96
256
-768
-736
-656
-1008
-1440
-1920
-1952
-1776
272
496
-800
-656
1504
1200
-224
-1216
-768
-176
-256
-928
-304
-144
-1344
-2032
-1264
-48
-1552
-1760
-1104
-368
-976
-816
-176
-704
1360
1136
432
1072
-224
-1584
-1024
-1696
-1488
-784
656
112
-256
112
-192
1952
1248
-704
-880
-128
768
992
336
688
1248
-208
-752
-224
-848
-64
-224
-624
64
160
272
304
-1648
-1568
-1520
448
-688
-448
1088
336
144
-832
288
1088
1008
-992
784
1008
752
240
208
-688
-1472
208
512
-768
-176
-1792
256
-352
-96
-944
-656
1552
-64
352
112
-1104
1344
1360
448
848
416
592
-1296
-1984
-1872
-1952
-288
656
32
-1680
352
-704
-112
896
-848
-768
-720
400
464
80
-368
-2048
-1696
224
576
864
-1024
-1264
-1936
-1232
-192
144
624
464
-896
-528
-704
-96
992
800
-560
-128
32
288
496
416
224
480
80
992
-1600
64
240
352
576
592
1344
-1232
-160
-1488
-1296
-832
-480
-1168
-992
-1296
368
-464
-1600
288
-288
-736
-496
-1520
-1952
-640
-944
-128
736
-1472
-496
272
-304
528
352
-1120
-1664
-1456
1008
-400
-656
368
-160
-80
-1392
-528
-560
-1760
1072
752
-400
576
96
192
2016
-1264
-768
-576
-1776
-304
672
192
1792
-160
128
-1088
-192
352
-384
-16
-352
-48
-112
496
-64
464
-1504
-1344
-368
1776
256
256
640
576
-672
624
208
80
256
-128
1056
320
672
1184
1136
208
-64
-944
-592
1248
1296
128
1952
784
1104
-528
-784
-320
-720
416
-400
528
1312
1248
1360
1200
960
1328
-16
-960
-80
368
-400
112
80
16
-224
-96
544
128
-336
-1424
-176
512
-128
-992
208
-304
960
1040
-288
272
160
-1168
-688
-1344
-864
1472
1280
-256
352
-448
-144
-512
-1216
736
752
-176
-1376
-1392
-896
-1296
-944
528
576
-1200
-400
800
544
-240
336
-864
96
672
160
848
384
672
736
-208
-992
1264
64
208
1488
1808
224
1232
624
-368
1296
640
784
320
224
-1184
240
-480
560
640
-384
-896
-976
-128
-1312
-704
1056
-848
-656
-864
-1296
1056
48
-32
144
1184
624
-160
-1376
-384
-1152
704
320
-1920
-1488
-800
-496
-48
416
176
-352
368
1664
-368
0
-720
-416
-2048
16
-352
-1456
-656
-128
-432
928
1904
800
-1280
-832
-656
-1280
-1136
160
-192
-1712
1744
992
-368
-1568
-832
-1936
-208
192
-304
672
-128
1136
1600
-640
-240
-1488
-368
-432
832
896
-256
512
176
512
832
480
-416
-1440
-384
64
1136
432
416
-368
-944
-752
1696
-496
-1280
-704
1280
-832
-384
-432
928
304
-112
-1792
-1120
800
416
544
368
-624
896
64
192
-400
-208
576
320
-1360
-624
-1072
-1632
-848
-880
432
-96
-1024
352
1008
912
-864
-752
368
-976
-432
-16
-1360
672
48
160
176
224
160
624
1424
48
544
672
272
144
-1552
704
96
768
-608
-1232
-256
272
432
560
-1296
-1472
-768
-864
-1840
-656
-464
-1264
-320
-1104
-16
-64
304
-128
256
80
304
-768
-384
64
624
496
-512
-464
-560
768
752
-1344
-1328
-272
528
80
-704
-480
-160
1440
448
1136
-320
-80
-1808
-432
-576
64
-1328
-1072
-656
-224
560
400
1248
592
-544
-832
96
16
544
-1200
-1568
-1696
-1888
-528
448
-912
-208
896
-224
-1520
-1392
-368
1264
912
-1552
-944
528
-1264
-784
-80
1408
-80
336
1104
-528
-912
-640
304
352
-592
1408
912
848
16
-192
-816
-64
-688
416
-720
-1232
144
-560
-544
-16
272
-320
64
672
816
288
-1120
448
1872
176
-1360
-1376
-1104
-368
-720
-112
48
912
-64
-304
-48
448
-928
112
1120
1072
336
-64
896
2000
320
384
-560
128
-544
640
-160
-176
464
32
-880
1200
880
304
-848
-48
-976
-576
-1040
944
1328
-1376
-1712
32
256
1728
1264
-800
-912
-576
-528
-96
-448
-1136
160
-544
-128
-1440
-1728
-1904
-928
-112
-224
-784
-1216
160
112
-304
0
1248
-160
-304
896
496
192
848
1456
1904
352
-256
-816
-80
816
448
-848
-480
-208
-944
-1088
-64
-304
-416
-1040
-208
-1312
0
-1504
-1744
16
-448
160
1056
-704
-1520
816
1040
1488
768
1328
1280
-208
800
288
-1472
144
384
-16
64
1040
1264
368
240
-976
-480
912
448
624
-48
368
720
-1008
448
256
1472
960
80
736
128
1872
-144
-16
320
-176
-832
272
-576
-192
1728
912
-352
80
416
192
1008
-640
160
-752
304
1072
288
864
240
-272
-720
-912
80
0
1424
96
976
1152
304
1568
1232
112
784
-224
-160
-1360
-1248
-656
256
-448
464
-864
-160
432
864
-2000
-1712
-1248
-1296
-272
-528
-896
-832
-720
-448
-1248
-128
-288
-1712
592
912
48
-864
-1120
-1232
-1680
-320
-528
-656
672
32
192
1424
368
976
-144
-704
176
-128
-160
480
1824
1360
-624
-1872
-224
-976
640
528
1248
1248
832
-176
-800
80
-608
1120
944
1104
-160
-1840
-512
416
1488
672
672
1136
544
160
688
256
448
1136
240
-496
656
720
1072
-1408
-1344
-688
288
1312
1600
240
1040
96
-48
-1728
144
848
-608
-176
-48
160
688
944
-1072
-2000
-224
-688
-144
-320
-1792
-704
-16
1248
-976
-1696
-1792
-288
-688
-64
1072
880
304
-960
-64
-1632
160
1728
16
928
-624
784
1200
-224
-288
368
-208
1456
80
160
2000
1280
464
176
832
736
1984
880
528
544
1856
800
-944
-656
-96
400
-512
-96
880
-560
96
176
-496
-1104
1504
1808
1456
1584
-768
416
1008
736
352
-784
-1056
32
480
-160
288
-1648
-960
-240
-352
864
-1104
-640
0
-656
256
-192
64
832
1776
-864
944
48
-784
-336
48
864
784
-608
1520
-32
-880
704
304
-608
-992
-128
-160
-752
-48
-432
208
-960
-896
-496
560
240
576
240
-112
592
800
-1552
-176
-400
-864
-528
-1472
-816
-16
592
-560
1264
16
512
336
-928
80
272
-272
1056
1152
-640
-784
96
-176
1088
-64
144
416
176
1504
1984
304
-224
896
704
912
-1056
1040
1344
-112
-832
320
-464
544
1568
1296
352
-192
1536
-1040
-1904
-224
-1984
-656
-624
-256
48
-768
-1408
-480
624
176
-896
256
16
-96
1168
1072
1456
656
1952
-272
-1616
-640
144
928
-496
-1248
-672
112
496
112
1888
-64
-1584
-784
-208
-656
-256
-432
-464
-912
-912
-928
384
128
-480
-80
912
256
-528
-272
-736
880
1296
-80
-112
-576
-272
-512
-608
672
-1376
64
336
-1248
784
1168
1824
2016
1328
-1232
-1664
-512
-320
-208
-1072
-16
256
-128
480
-720
928
80
144
-608
1792
864
1168
16
-112
-384
208
688
-128
-816
-1856
-1632
-816
-80
1248
-64
736
1760
1696
16
-1344
-384
-208
416
224
720
-688
-992
-240
-240
544
480
-880
-1520
-1408
464
2016
1296
-736
736
976
-832
-1072
-1168
-224
1312
176
832
976
240
-1440
-896
48
1424
288
-96
1040
-912
592
768
-992
-176
-448
960
-480
-1312
-976
-544
-928
-240
128
-752
-880
-1424
-1008
-64
-192
-112
-1680
-672
-992
-1600
-336
-416
864
-816
-1120
-1584
544
-128
-1328
-1600
-400
512
-656
-144
0
-384
-48
1040
256
-480
-1488
-400
-32
992
-816
-1136
-688
-1200
-784
384
-1200
-240
1408
1152
16
-480
-544
768
1600
-304
-64
944
-48
352
720
1744
1376
1600
112
-240
-1072
-688
-832
-288
-304
-2000
704
-1216
-1696
-368
-1296
-160
1888
1072
-688
-752
288
672
192
992
880
128
640
1296
528
-288
-688
-736
224
48
-112
-432
480
-1824
-576
-976
-432
608
1296
784
-336
1616
1312
992
-96
704
-1152
-96
1008
704
-48
704
624
288
416
32
-608
-1904
-800
-992
1344
1072
528
-1584
-1280
-496
-64
688
656
1488
816
-912
432
288
-1024
-1392
-176
-928
-1216
-688
80
-1008
-336
928
1648
480
-48
1024
512
112
-192
848
-624
-16
-320
-48
-752
-128
832
896
-1280
-384
736
-144
-1136
-368
512
-608
1056
736
1152
256
272
1808
848
-656
-1008
-1184
-672
-592
864
1376
1792
800
320
-656
304
-64
-1232
-304
1936
-112
-368
400
-896
1408
1344
1824
624
-320
224
0
672
480
784
960
32
-448
208
688
-1312
-16
48
544
1136
-416
-144
-80
688
1504
1424
464
1344
112
0
1536
-240
-2048
80
336
240
1200
-1792
-1120
-480
400
-64
-1456
-176
-960
-2048
160
800
128
1072
-1136
-1056
-1264
464
-560
880
1008
256
-48
-1216
-1712
-1600
464
1120
-592
608
656
640
240
112
-608
-1104
-48
-656
-176
800
272
-1072
-400
-1504
1120
64
336
880
784
-480
-400
-16
-1072
-1360
-480
-688
-224
-992
144
-240
-624
-640
-1888
-128
560
-976
-256
-496
160
160
-1664
-192
-320
64
752
688
-336
-96
-432
1472
1392
-352
624
752
-192
-800
-368
736
32
-656
-64
-1632
-128
-592
-448
-240
1824
560
112
-128
-1648
-448
1328
-96
1392
1008
832
944
192
224
352
-112
-416
1968
944
448
1696
-144
-1168
96
416
-1664
-1040
-336
144
-1856
-448
48
1312
912
64
1552
544
192
-1424
-784
-208
608
-48
-368
1856
640
992
192
144
-656
-1488
-672
-768
-864
-64
-208
-160
-560
-288
0
-320
336
-528
624
1216
976
-528
-192
1072
80
496
1456
736
1472
656
-880
-80
288
112
-224
-960
-464
80
-1248
240
320
-736
1744
64
-640
32
-384
-1552
-864
-368
-128
64
-848
928
-320
-960
-208
640
720
48
1280
2016
-400
448
-208
912
-192
1472
-1136
-144
240
-912
-304
336
-1104
864
768
1888
-960
-112
-240
-672
432
-1280
-480
-640
-48
-240
-416
-224
1232
560
-288
400
672
-960
-208
1120
864
144
96
-112
-96
336
208
160
800
1376
368
176
736
-208
-768
592
336
-1328
-1408
-192
-1280
-2032
384
2000
544
-544
128
384
176
160
448
-208
-1136
720
1632
736
352
160
-1424
-176
928
80
1040
672
352
-192
-16
1712
-192
176
160
-224
1632
-384
656
992
-672
464
752
736
144
128
1392
-272
-368
240
-320
-816
-976
128
-1104
-848
-384
512
-848
-208
304
-480
336
1152
96
560
432
1904
928
0
-96
-864
704
2016
928
-1136
-1248
-16
176
624
48
-480
-1088
256
528
1328
496
880
1184
-592
-496
-1984
448
304
-1632
-880
608
-576
1104
1248
1792
800
1744
304
208
-336
-800
656
832
-128
128
-160
-752
-112
224
-272
-464
-768
672
640
-1072
-1200
-176
48
-848
944
-512
-320
-80
176
672
-864
-96
-1952
-352
-384
96
816
-1440
-96
928
-1024
-80
-720
-656
96
-448
-896
-688
80
1808
1008
-1312
512
1760
1136
-64
-1168
-1216
336
16
208
-1872
-1184
-1232
-752
1200
1680
608
80
528
384
96
-240
-96
-672
432
1568
16
-704
-816
-1296
944
400
816
-320
-976
-192
-272
-1008
-96
752
-96
-80
-736
640
-512
-544
-176
336
64
864
880
640
208
-656
496
1136
592
-448
384
1568
688
-144
-400
1024
544
-752
912
-1856
-1216
-1840
144
-224
1504
1232
-432
-208
-208
-1952
-960
-240
-592
-688
-1680
-608
1248
912
-1760
-16
-464
-1216
0
816
288
-720
544
928
-288
416
0
-1456
-544
-736
-432
288
-512
800
480
-1792
-624
336
320
864
912
-992
64
1104
608
528
1552
1344
464
912
832
1696
-912
-1008
112
-1408
1024
752
784
-1312
-1584
-1840
-1248
0
336
-560
-48
496
736
1168
-64
96
1760
80
-896
-1344
-1056
752
384
64
1056
1584
1216
-224
320
496
0
1776
160
624
1264
-16
-1568
-608
-992
432
1568
368
-1648
528
-640
240
128
-1936
960
1568
16
-1344
512
1216
-624
-1408
-288
512
2000
784
576
16
-944
-400
0
-80
-768
-256
1120
-720
-1920
-432
112
832
-576
688
32
160
-784
48
208
-384
-704
-2016
0
-608
912
928
0
864
592
752
96
400
752
176
320
736
736
1168
1872
1376
-400
208
1088
480
304
592
384
800
0
-784
-1248
336
-320
752
816
800
-352
816
-1200
-1376
-1584
-560
-1744
176
-464
-288
544
-1328
-928
-1008
736
-496
-1152
-672
560
-768
-2048
-688
-1664
-640
-176
-224
912
-416
-2048
-1808
-1696
-32
32
528
256
-1104
304
752
448
272
608
-720
-192
-976
80
928
176
944
-1600
-640
592
320
976
1616
1216
16
-976
-1008
656
1312
-256
416
1952
-192
-1072
-272
336
-1872
-1408
-1120
-784
-336
608
464
-1616
-1488
-80
640
-400
-1744
-1248
528
1200
-336
1024
1072
224
-1760
-1984
176
1888
784
672
-64
-912
-400
1536
1728
-208
-640
-352
384
1392
928
-272
608
-800
144
160
-1984
-1552
-336
-1760
-272
320
-1312
-1344
-160
1184
1600
784
992
1360
16
-880
-656
512
848
1408
80
-720
-80
-320
-1792
-32
-320
288
-832
-864
-144
-176
-720
544
448
976
-800
-368
960
1232
416
-864
-704
-832
-912
1504
1264
-128
-1552
-1488
576
1040
160
384
1232
208
352
192
1616
736
32
624
-96
-1712
-736
1040
-1056
-1296
-1552
-128
-400
-1024
1040
416
576
576
672
-1008
-1360
-1264
-1440
544
1568
-656
0
-16
-208
-16
-1280
-1040
-1104
896
688
288
-144
288
-464
752
288
-1056
1104
656
48
480
464
-224
304
1312
1216
-256
-368
-448
-768
-656
-368
-816
144
368
1808
176
624
-192
480
1728
848
-656
-784
528
-448
-608
-16
-304
-1440
-112
-1440
-1056
-352
-928
1088
560
960
112
-704
288
1392
1328
-512
16
32
-864
-272
-704
368
368
-528
1184
-64
752
-496
976
1312
-640
928
-160
-224
-752
1040
784
32
-32
-1376
800
128
-16
-1072
-1424
240
160
80
-320
240
384
-336
1808
160
1072
816
1184
-288
368
976
-1264
-960
-656
-144
320
1184
-352
-208
-416
480
-1216
-1680
384
864
496
-976
1152
-272
176
-496
-256
-512
-464
-560
512
1152
80
624
32
608
-288
0
-640
544
336
912
176
1264
1248
608
-352
400
-352
1152
1664
-64
-592
-192
-896
48
528
-112
32
-224
-1744
-1408
1424
1744
-1440
-272
-512
-800
-48
944
640
768
-992
-1312
-496
160
352
-1600
688
1136
-16
-1024
-112
112
912
736
768
720
-912
-624
-1168
-880
-864
-32
224
1312
656
352
560
-48
192
-1104
-1440
304
-784
-128
768
-1344
-848
-112
-1152
-1104
320
-736
1248
1008
-368
-1120
-1568
1712
288
-896
1104
992
1152
1088
-160
-176
144
1024
544
1056
-688
-1344
-1056
-1616
-688
544
-448
-720
-816
192
-1712
1584
96
-1536
-320
-1696
-464
-96
-912
448
1360
-832
-208
352
1472
1008
-448
-384
-512
-240
-112
928
80
80
-1712
-208
-1824
944
-608
-800
-1872
-368
208
112
640
-96
-1536
-208
-1952
-704
1088
-1088
176
-1264
-1120
-816
-1568
-400
1152
1152
144
-1024
304
-336
176
-192
240
192
224
464
144
-736
-496
1120
320
1296
768
-1408
-208
-1088
-992
608
592
-1712
-1600
176
-400
-720
1072
896
752
496
560
960
640
1376
1472
-160
-752
-208
1088
176
-640
304
448
1152
896
672
480
384
224
1616
1680
-208
-912
-400
-160
-672
-272
-832
-896
16
1376
816
-352
2000
1152
48
1120
-96
-1280
-1488
-1792
-896
832
272
-704
-1888
-1008
1280
848
-688
-752
-192
512
672
-32
256
-1232
-544
-192
-656
-1504
176
400
400
432
-592
-880
1056
80
-432
224
-1696
-32
-1664
-1664
-544
-192
32
640
-80
-288
752
112
48
-368
1408
1168
-1456
-480
912
-832
-64
512
544
544
-416
-1040
-1648
-1184
-848
480
208
688
112
-160
-960
-1424
-1712
224
304
240
1120
704
448
-608
-2032
-1024
-1632
-880
-640
704
752
176
-1024
592
400
288
528
-256
64
656
-1200
-560
384
304
368
-896
240
944
752
-400
1136
1056
-16
272
592
-176
1184
208
-608
-16
32
-288
768
32
-224
-224
-1280
-640
-560
-1216
-1088
608
-864
-1200
-272
-336
-2016
-1104
-240
-944
1472
784
-912
16
1136
352
-912
-288
-1040
32
1440
-160
-576
-1280
928
912
-1008
1424
1328
-400
-1696
-1440
-352
864
992
960
112
-1200
512
-912
-912
816
432
496
-512
-16
-208
-1616
-512
-896
832
-304
-880
320
-256
-416
-176
-1696
-1920
-752
-1200
1312
880
1968
432
208
496
432
272
1376
-1088
-1248
-304
-112
576
832
1232
608
352
-96
-240
1296
80
-784
-320
-736
656
112
-320
-896
-2048
-1056
272
-32
-416
-1344
416
704
80
944
1792
592
1024
288
224
16
-112
-608
-304
336
304
160
592
-640
-624
160
-448
-48
-128
-400
-1408
-368
-1120
-1248
-128
-48
-944
-656
-16
-1984
-1008
-784
-1920
-1584
-2032
-1872
704
1120
688
-816
1088
1488
144
48
-496
-1792
-1728
-1776
-1680
-384
-128
688
720
432
544
-544
-848
-1888
1216
768
416
752
1632
-64
768
432
176
-688
288
144
-192
16
496
1264
-96
400
1568
-880
-1744
896
1104
496
816
-784
-352
-448
416
-256
-368
-560
928
592
640
432
-240
-784
288
-32
-400
-928
-688
-1648
672
-176
-544
-304
-768
-688
-944
-544
-1728
-32
1056
-320
208
656
-800
-80
-256
-64
160
-1344
-160
1072
176
624
112
-992
-1744
-1280
720
-64
-336
736
1888
16
880
-496
-1376
-1296
848
1216
-352
1472
32
-384
848
-112
80
208
960
1488
352
1120
-480
1008
-192
-1360
240
848
-16
-384
560
1520
-208
336
976
592
544
128
800
1408
576
1968
688
-16
928
1696
688
832
704
-1424
-1344
176
1120
-176
1152
-160
-1024
-176
-304
224
-240
-1680
-816
672
512
1072
352
112
-64
-608
-1232
-1888
544
-112
1168
-160
832
624
624
-1424
-144
-1136
-560
208
784
1152
1824
-1280
-896
32
-176
1392
976
496
-656
1152
-544
-1136
-208
-304
1968
1168
1104
-160
-704
-640
-176
-576
-304
-384
256
1040
1504
1776
672
-608
1968
-48
256
112
-576
-608
128
-1744
-1536
-704
1296
0
1376
240
1328
1264
-384
208
-1728
-1392
384
-1040
-544
480
112
16
800
416
-544
1312
656
1840
1200
1520
1088
464
112
272
896
928
1504
1360
240
1824
1648
400
-80
304
240
-176
-272
-704
-1344
-1488
-624
-912
480
144
-1152
-480
1344
1728
656
1536
384
400
736
192
-1472
-784
752
912
-1072
384
944
112
-240
1296
1328
272
-112
-32
-624
112
-112
752
-720
-1248
128
432
128
-608
-704
528
-592
-48
384
-576
-176
1264
32
-432
-1424
-1776
512
80
-704
448
800
384
1776
-224
-304
880
768
-1520
1328
1408
448
-1840
-160
992
1056
384
144
992
512
832
-432
112
1632
-624
-352
-1440
-288
-976
496
864
752
768
208
-96
-272
816
352
384
832
64
1200
432
-800
144
368
-528
112
-1536
-32
-1056
-432
1744
992
640
992
16
-880
-640
-592
528
-1376
112
2000
464
-128
-1744
-560
-1360
-1168
672
-432
-192
-560
-1040
-1968
-1440
-1024
-1696
256
-448
-1952
-1680
-1120
-656
-1632
592
256
0
-272
-624
80
-1008
-352
160
-1712
-32
-128
-16
-432
1344
-176
-752
-1120
1664
1648
1472
112
1312
1008
-832
-816
-208
-48
1264
816
-240
-208
1008
48
928
-1104
1680
1376
96
896
944
688
-912
896
192
-1072
-368
-1280
-1824
-896
-112
-304
656
144
768
816
1744
-304
176
528
560
-1280
0
1280
-144
-656
-368
-1024
416
-704
-80
-480
-880
-288
-16
-368
-352
560
736
416
-224
-1600
-80
-576
672
32
-240
-1440
-800
-1072
256
1744
704
288
1984
-496
-784
352
-1056
-1616
-1792
-1936
-1968
-592
-608
-1280
-944
112
880
544
-416
-1504
-2048
-864
-1504
-64
-64
1136
-496
720
688
1744
-672
-240
-864
-272
32
1136
1296
800
-912
-1392
-816
-320
-512
-176
0
-368
560
384
-368
560
-1232
-544
1056
528
944
-224
-1168
144
-384
352
-1136
-1488
-1072
-560
-640
224
-272
-448
1056
816
928
96
-32
1168
1104
-64
-224
1552
-128
-640
-208
1504
992
-112
-1392
1776
1504
-1040
-256
32
1296
1616
768
1520
368
-192
96
-1488
-1488
-544
160
-336
736
1216
1184
-640
496
1120
624
-1120
-832
624
-704
224
-864
-1168
80
832
-1840
-416
-144
-368
-544
-192
-384
560
1728
592
-688
-304
864
816
-1344
-16
-1360
1248
-688
-1040
960
-768
-1456
-208
208
784
1168
1216
160
496
256
-208
-1424
288
592
128
192
176
-48
384
32
-608
-912
-304
1552
832
656
-672
-704
400
1552
1104
1200
32
-1440
1312
0
80
416
-272
-608
-368
64
1312
160
1936
-256
-1232
144
480
512
224
880
-400
-1072
-1920
-416
-1568
-304
0
-496
544
240
80
-1232
-1072
-320
288
-176
-896
144
688
1440
1920
832
-672
-336
-1136
-832
80
-1344
1296
1280
-1024
-368
160
112
-992
-832
304
-192
-1136
480
144
-192
-48
528
1600
816
-144
-624
-1040
1152
256
-592
-1888
-672
-1056
-272
-128
-992
-16
1440
1232
1376
320
-336
-688
-496
160
176
736
224
-320
-1024
-96
512
-528
-1376
-1552
-128
-1664
-1200
-1248
160
-960
480
144
400
-512
1152
928
352
128
1104
1360
1808
1216
896
1712
-48
-704
496
1168
432
368
80
-864
560
-400
80
1056
688
1888
-1344
-448
-288
-224
-1472
-1360
1104
1040
-832
-416
1856
1360
864
1968
208
-448
912
-224
128
752
640
64
-624
-720
-832
-592
-1248
-16
-160
48
432
1600
-128
-240
-1008
-816
-96
976
752
-32
-80
1216
-304
-1152
-1152
1296
1216
-1200
-1440
-592
240
1200
0
-816
192
1392
-128
0
-832
-672
1520
-720
-1696
144
-864
-208
-1424
800
1200
-848
-480
-784
-1360
-912
640
592
240
224
432
1152
-1008
224
-1088
-736
1808
800
1600
128
-1392
-1808
-368
-1120
-224
-352
-1968
-832
592
-1200
-1120
-1392
-128
-352
1216
2016
736
-96
496
-208
144
400
-704
64
-1088
-256
-672
240
208
256
256
-304
-336
-1248
320
304
-64
224
-1328
-432
-432
-528
1008
416
496
608
-1072
-1536
-864
-864
-672
-1488
-688
-784
-240
-304
-880
-1216
-336
720
256
-464
-48
768
448
960
528
-1376
-320
448
-320
-1344
-16
496
144
-400
-1104
176
64
800
416
-256
1120
1056
-272
1152
672
1344
-208
-352
64
1184
-768
-32
432
-1024
-176
-1616
368
1824
960
-224
-976
-992
-400
-1280
-1440
1232
1552
1472
-128
-544
272
272
-256
752
1984
1360
1280
192
-608
-1360
-2016
-464
1760
144
-80
736
768
1392
1920
352
-720
208
-704
-336
464
-640
-1040
16
736
1392
160
784
464
480
160
32
-480
-560
-272
1136
464
784
-432
-160
-688
-480
448
384
-512
144
544
-1264
-848
1280
1856
672
288
-432
368
576
-272
272
-160
-304
768
1136
896
-2048
-1248
944
-192
-1456
176
-1792
256
96
-1056
-800
160
1184
560
48
592
944
-1424
-1792
-224
1040
288
-304
-704
736
-240
160
-544
144
1456
784
224
-1184
944
752
448
1536
240
640
1184
-1680
-1280
512
1584
704
880
1312
-432
-1168
1280
-80
64
-736
496
80
240
0
176
-1104
64
704
1952
1552
-1792
-1968
-1120
-736
-48
-848
-1200
-1200
-1216
-1264
528
-1104
-256
-640
-1568
-1472
-192
-672
912
-16
224
864
640
-368
-48
112
-320
128
1872
1184
1616
1216
-1504
-528
672
-16
960
1904
-432
640
1296
752
-304
-1728
-496
1392
1504
1504
-560
-160
-1040
1184
1696
1232
-448
-1200
48
816
608
896
-640
-768
-240
-80
0
-1408
-624
-304
-1072
688
80
576
1536
1744
992
688
-1008
-496
96
-160
240
-288
-480
288
624
-320
1312
384
1280
1904
-768
-304
-464
-1760
-912
-1760
-224
-480
-1280
592
0
-736
-448
-384
-32
-624
368
272
-880
-224
-880
-1184
-176
160
-560
432
1472
-784
-448
-864
-752
400
-16
-1152
592
272
-1328
-1840
-304
576
288
1776
704
528
-992
-1072
544
80
-832
320
1376
752
-560
336
976
1872
720
912
1968
256
-1248
-720
-1472
-784
-272
176
-96
1232
96
-224
-1824
400
912
64
-160
80
-592
400
1376
-736
-1600
-384
1840
1216
1088
640
336
-208
-1088
-1360
-32
-544
752
416
-144
448
-640
1536
912
560
368
512
-1376
-208
-240
-560
-1296
128
-784
-1232
880
-1280
288
448
-576
-1808
-496
336
-480
-640
864
512
-704
384
2016
-288
-1168
-288
-528
-592
-1280
-16
352
224
-96
800
-576
-448
-1024
-832
720
-864
-976
-1024
-1360
144
-1376
-1856
-16
960
864
-256
672
1264
-800
-80
688
-368
-352
-64
-48
1152
992
96
384
-848
-1696
-704
48
-128
-1488
-816
-208
-688
-1952
-480
-16
-304
-1136
128
736
1312
64
-48
80
-1280
128
-320
-304
-1488
-1888
1248
-48
-144
-1616
-1232
304
1552
-768
-16
880
640
576
-1232
-1072
144
32
-256
768
544
-512
1904
1312
-592
528
-224
-1184
-384
-672
-1536
-1728
-1264
784
928
608
-672
-1056
-1392
-384
-208
0
432
288
896
1584
1632
1760
208
176
32
-480
-752
-1408
-352
-1984
-400
432
-592
1056
544
-400
-896
-496
96
1664
752
672
1136
432
-480
1216
1552
880
400
96
960
144
-400
832
1376
720
288
-960
-768
-112
-960
1072
16
512
1392
752
192
-512
-768
464
-1152
-1632
-1600
16
48
-160
-816
-528
992
176
-1296
1408
-48
560
1184
1808
1184
-1088
-464
-224
-992
560
368
368
-224
1120
704
592
592
-704
-800
-704
656
48
-96
1088
-176
672
1008
1232
256
400
-688
-1520
-1376
-1056
1120
1616
-240
160
-704
192
1168
-608
-736
-1104
912
192
-1216
-896
1216
704
1648
1856
720
400
-240
1824
-560
-336
-528
720
1664
1792
464
928
-16
224
-1104
-1792
-1808
-352
320
-1424
-816
608
1040
928
528
-928
32
-1568
-384
-576
-1136
-1968
-528
880
448
272
-384
320
1040
592
32
800
896
320
-608
-1504
240
464
-1072
-1408
-752
288
-416
-928
368
1040
-688
-960
-32
736
-336
256
-976
-944
-464
-80
1072
544
-1040
544
128
-1024
32
752
-752
-528
-1696
800
288
-1504
416
16
-688
-1248
-1552
528
-352
-528
848
688
800
48
96
-496
-128
576
336
-656
-544
-288
928
480
-240
-976
16
1136
320
1040
-272
64
1120
-80
-1808
-1552
80
512
-240
-1472
-496
1344
1024
1088
800
528
144
512
112
320
0
-1472
-1408
-1952
-1040
320
576
1248
-736
-896
560
1888
1088
864
560
272
1360
1504
-1168
-880
1648
720
672
160
-608
1456
128
1440
1008
-112
-576
960
1120
48
-656
1280
576
-112
-624
-912
-720
240
624
-160
-288
624
1312
864
-384
384
-288
-1856
-1152
352
608
64
1264
384
368
512
576
896
928
1808
-1280
-1616
-624
80
1136
928
560
112
256
1472
1168
1504
-416
-800
144
752
-144
-144
784
880
320
1728
-384
-288
-96
720
-1728
-528
-272
400
240
160
160
-1936
-896
64
-480
-48
368
992
688
-560
-640
688
928
672
1456
-1008
-1024
352
-256
704
-928
-1152
-1248
-320
-32
64
1952
528
-1760
-880
1280
1120
480
160
688
1152
192
-1168
544
-944
-240
-144
368
976
-96
-384
-720
-1152
-976
544
1520
208
-976
1392
240
1104
-208
-16
-272
-336
-64
-400
976
-352
-528
1376
0
1136
960
736
1648
704
1552
1296
-1824
-80
-240
1392
1152
192
1072
656
400
784
1024
992
288
-576
80
-1344
-1184
-1040
-496
-944
-1280
-976
192
-400
1664
-976
80
-112
-880
-720
-272
112
1456
-368
-896
208
1008
-528
0
1856
1328
1376
1168
-864
-16
256
-944
1232
-64
-304
-1136
-512
-1120
-944
-912
-1840
-928
-672
-1488
-96
1200
1392
880
176
688
384
1152
352
336
560
1872
-80
-304
416
304
560
-1360
-1760
-992
544
160
-864
-1136
-528
-256
-16
-1728
-400
384
-624
-1360
-416
-848
-1712
-1456
-32
912
608
-32
1312
336
-1904
-1008
-576
192
368
144
2032
1248
-752
672
1424
-272
400
1088
-864
-240
912
80
-944
-544
-80
-992
-1456
-672
-416
-976
-784
-992
-432
256
-208
-224
1184
944
576
1328
976
864
-1024
-768
416
-64
-576
-1328
-896
-528
1056
480
-384
-1712
-1248
-480
-16
816
-208
-1264
-672
368
864
32
-800
272
-304
-1344
-656
-656
-16
-64
64
-720
64
-624
944
144
-384
-16
384
320
-112
-416
1056
96
-320
912
-736
-368
80
608
-1328
-672
-768
1248
-480
160
704
96
-1952
-416
-1392
-1024
240
992
-48
-848
-640
432
-1392
-1488
496
256
-624
-112
-720
-288
-1264
288
96
64
-240
-672
-32
-1248
-1984
-688
-1600
64
1824
16
384
-208
-48
-1040
1664
864
1568
640
1280
-80
304
576
-608
-800
112
-1936
-304
-1696
-832
-1056
-448
-416
-688
384
-880
-464
528
80
-32
608
176
528
-240
-784
-720
-512
-544
-1120
-832
-1184
-224
1024
1056
48
-544
1408
1488
-32
896
1184
1008
80
-928
880
1104
1312
544
304
-512
-720
-160
-624
-1552
1088
-352
-1744
-48
1648
832
912
-80
-672
-496
352
880
-320
-1024
-848
-112
544
-1264
-1280
-288
-960
192
624
-96
-1808
176
-688
-512
-1456
-48
-112
-400
-80
400
16
-1376
768
-192
-1088
1120
304
224
640
432
480
-1552
-2016
-1984
-752
-1248
-1296
752
144
-944
-1408
80
896
-1408
-1424
-448
368
1792
96
-864
-752
720
-896
-272
880
-1296
-1280
-1984
-1520
-176
896
480
-608
208
272
-784
-288
320
1136
1728
-384
-240
560
1440
896
1312
448
944
80
1872
1008
-1040
-384
176
-592
336
-752
-208
-208
112
1728
1600
-208
656
352
-832
1248
1808
720
128
528
-1136
-672
-928
-1664
-96
560
-736
1312
864
576
-256
-208
-288
1264
-32
-352
-640
-1216
-560
-560
-240
-864
-96
176
240
-912
-1168
576
-576
-1792
656
1600
1008
-1072
-800
864
-1232
208
864
-240
-96
-1136
448
1120
688
-1312
-1216
1136
944
-560
-160
-672
608
880
1392
-176
-176
-480
-1264
-1072
-368
-144
-944
-352
272
400
544
1216
160
-128
-176
1424
80
832
-688
-352
-1472
-1072
-848
800
-1344
-1168
-1360
1280
1424
224
-704
-624
-1296
560
-64
-944
-96
-192
112
-1328
-1248
208
160
-720
-432
-688
-1120
-368
-1328
-528
-1184
-240
624
16
-288
-1472
144
-448
256
1712
1408
1328
976
-528
-1168
496
1424
-1680
-608
80
-496
-1120
-1648
-1216
272
816
1200
672
-736
704
224
1024
272
-1008
768
64
-656
976
672
-1376
-608
96
-896
-224
-416
208
-384
-1008
-1104
-240
1424
736
-1024
688
-1408
1216
1568
656
-736
-544
-336
-608
-80
224
800
48
912
752
-1648
-1680
96
480
-912
-1312
-368
-320
464
128
-816
-1344
496
192
176
128
-432
896
-720
-64
64
704
-192
48
432
768
848
-1104
-2032
848
848
-784
960
944
1248
496
624
-528
960
1680
1728
1504
112
-1456
752
32
1008
1840
768
-176
-336
-1488
160
-992
-1392
-1360
720
1104
-992
-848
1696
1168
1168
1840
976
1616
64
352
496
-192
544
784
528
-1104
-1296
64
832
672
-896
-2048
768
464
-224
-560
-64
-112
880
144
96
-752
-1088
-1760
-160
320
912
1008
800
864
-224
-1120
-208
688
368
176
432
-784
-32
-288
944
144
640
1360
-336
848
624
336
1552
1808
1184
-1200
-208
1568
1184
-688
-96
160
-592
-1360
-512
-576
864
800
496
-752
-112
528
592
-16
-528
48
-288
-896
-1024
-1568
-96
-1008
1552
704
784
432
240
1504
-464
-192
-368
784
672
-1504
-352
-432
-128
320
736
-784
-1120
-1792
-1568
288
496
416
640
1488
1920
1488
80
480
-720
-352
-1312
-1008
-1840
-1872
-256
560
-752
-336
304
-144
-352
-288
352
-1952
-128
1984
1440
-1024
-1584
-912
144
1040
-32
-528
-1664
-896
224
224
-128
-224
-832
-128
64
-1296
-256
-352
-544
-1312
80
-400
-624
-912
-160
-400
512
240
848
576
336
32
1216
-1728
-1408
-960
1216
-256
-144
-256
-640
800
976
-768
-1232
512
-192
384
512
480
1328
1808
480
-48
272
-384
-288
-272
-1056
-1120
-768
-1792
-480
-432
-1152
-1024
-224
-288
144
1248
-336
736
1648
400
256
64
-624
-528
1888
1152
944
448
496
656
0
1024
-592
624
-560
-1360
-304
944
-672
-1136
-272
176
688
-96
-528
672
1088
288
-768
-704
-272
-416
208
-272
496
1040
-176
-1632
-880
-1728
-320
208
-768
-144
-832
816
-256
-1344
416
1760
-1056
-1152
-496
-1824
-1056
-208
-144
-336
192
-1136
-1008
-208
-1008
0
-1280
-1216
-144
32
336
496
320
-192
-1744
-32
1296
1248
704
-1056
192
576
-64
384
-64
1552
896
912
-816
-944
-672
-768
-720
-736
-704
-256
-352
-208
80
720
272
800
-576
-752
-464
-1088
656
160
-1584
-592
-1920
-256
-64
-336
-1520
160
-736
-576
864
256
192
-192
-1104
112
112
-272
-1408
368
1392
1024
960
-720
640
800
192
-256
208
400
448
-608
-176
1856
-320
-592
768
1984
-48
-528
-1632
-576
-1024
-16
176
464
1136
928
256
-1792
-1568
-560
-2048
-464
-32
-16
-768
-1392
-1200
-96
-1184
-432
-1360
-1680
176
-128
656
320
272
-384
-1248
-192
1408
1280
-48
880
1120
192
-1584
-800
-928
-176
288
-576
64
528
-416
416
1184
1088
1408
1808
720
880
-400
-1184
-1008
-1168
-832
704
1440
1216
-384
-576
-176
192
0
-448
-128
-672
-640
416
816
928
-176
-784
320
-656
768
1200
-80
-368
1264
512
-1872
-576
1248
1648
224
-1568
-1712
608
1008
720
400
272
-368
928
1760
-784
1360
480
1888
112
1440
-1168
-256
-176
-128
688
848
672
-1792
16
192
416
544
-96
-1616
-672
672
944
-496
64
1472
1760
1584
912
656
432
576
1408
1504
16
-1024
48
672
112
-1712
-1680
-256
-1312
-912
-1840
-1952
-736
1520
-1360
-544
1216
528
-1552
-720
-16
432
896
384
-48
-256
-1440
352
-144
-64
544
48
-544
-304
-480
-592
688
1280
336
-1632
-1360
352
48
-864
-448
-1008
-272
-752
592
976
1328
352
1584
1296
416
-1264
-1664
176
1888
1136
2016
672
784
-816
-1488
-704
768
336
-288
-976
208
1776
784
624
592
832
-272
-1104
-144
1264
-544
-896
400
176
-880
-656
-336
-80
1056
80
-176
-96
-288
-1392
-1232
-512
1184
1136
416
-896
-1152
160
320
-592
-528
256
336
-1456
-128
-1008
-944
-576
-1312
-1120
1776
1696
576
-64
-320
96
256
2016
-176
-80
-96
1136
1408
-64
1024
1024
512
-784
-880
-208
1536
816
-144
1280
-416
-144
-208
-224
80
576
976
-144
832
624
-1104
-1584
-640
-608
-48
288
-304
112
160
1872
640
80
-576
-272
-1856
144
848
512
-1136
-512
1136
1312
768
-816
464
-256
-1504
176
368
-1408
-224
464
464
896
112
-784
-1408
-752
-320
-544
400
-512
848
-240
480
480
-400
-112
992
384
1296
160
-416
-96
320
32
-320
352
-80
256
1792
-304
-1296
-256
496
1136
-688
-704
-912
-1552
-1248
-496
-704
-912
-464
-400
1696
832
-672
-816
-1024
80
-288
464
976
-144
224
128
-512
-1056
-976
-1296
-928
-976
-640
368
608
1616
1120
1024
1280
816
496
1200
1232
32
-384
-160
1424
1104
-608
-1312
208
-1008
-448
-1008
-1296
640
-96
-1728
-592
1296
1024
256
-1248
-640
-848
-736
272
784
-1040
-816
-704
-480
-576
-80
48
1472
528
-80
-240
480
1264
768
128
176
224
-672
-48
-1264
-1024
-448
400
464
720
688
960
464
736
752
-368
336
-1024
-1728
928
-320
-176
-432
-224
-656
-384
384
-1040
-672
-1424
-1472
560
560
768
-480
-160
-1536
-576
-208
80
448
864
1056
560
112
1952
320
624
-784
-1504
-784
208
464
-528
-608
-512
16
-496
-800
-992
1840
1504
928
880
0
896
-128
-160
-1072
-880
656
2032
432
-48
-160
400
-528
-256
656
800
160
-448
320
-304
-80
992
0
608
400
1744
32
1504
-224
-1360
-1344
336
1184
144
1328
1040
-656
-1424
-448
-704
112
560
-240
-1328
448
992
1920
192
-176
528
992
240
752
144
432
256
1248
1728
1360
96
-1808
-1520
-912
-736
-704
-512
-128
-768
-928
-16
-224
-1008
-1792
-128
832
-1056
-2016
-336
-1600
-1072
1216
928
1584
736
-208
-192
352
464
2032
16
-1728
-1520
-1920
-624
832
-432
512
-256
-1232
-560
1008
192
-1344
-736
-1056
64
-384
-1024
-1648
-1392
-1216
-240
1456
256
1776
-320
-768
-1232
-576
720
1648
-1472
-880
208
-592
1328
512
672
-272
256
-224
-304
80
-1104
896
1280
-800
-240
480
480
1568
1664
656
-192
944
1248
1280
1088
1264
-32
1712
1680
112
-768
-640
864
880
304
816
848
-672
-144
-1392
1072
1056
-544
-96
112
-864
48
1712
128
1856
1824
1600
448
688
-448
-400
464
-352
736
144
1984
64
880
-784
-1392
-1648
-1472
-736
-1312
-1184
480
-32
-128
-1072
-1376
-720
128
-384
-832
528
592
768
48
-1152
-1232
112
1072
-320
-512
592
1376
128
112
880
-736
-768
-1904
-592
-432
1056
-1568
-1552
-1424
352
1536
-416
1776
592
-1056
672
64
-656
-704
-160
-1040
-1872
-1008
-912
-768
976
-800
-1376
944
336
608
832
1040
-32
16
1200
784
-176
1728
1296
1056
1408
528
784
880
1440
1152
-416
1136
448
-64
-352
-944
-672
720
160
-480
912
816
624
1056
1280
-560
-176
-512
-176
-64
752
-32
-1296
-1248
480
960
1856
240
-48
1952
704
992
-192
-384
-368
-768
-144
-448
240
528
992
-624
-432
-464
-304
656
336
1568
400
896
-464
-1184
-176
-1104
-1344
208
1008
1360
-128
1072
848
-672
-96
-928
-1520
816
448
720
-400
-2048
-1568
-720
928
272
-256
-896
-224
304
-512
-784
928
-1360
-1584
-144
-1008
-1312
-992
560
-640
-576
-912
-448
1184
288
-640
-208
-880
-1072
-336
752
608
112
-16
-128
160
-592
-1408
-976
-1584
-16
-848
-1520
-352
288
-800
-1568
-96
-560
-672
-1120
-1440
-320
1136
768
16
-112
-1856
-832
-416
-1248
832
272
-656
1264
1072
-704
-976
-688
-944
320
-768
464
1664
-1008
-96
-496
128
560
-48
-864
192
1536
624
1824
1744
272
304
160
1904
560
32
-96
1184
640
1248
-416
-1056
-768
-32
160
-560
-560
-1136
-1072
-112
-1152
-432
1056
128
-960
-640
-96
-1744
-1600
1328
-288
-1280
-1072
1136
448
-1216
-1744
-992
-704
-304
608
304
0
288
-912
-288
-1536
-544
32
-80
352
624
-112
1056
1536
-1376
-528
-416
-384
368
400
-800
-384
656
-64
-128
-1680
-1552
-64
896
-368
-576
-480
544
640
-16
-896
96
-448
-624
1056
608
320
624
160
-624
-48
976
-272
-1296
-640
432
-880
-720
-1760
-496
560
0
-1488
-96
-1104
80
192
-240
-272
64
784
1616
-432
464
16
-32
208
112
-816
-1088
-32
-240
112
-224
-496
-976
-240
1040
1968
1296
128
-544
400
-672
-1248
-992
-1440
-64
864
-512
-1600
-1136
848
608
-784
1456
-496
-336
-1440
-720
-176
-288
-96
-528
-560
272
-608
-896
64
432
-944
1952
-560
464
80
-1456
-1648
-400
-256
1840
240
-160
-16
320
224
704
672
-144
-736
-1184
-240
208
-240
-256
-1264
-272
-16
-832
-32
-544
752
64
832
848
-928
-1600
-560
-400
-848
-832
-240
64
-624
-144
720
640
48
-1504
-96
768
1392
416
160
-448
1520
848
16
-1904
-1216
832
784
-400
-128
-464
-336
-1104
112
752
-400
-368
-592
-1328
-704
1664
544
1200
592
-960
-1536
-1104
48
224
-288
-1008
-288
1136
976
-992
656
480
-128
-352
448
1104
1808
224
-192
512
176
1312
432
-1392
80
160
1232
384
1024
592
528
688
1600
2000
1808
-304
-1968
-1552
-704
80
-1568
-336
-432
-288
656
-400
-992
-736
-688
0
-624
-1328
-336
-864
-112
96
-368
-864
80
400
1328
816
-640
-288
-240
-384
224
464
-464
480
-16
-320
-480
-368
-464
-608
544
176
-704
880
1168
1344
-400
-656
416
576
976
544
-16
256
-1008
-896
-592
560
1216
-368
-1360
-464
-1904
-1664
-1152
112
128
480
1104
1840
48
-464
320
608
-896
48
1872
608
-48
256
0
1472
576
-688
-768
336
608
1536
-1680
-208
1408
-512
-1344
-48
192
448
208
976
240
-576
880
400
1328
704
48
-832
-1840
832
1456
1392
576
352
-1216
-640
-384
976
-448
-592
0
1456
1968
1440
272
432
432
848
1968
896
32
224
672
96
800
112
224
-2016
-960
-1952
-576
-1984
-1808
-384
-1312
-848
-1280
240
1152
240
1504
224
-592
-864
-448
-368
80
-1232
-848
1056
1664
416
-272
-1104
480
1792
-704
512
1440
1200
400
1152
-928
-576
-224
672
-416
464
-592
96
1232
-1200
-1968
752
768
-496
-128
-48
-560
976
752
-480
-720
-480
1376
224
816
-1168
-592
-176
144
176
-448
-1152
-736
-1024
736
2032
1472
144
-576
-272
-800
-432
-880
816
1056
1712
752
-1168
-672
1296
64
688
-800
1040
464
368
224
-656
-848
-624
528
912
352
1024
1088
1328
-160
-688
400
-336
-1584
48
1344
320
384
-384
-960
400
-1056
-1312
-672
1008
1888
-16
-896
-80
560
736
1440
368
-192
-256
-1280
-1136
1280
592
800
-864
128
912
64
-400
112
304
672
192
-144
-1088
-464
1616
272
288
-752
