272
-240
-160
-64
-16
176
64
-176
128
224
-32
-240
560
112
352
240
240
288
-128
-320
48
-384
-880
-752
-576
-688
-48
-16
448
-96
-592
-96
-80
-16
-96
-352
-80
-288
-224
-48
-16
-208
-80
-32
0
-32
-208
-288
-176
-224
128
592
592
816
496
16
-320
-496
-256
208
80
-128
-16
-240
80
96
-64
-128
224
608
144
32
0
-144
-64
-240
224
16
-208
-240
-240
-320
-400
240
368
-272
-96
400
64
-256
192
-176
-112
-80
-352
272
416
128
-304
-224
128
240
-96
-464
-192
48
80
-288
32
352
592
544
-176
-208
144
80
-304
-304
256
96
-256
304
48
400
528
208
496
336
0
-320
-32
-336
-336
64
-336
-832
-384
64
-288
48
-144
-96
96
-208
16
32
208
96
-160
-192
-48
256
-272
-400
-352
-288
-96
192
-208
-608
416
624
384
352
-400
-352
112
-16
80
-64
-48
-64
-48
-416
-208
-288
32
-384
-128
-16
-48
-256
-272
-512
-240
-64
-160
-320
256
240
0
-368
-256
-112
128
0
96
48
-496
32
112
80
48
-128
-304
-256
-352
128
368
560
384
144
96
224
480
544
64
-224
16
-208
0
0
-432
-368
16
80
-240
-384
-240
-256
-48
0
224
144
240
272
112
-448
16
80
-288
-16
144
768
432
352
592
-64
-32
48
-352
-288
-624
-96
112
432
16
64
-272
-512
-240
64
288
208
400
272
-48
-16
-64
0
-432
-704
-528
-192
-48
32
272
656
448
464
448
192
32
48
-176
-144
-352
-128
96
16
-208
-176
208
480
0
480
352
48
80
32
-64
-128
64
-160
-208
144
96
-352
-576
192
544
-160
80
320
16
-16
560
-256
-400
-128
480
576
288
128
128
-96
-208
-96
-384
-256
240
480
144
0
-192
-16
416
32
288
-208
-64
128
64
-176
304
336
-80
64
1056
400
-112
288
384
416
320
-80
16
-176
-208
-64
144
-96
-304
-48
464
96
-304
48
-240
176
-528
-160
224
-128
0
112
-112
384
256
304
32
432
-176
-224
-176
-144
320
144
240
256
-240
-544
80
144
560
208
96
-160
176
-336
-592
-400
-496
-128
384
240
320
544
-80
-432
304
624
480
112
144
-128
224
480
352
384
384
384
320
496
224
272
-80
-208
-544
-432
80
-384
-416
-160
16
16
288
256
-128
-272
-320
0
192
128
16
32
368
112
-112
64
256
-176
-128
80
-448
-176
176
-80
-32
144
480
64
48
-80
-496
-352
-400
-272
-672
-144
-224
-192
-384
-352
-384
288
-272
-336
-464
128
384
-32
-144
-64
192
352
192
448
-64
-48
288
288
96
64
64
384
368
208
240
384
240
192
240
608
528
-224
-128
-496
-80
400
32
256
320
784
208
-592
-592
-160
32
304
-176
-496
-336
-896
-528
0
128
320
-16
-160
-224
48
176
480
464
-208
64
-96
32
-48
-160
-240
80
-320
-416
224
-16
-416
128
80
-496
-384
-960
-800
128
96
112
16
-64
-368
128
-304
-64
112
128
-16
-112
0
304
128
352
-48
-352
-320
-208
256
-48
-256
64
-128
-320
-48
-64
256
-64
-160
-176
-32
-272
80
-256
-416
-400
-272
-304
-112
-288
-544
-320
192
-368
-400
-288
-192
-352
-192
-32
-144
48
80
368
320
32
192
112
64
-288
480
272
-112
272
-128
-352
96
-128
-448
-672
64
544
-272
-192
-112
16
176
-80
320
416
208
16
-64
-208
208
-112
-176
-496
96
112
-112
-288
-256
512
48
-176
-384
-256
16
448
272
-64
48
0
0
-272
176
368
320
208
496
336
-272
-528
320
496
-144
208
-64
352
48
-304
-192
16
-288
-64
-144
128
-80
-224
32
-304
-416
-240
480
352
-96
320
512
-496
-304
384
224
-48
240
64
208
-192
-496
32
-32
-288
-160
-576
128
288
48
-64
384
432
256
-496
-352
112
448
544
320
-336
48
272
-144
64
64
224
32
-336
-16
-144
-192
448
-96
-16
96
224
-64
-160
-80
160
-352
-64
80
272
64
-208
32
-288
-272
-16
176
224
-16
-352
-336
-144
-448
-240
-16
-144
-272
-144
-176
144
208
256
-160
-528
96
192
-304
160
16
-304
288
96
-64
176
16
-208
-416
192
288
-48
-48
224
-224
240
-112
176
608
48
-32
0
0
-240
-64
80
-192
-352
-448
-368
-240
0
32
-368
240
368
-336
-272
-336
-304
-128
96
272
-240
-224
96
-368
-544
-112
-288
256
272
-128
-240
320
384
464
112
-16
-176
-320
-400
-176
-160
48
-80
208
240
352
256
-160
80
48
288
64
224
304
-144
-480
-128
-48
-224
-144
-400
-528
-816
-304
-320
128
-144
240
-288
-368
-256
-320
-32
336
0
-176
-624
-768
-432
-336
-48
-128
-80
480
512
-256
-208
-400
-160
672
240
256
-64
-32
464
224
-96
-544
-208
128
-64
-384
-512
-384
528
432
-160
-288
-112
256
416
192
288
-48
-304
-192
-208
368
-16
-192
32
192
-16
-160
-80
96
-240
96
176
32
-32
-304
-384
-160
432
224
-48
-16
-160
-48
336
-96
-224
-144
-160
32
240
192
-176
-512
-320
272
368
-80
-128
-80
-320
16
96
192
-96
-320
-112
-80
336
448
256
-224
224
-16
192
-256
-144
-112
-48
560
560
16
448
128
-176
432
416
304
288
-48
-32
272
96
464
-128
48
176
-192
-208
-64
304
848
144
-176
224
48
432
128
-256
-640
-304
-176
-192
-240
-400
-160
-272
-592
-416
160
208
224
-48
-16
560
320
-48
-336
-384
208
272
272
80
-160
-240
-352
192
-16
-112
-80
-368
48
496
-32
48
272
192
-48
352
320
-96
-304
-576
-560
-48
-160
-16
160
0
0
32
384
1056
736
384
-48
-48
96
240
384
16
80
80
-304
-64
0
-32
320
-48
-496
80
48
-544
112
-336
-48
0
272
-272
-176
48
-48
-160
-96
32
-432
80
176
-304
-352
-64
16
-240
0
288
-64
-112
256
336
-368
32
48
-176
0
-144
112
-32
-768
-208
-16
-208
96
176
-208
-192
0
144
-192
-176
-304
80
560
-48
144
-48
16
-112
-80
288
624
416
176
160
-240
-416
96
464
272
288
-144
-16
464
-384
-336
-192
-288
-272
-320
-432
-688
-256
-496
-448
-240
336
480
288
80
224
176
-80
-432
-304
-48
-304
-480
-16
0
288
-32
-384
-176
-176
-64
144
-16
-656
-224
0
-368
112
80
256
-208
192
256
416
400
-64
-592
-32
288
352
80
0
-176
-256
176
-32
416
624
352
192
240
16
160
112
160
-240
-128
-256
-448
-624
-816
-208
64
-240
-160
-288
-96
-352
-208
176
112
288
80
-80
512
432
128
96
80
-464
-480
-208
80
80
-128
112
672
816
112
-384
-224
-160
-256
-224
-32
-368
96
160
48
-112
-176
144
592
688
0
-288
-240
112
304
640
336
400
-64
384
-48
-64
64
-192
-176
368
320
-176
-464
-64
112
-448
-656
-544
96
672
48
64
16
80
-32
288
336
240
176
32
-240
-528
-64
80
240
32
16
128
144
16
544
-272
-624
-368
112
-112
-208
-384
336
432
432
256
416
320
192
176
80
528
288
576
368
560
560
352
-800
-400
-112
416
560
256
-176
96
112
240
176
-128
384
-160
128
464
192
96
96
144
176
80
-32
-160
-192
80
-272
-48
112
352
16
96
-64
496
-208
-288
-96
288
-16
16
-112
0
-320
32
0
656
352
-96
0
32
-272
96
-16
-768
-496
-144
256
224
336
-16
336
-112
-144
-176
272
528
64
144
-112
320
128
64
224
-416
-560
-496
-16
-480
-64
-160
128
320
64
16
-288
-160
160
-96
32
-80
-160
320
-160
-32
224
-64
-32
240
128
-160
-528
80
560
336
16
-32
144
256
-224
-480
-432
-144
-96
240
480
352
144
-352
-496
-48
304
-208
-544
-352
0
240
-96
96
-16
-208
-336
-944
-96
384
-336
0
-224
-48
224
-112
96
320
48
-288
208
192
160
-432
-464
272
160
-144
-208
192
160
384
224
496
144
352
-80
-16
-240
-288
-432
-400
96
176
288
96
-32
64
-368
-464
-352
-80
-688
-544
-16
288
288
-160
-112
-128
-48
-64
-16
-144
-128
272
304
128
352
112
-304
-160
160
-400
-720
-224
-208
-224
192
80
576
560
464
-48
-528
-336
48
64
48
-384
-384
-240
-176
144
432
352
-48
-448
-48
64
-64
560
544
256
-288
112
208
160
144
-416
-368
352
144
-112
-528
-560
32
-16
64
-400
-320
-160
240
48
-160
-48
-240
-560
-288
-192
-512
-352
-192
224
672
192
208
272
480
176
-560
112
112
-240
-320
-96
192
240
-48
-240
-176
336
256
-304
160
-272
-144
48
160
64
-144
-96
-128
-256
288
-144
-48
432
-144
-160
-352
-672
208
304
144
176
-208
-64
256
-112
-528
-592
32
352
32
-48
-64
-144
176
288
16
112
160
48
-192
-416
-192
16
208
240
352
-176
-320
-304
-464
112
-48
-16
96
-16
144
-272
-160
-112
-208
-16
-176
-528
-48
-176
0
192
-208
-336
-32
-224
0
16
-464
-304
176
112
-416
-48
-304
-368
-416
-16
-64
-48
-304
-464
-48
-48
-240
-128
-576
-576
160
288
144
128
-32
-112
96
192
-144
-240
-96
96
-32
192
-16
160
-80
-160
-304
-464
-832
96
576
384
-400
112
112
-224
0
-32
352
384
-112
-352
-576
-432
-608
-624
-528
-448
-144
-160
-288
48
-64
160
112
-16
352
448
-112
-144
592
96
16
208
-16
-80
416
288
16
-432
-112
-80
-368
16
-160
-96
-288
-608
-112
-176
-544
-400
464
192
176
256
128
64
176
-32
-464
144
512
128
224
272
0
320
-64
-208
192
32
-208
-352
224
224
-96
-288
16
128
-32
-336
-272
-336
16
-208
-496
128
16
-96
352
320
-32
112
816
432
224
-144
144
704
592
112
416
-32
48
-320
-208
16
160
128
-208
-416
208
128
-208
-96
-80
-64
-208
-336
-192
-352
-128
160
-272
-288
144
112
64
112
112
-224
-112
-128
-32
304
304
432
-96
0
128
144
224
-480
-528
-32
-208
-160
-288
-176
-48
112
512
176
272
-96
-240
208
0
-320
-400
-656
-496
-576
144
688
928
416
-208
0
-16
0
-64
-352
-16
-96
96
-48
-624
-432
-128
480
688
48
464
512
432
144
-112
-544
-128
384
128
-240
-48
-192
-304
544
272
-16
-48
-304
144
-144
-176
-256
144
-272
-272
112
-256
16
224
256
32
-48
64
80
176
400
336
464
-128
80
32
-96
160
80
32
64
-304
-336
-128
-240
-128
-256
32
0
-128
-112
-304
-688
-32
96
256
-64
144
-208
-368
-128
400
192
16
80
176
144
-80
336
368
272
48
32
64
112
208
192
176
-256
32
64
176
176
-384
-48
0
240
496
352
-208
144
208
352
272
16
80
-64
320
480
128
288
-272
32
-64
-240
-256
-112
208
-416
-336
-128
176
-48
592
128
-288
-96
-80
-224
80
-160
-384
-608
-16
-240
-144
0
64
-32
272
256
-192
-176
352
656
48
80
128
-240
-480
0
368
144
-240
-96
-144
304
-64
-208
112
176
672
608
-64
112
-48
272
192
96
192
432
224
64
368
400
256
-64
96
400
-240
16
-48
-192
-272
-624
208
336
-512
-128
-144
208
592
16
-480
-208
-32
0
-256
208
208
-128
16
304
-240
-16
-64
-144
-208
-400
-368
-144
80
-144
-656
16
-480
-320
-384
-256
-16
-80
-32
-336
-576
208
80
-320
-304
96
544
176
240
256
-96
-544
32
-32
-16
160
864
16
-96
-32
-128
160
-128
-208
-48
-336
-432
-432
-128
32
400
544
-128
-432
80
48
224
-64
48
256
-160
-304
16
-256
192
16
-320
-448
192
480
240
-64
160
208
336
64
160
112
-512
-656
-32
-96
-144
272
448
80
144
96
32
-48
-224
-80
112
128
-64
272
416
-144
-160
-384
-336
160
-192
-160
-320
-64
-16
-128
48
400
48
-256
16
-96
-208
-176
-96
-176
-144
-192
-16
272
304
-160
-96
288
384
96
112
-160
144
560
192
-272
-448
-272
-240
-112
-144
-480
-640
16
208
-528
-320
-144
-80
-144
-80
-208
-64
32
208
-64
320
160
-368
-496
-304
-288
-240
-560
160
224
528
368
-112
-144
-96
-208
-352
-240
-640
-288
176
-240
256
-192
384
336
48
480
144
-160
-448
-64
256
416
224
96
-176
176
224
320
80
64
96
240
16
-80
-32
-128
64
256
-96
-368
-208
-384
-80
-288
-112
80
224
480
384
16
64
512
192
352
416
464
384
240
-80
16
160
320
160
480
560
272
-352
-32
208
-400
-560
64
-224
-160
-432
-48
112
192
-96
96
-176
-256
-464
-336
128
400
0
-192
-48
128
-320
64
336
0
-96
-32
-240
-80
16
352
592
320
-32
-224
-144
256
176
-192
-256
-256
-496
-304
352
384
208
-64
-96
-384
-384
224
64
-80
576
96
-656
-176
144
-96
-192
528
656
-160
-16
-64
336
224
-288
-304
-384
-240
-160
64
96
464
784
848
528
-176
-16
-64
16
16
512
240
224
320
352
-96
-224
224
-304
-80
-48
-176
128
128
416
304
688
448
144
80
-80
-48
336
-96
-48
-64
-128
112
144
400
-80
32
112
-336
-96
-96
16
-80
-16
-208
-368
-768
-224
-160
-224
176
112
-144
128
256
-368
-496
-368
-176
128
-128
-144
112
528
496
352
272
-176
-112
80
128
304
16
32
-96
-480
-16
-304
-528
-608
-64
-80
240
128
-432
-256
96
-208
-336
-592
-16
432
160
-144
-496
64
-240
-240
-112
-240
400
-144
80
224
-80
224
272
32
-224
-192
-16
560
160
-80
-224
-320
32
-176
96
400
-320
-48
-640
-512
32
48
-352
0
464
272
544
-176
320
176
-512
-64
-96
224
-32
288
368
176
288
-112
0
-448
-832
-368
-64
-64
-528
-528
-128
-64
-160
-288
-208
-96
-80
-272
-64
-96
0
-144
-304
-544
16
-112
-96
-64
-32
416
-432
-208
496
208
-64
-416
-720
-512
-256
320
336
240
-96
-224
-224
32
-112
80
-48
-224
-96
-80
-528
-256
-512
-544
-80
448
288
-272
64
160
528
464
240
160
-176
-208
64
-32
176
336
0
272
272
896
352
-416
-160
-256
80
288
160
400
528
-96
-64
0
48
224
-160
-112
-208
-96
-400
-112
-64
400
144
-448
-240
-304
-176
-64
-160
192
-224
-96
32
-576
-96
0
-176
-144
176
-128
-128
-288
32
128
416
400
368
368
144
-112
-400
-224
32
256
64
-176
128
144
-208
192
368
176
-560
-320
224
96
176
336
352
352
-80
176
-32
-144
-304
-176
-48
-176
80
256
176
48
368
-32
-288
96
16
-288
64
96
352
480
144
-576
-640
-64
-112
-240
-144
-384
0
320
-144
-208
256
368
176
128
480
144
32
272
192
-128
-384
-112
80
112
0
208
32
-240
64
-128
-144
-160
176
80
48
160
320
-48
-192
-32
672
-432
-192
336
-32
0
-32
240
96
160
32
-80
128
48
48
-640
48
-160
-464
-512
48
432
-16
-208
144
-48
32
112
-80
-352
-512
-496
-240
144
144
32
-368
-384
-16
320
32
256
496
32
-368
320
256
-208
-128
96
176
288
272
-112
-512
16
448
848
-112
-192
272
0
-80
176
-32
-656
-736
-352
-80
464
304
-352
272
576
512
-144
96
-208
-576
288
832
544
0
48
-352
-288
608
-64
-224
176
224
256
-48
-224
-64
176
80
192
448
336
-144
-224
176
-64
-80
0
16
48
-192
-64
16
-16
-128
288
160
16
-352
96
208
176
64
320
400
-224
144
-64
112
256
-288
16
-96
48
160
192
384
128
-16
-48
496
336
-128
-304
-160
48
224
128
-48
-528
-400
-400
-208
288
128
464
0
-128
176
496
-128
-432
-512
48
-16
-80
32
64
208
304
32
144
80
-144
32
-272
-32
-112
-240
-512
-160
-288
-480
-128
288
-208
-336
-32
208
176
48
176
-192
-208
-144
96
-192
-560
-368
-400
-384
176
256
32
16
448
448
-272
400
-64
-480
0
16
-432
-208
-320
-384
64
-240
288
352
208
528
-80
-32
-112
224
224
64
80
112
-128
-384
432
288
-160
-384
-96
-512
-368
144
240
-304
-32
432
224
224
144
-256
96
48
16
112
80
0
288
480
336
32
-224
-160
-368
-64
80
-208
-224
-112
-192
-192
160
96
-240
-128
-208
16
-32
-272
-176
304
336
-144
192
80
-176
-400
-160
256
352
128
-16
592
640
-416
-416
128
-208
-80
-288
-16
-96
144
-16
192
-80
-496
-48
768
528
16
176
384
-368
-144
-576
-368
-224
128
544
400
0
176
96
272
432
352
304
208
80
224
240
-288
112
-16
-32
512
32
224
64
-320
-224
384
-48
256
-80
-48
64
432
160
144
-256
-144
-256
16
112
128
112
0
0
272
48
-112
-400
320
144
16
400
-16
-192
128
320
48
-336
32
-208
-560
80
320
-48
-256
96
-80
-256
-112
-80
384
576
64
48
-16
144
-160
64
0
-64
208
-304
-208
16
-112
-160
0
144
-208
-208
-272
-112
-496
-80
416
304
-112
-16
-96
-80
64
-192
-128
64
80
0
208
224
-256
-304
-80
-448
176
-256
-576
-304
16
-128
256
-48
-112
-112
-432
-384
48
240
528
32
-272
16
192
-128
-656
-224
-320
-400
64
0
-224
16
-64
-544
-528
384
720
560
320
112
-256
48
432
112
-16
-224
-768
-240
368
576
-560
-464
-480
-528
432
80
-144
-64
-16
432
336
448
432
-48
-144
96
-224
-96
-256
-32
-128
-224
-288
-224
0
-512
-592
-96
-416
-208
-112
-128
-144
560
480
-288
272
688
32
-112
-240
464
400
288
144
192
96
-224
-384
-96
-176
336
432
16
192
48
-48
-320
400
256
448
400
192
-80
-208
528
-240
-272
576
64
-128
400
240
48
-128
-32
192
448
112
-448
-320
176
320
160
64
-32
-320
-496
-160
80
-48
-368
-160
480
192
384
-208
-112
320
-128
112
240
96
-16
240
192
384
80
-16
-224
-688
-416
-480
-64
576
96
-240
64
-384
256
-96
-352
-160
-208
-272
160
272
-16
336
448
-240
-224
48
16
-32
-304
-240
-352
192
544
448
-16
-320
0
272
-64
224
-352
-144
224
256
768
240
-384
-48
400
48
64
160
160
-288
96
144
-96
-432
-64
160
96
112
32
384
64
80
-512
-672
-16
-16
64
192
-208
-192
128
64
32
-112
240
688
224
-304
-384
288
176
80
304
-240
272
-16
-240
-432
-176
-208
112
80
896
192
-368
-464
32
128
-400
-432
-64
416
208
128
80
288
224
144
16
480
224
-208
128
-96
464
464
160
-48
368
224
96
-432
-432
-208
-128
96
368
240
-384
-64
208
256
-128
-176
-480
-240
176
128
-304
-64
128
0
560
320
-272
64
240
256
-144
384
224
-800
-448
224
320
240
96
96
144
400
-160
-592
-480
-112
352
-128
-160
-96
-176
-432
-624
-256
-48
64
-192
384
80
-96
112
288
208
368
160
112
240
304
-192
288
192
-144
-384
144
192
-384
-352
-160
-64
-736
-192
144
-496
-400
64
80
208
48
-128
-560
-144
-736
-688
-272
-144
-144
-304
176
160
-32
-208
320
624
272
32
0
192
192
-16
-176
-112
176
160
-160
-368
288
272
112
288
560
336
240
-96
-320
-160
480
704
224
112
480
32
496
832
768
384
-32
-352
-64
832
352
-32
-176
-224
-384
-144
432
80
192
48
-160
-208
272
448
-160
32
208
112
-240
-128
224
576
-64
48
-176
-80
-320
-64
-352
-288
80
112
128
-32
160
-160
-240
-64
-256
-560
-480
-160
-176
-240
-240
-400
-480
-496
32
-64
-256
144
352
-352
-288
-256
64
96
560
352
-96
-464
96
720
384
128
-16
304
32
-304
256
304
304
-32
-192
496
384
240
256
-192
-352
-96
128
-256
384
128
-368
-160
128
96
64
-32
96
48
576
352
-336
-80
-592
-544
256
48
-80
-208
320
80
-256
-32
-144
320
16
192
144
0
448
544
336
-288
0
-64
-416
-368
-128
-192
-272
-272
256
608
128
0
16
-96
-272
-352
-176
128
-16
-176
-432
-912
-480
-608
-576
-336
-416
-448
-176
0
368
-256
-48
208
-144
-176
-368
-496
-64
0
-192
-176
160
144
128
192
64
16
368
32
-320
-128
-32
224
-304
160
-64
-304
-208
432
192
144
176
384
288
-272
-80
-304
-176
-16
-16
256
432
-320
-256
160
352
-160
-128
-288
96
304
-192
-144
-416
176
96
272
400
-304
-240
-32
416
112
-624
-288
-480
-112
240
-256
-400
-160
-64
-96
-256
-64
432
256
-512
-304
-16
-16
-224
256
-224
208
400
240
-384
64
-224
80
80
-160
-192
128
0
16
-240
-640
-32
128
96
-48
176
80
-160
-128
80
-48
-176
-160
-752
-448
-352
-352
16
-240
0
-112
-496
-192
-32
-240
-240
128
96
-112
-272
-32
-192
256
560
400
144
0
128
16
64
-96
176
64
-208
32
-352
416
752
544
416
0
-528
-320
-160
-272
-192
-128
-560
-144
-64
-224
0
640
288
-256
-16
-464
-224
-176
208
272
496
272
-624
-304
-192
48
-64
-176
48
288
144
-80
-208
144
160
-288
-208
48
96
-80
-96
-112
-80
224
224
128
176
320
-288
-304
-192
-192
-144
16
160
144
-528
64
-96
256
208
48
-64
-80
48
-528
-448
-496
-224
-320
-448
-304
-432
-352
-48
336
416
256
48
-416
-576
-80
192
-64
400
432
544
-304
-336
-400
-576
-656
-192
16
-96
0
-224
160
224
-208
-320
-720
-32
64
-80
-448
-192
624
144
-32
-80
128
336
-384
112
-256
128
-128
256
96
176
240
512
192
-96
272
-144
-320
176
128
240
-384
-128
-352
-368
48
-32
384
-32
144
0
16
-144
-240
160
304
-192
0
-416
-144
288
-48
-16
-384
-160
-176
-272
-576
-640
-368
224
-176
112
192
-192
-288
-80
144
-128
-128
-112
-240
64
560
160
-352
-432
336
448
240
240
304
288
32
-48
16
0
-480
96
368
448
144
-176
16
144
-288
272
128
-288
-320
80
144
-192
512
224
-160
112
368
-32
-288
-32
96
-16
160
320
192
-528
-544
0
-64
224
224
352
-240
-432
-448
-80
-112
-288
48
336
544
816
304
304
16
336
16
0
-208
-352
-96
64
-288
-176
272
48
-400
-384
-176
-48
592
-32
-48
48
80
224
-656
-288
160
432
272
192
480
-48
-400
-240
-128
320
368
-64
32
112
80
-304
-64
-48
-256
16
-448
-528
48
448
-144
304
-32
256
-272
-784
-32
-48
-368
-544
-288
-80
16
-48
96
240
560
16
48
48
304
64
-432
-144
-224
-256
-496
-320
-320
-592
-336
384
-112
80
-48
-528
48
-112
160
-48
-176
-128
-288
-16
-32
320
-192
-128
-80
112
0
0
-208
-208
-544
-400
-160
416
336
-224
-432
176
-32
208
464
384
-160
-384
80
-320
-784
-432
-16
-128
-368
-48
128
192
-528
-320
208
-48
32
0
-48
-288
-560
-112
96
-544
-240
112
16
-192
176
-64
-112
192
256
144
-224
-48
80
288
576
112
448
-240
-416
16
-272
-160
176
432
208
-96
-144
-48
-704
-464
-208
-656
-448
-64
32
-64
-304
-272
-736
-624
-32
336
576
304
-192
176
-64
-432
128
688
672
192
384
496
560
256
-256
-416
-304
-208
128
16
64
32
-128
-96
16
320
96
32
320
-256
16
-80
-272
32
176
384
112
-160
-368
16
128
-576
-576
-256
-144
32
320
256
336
496
-208
-48
16
432
144
176
-48
0
272
304
368
480
-128
-336
320
256
-304
-304
-272
176
336
-384
-304
-528
-576
-176
544
192
-32
64
32
160
-96
-176
-176
-32
128
-336
-160
-96
-416
-336
80
448
544
48
304
448
448
-240
-304
-224
224
-64
288
176
-480
-128
304
176
-80
-288
-16
-288
160
256
192
0
-48
-192
512
96
288
112
-16
-64
0
48
-96
272
352
464
272
160
288
-96
112
224
-96
-128
-32
-144
-16
32
-272
96
-288
-128
528
160
160
80
32
-144
0
272
-112
-256
352
112
-112
-336
-48
160
-160
48
272
48
-160
-48
176
16
-208
-96
224
-128
-320
-272
80
-208
-80
0
16
208
432
400
448
-224
160
-48
-368
-208
-144
-64
368
32
-32
32
-256
-48
96
128
32
496
512
48
-32
144
-32
-576
-64
416
144
688
432
16
-480
-128
320
176
160
0
-112
-224
16
-32
-240
192
128
-128
16
-32
-208
-208
-304
-256
-48
240
512
-176
-272
96
-208
32
144
-512
-144
-48
112
-160
-288
-144
-128
320
-208
336
304
448
48
-304
208
64
-32
-176
-448
-64
176
160
-16
240
144
-96
304
176
-320
-176
-512
-144
-16
-272
-272
-96
-16
320
176
-144
-368
-240
-96
-48
352
-16
160
112
288
112
-48
-32
208
368
-32
-96
400
160
400
-32
-480
96
-112
-144
-288
-16
144
304
32
464
96
-96
160
96
-128
336
80
112
160
624
336
0
-176
16
-96
64
96
32
-224
64
176
80
-320
-416
-224
416
272
224
-320
-48
496
-384
-352
336
80
208
176
-304
192
-32
192
-496
-624
-384
-256
-128
464
192
192
-336
-384
-208
-64
176
416
272
-224
-80
-160
48
-96
336
-80
432
-224
-224
-128
-16
256
112
192
-144
0
192
336
-32
-560
144
208
-224
-240
416
480
256
48
-208
-96
-48
32
-272
304
208
-96
336
288
208
208
-304
80
-80
-320
-320
288
208
288
128
64
336
592
-112
-160
-32
-368
0
48
-16
192
0
-64
-240
-144
416
336
-336
-320
-288
-352
-64
-144
384
112
64
320
176
64
-240
0
-224
208
-96
-176
48
112
32
192
-16
-160
-144
-304
-160
144
-160
-160
256
144
48
128
128
176
80
144
-64
-256
-656
48
208
112
-432
80
432
-48
80
96
-80
240
208
416
192
0
32
464
368
320
800
240
144
288
336
48
0
208
352
544
-64
144
16
-32
352
-80
-32
-272
-416
-32
304
16
-432
-352
-32
-288
-128
-560
0
96
144
-32
-96
-464
-208
176
208
352
64
224
-336
-160
-480
176
160
160
-224
64
0
768
32
-192
-448
-336
-128
288
416
528
80
16
144
48
288
544
288
80
448
400
-640
112
640
128
448
16
-464
-496
-208
64
144
-224
0
-240
-32
-208
80
96
-192
0
544
368
96
-128
-512
-80
272
432
160
192
-352
-608
-304
-32
320
160
80
-336
-384
240
-288
-608
32
80
0
-224
-16
-112
-384
-16
64
272
-496
-16
-64
352
-160
-224
-432
-336
-400
448
80
-80
-208
192
-32
-624
-336
-160
208
240
128
256
16
-480
-80
64
288
320
352
176
-128
-352
-400
112
-192
-448
32
-512
-32
48
416
496
80
224
336
528
240
176
112
-208
-16
160
-160
16
-560
-192
160
144
-448
-96
400
112
48
80
-480
-480
320
352
432
16
-208
-208
-80
-480
64
144
-304
-112
304
-400
-288
-208
-432
-704
-960
-512
-368
-32
-32
-704
-160
16
144
-464
-336
-576
-128
128
304
-400
-112
144
128
48
-16
-304
16
304
80
80
416
-128
-112
160
192
-128
-240
0
384
-64
448
80
48
-320
-64
-48
-160
-256
-48
176
-32
-112
112
352
176
384
32
-144
-336
-176
-432
0
-32
-352
-496
-208
256
-544
-336
-160
-160
464
352
128
240
-48
-48
32
448
256
-512
432
144
-144
-48
208
224
-544
80
608
368
-432
-384
-48
-176
-352
64
96
336
176
-256
-384
-272
256
320
448
48
-32
-96
-304
-64
304
128
-368
-528
240
112
0
-272
-240
-112
-272
160
288
-96
-320
-352
304
128
-160
-48
272
-192
-320
-80
32
112
16
-64
192
240
-448
-400
368
384
272
32
-48
-16
-112
-336
144
560
400
384
512
-224
-112
144
-288
-96
-144
-16
-304
560
336
224
-80
432
192
-64
-272
752
800
48
64
96
192
144
48
96
-176
-288
-144
64
-16
-128
-224
224
544
144
-16
0
240
320
16
-160
-80
336
192
0
0
-16
-16
-496
-288
128
-192
-16
-144
32
160
-336
-32
192
80
80
96
-320
48
208
-128
-240
-64
160
-160
-496
-224
-128
192
96
-320
-128
208
0
272
192
-192
-112
224
48
-16
-192
48
-144
-192
480
384
-656
-256
80
16
-176
-304
-640
-560
-528
-608
-240
-448
-528
32
464
64
-368
-192
96
-32
-112
-240
0
-144
288
400
-368
-368
-192
-96
-16
-544
-704
-528
-208
-64
-96
-160
-496
-320
-288
-352
-192
144
-176
16
-96
-192
-320
192
704
16
-208
512
208
160
192
128
32
240
656
-240
-320
0
176
224
48
176
64
208
-160
-144
32
-144
-304
-208
288
288
192
16
32
-16
-48
336
-256
-160
64
112
-560
-640
-480
-96
160
-112
32
0
-96
272
64
-160
-112
-176
-128
-240
-480
-112
256
352
224
-80
-64
112
-208
-176
-720
-368
-128
288
48
16
-32
80
432
496
144
0
-432
-32
304
192
-48
128
352
-160
-160
-192
160
656
752
464
288
-256
-256
-256
608
256
-112
-400
-384
-816
-448
0
256
304
-256
-368
-352
48
-112
-464
-416
16
80
432
352
144
128
-240
-512
48
144
-64
-128
-304
144
224
-176
-464
-304
-64
-336
144
320
-160
-416
-496
-144
256
-32
-208
-16
-176
-288
0
384
-32
-208
-224
-304
-624
96
320
-112
112
768
32
-448
48
-96
-208
16
32
192
80
-16
-16
-272
-272
-240
416
576
688
-80
-640
-416
-64
-64
16
272
-80
-272
-320
-80
160
288
368
96
304
-288
-160
-704
-928
-256
256
144
-240
-272
-768
-544
96
96
240
80
400
544
272
48
-80
256
480
-160
64
-144
112
-112
-336
192
160
16
-176
-48
-480
-432
-416
208
-96
-480
-336
0
-80
-496
-96
416
48
0
496
-48
-544
-128
-240
-608
416
576
768
-160
-432
-16
64
384
240
-144
-208
224
224
592
368
-96
16
208
64
-288
-448
-32
176
-352
-336
-352
-144
-304
576
16
-624
80
-224
192
-192
-160
-64
576
160
0
224
-176
-528
-784
-672
0
656
160
144
-192
400
384
336
-192
-16
32
-208
272
0
256
-32
64
-96
-16
-288
128
-400
-624
-176
448
432
304
-32
-288
-512
-288
192
416
-48
-528
-512
80
-112
160
-144
-240
272
400
-240
-592
-368
-144
-400
-544
-208
16
16
0
256
336
160
-208
192
-64
192
272
304
144
432
32
208
-144
-432
-144
0
176
656
112
288
80
64
288
-64
-192
176
192
288
560
-32
240
-176
-272
272
-80
-80
-80
-112
256
688
128
-112
-192
-16
-16
-592
-112
-64
192
912
672
48
-192
16
-128
-352
-480
-208
-16
-432
-432
-336
-256
-288
-496
-272
672
272
-176
-256
288
32
-224
448
192
-384
32
-192
-144
352
352
400
336
272
-320
-208
-112
48
-96
240
-16
-224
64
128
-224
-32
448
464
304
-176
32
64
-128
-16
80
32
-336
-64
512
624
176
-288
-272
-112
-64
-208
-512
-416
32
32
-96
-416
-336
-288
-224
16
416
-208
208
-224
-240
-64
-128
-192
32
448
656
208
352
336
592
48
-272
-144
-304
144
-48
288
672
-112
96
48
64
-80
464
304
-96
160
128
-672
-272
192
128
16
224
96
-64
-160
-256
-224
304
224
320
-240
-112
352
48
48
704
448
496
256
336
160
-336
400
64
16
-48
-48
336
544
368
-144
-80
-528
-80
-432
-336
336
400
208
16
-64
352
512
48
-80
-256
-336
-304
-32
-192
96
-96
320
288
176
-480
-64
48
-544
-192
112
480
-128
-144
240
512
-320
-448
-96
464
272
112
16
304
464
384
144
448
208
-160
-128
-80
-160
0
-400
-112
400
0
240
224
192
144
-496
-208
0
-288
-48
48
448
80
32
240
352
144
384
320
0
64
304
208
-144
-176
32
-160
-256
-304
-272
-496
32
240
-208
-464
-192
-240
-208
-240
-240
112
144
-336
-256
-128
32
352
96
-384
-256
-240
272
160
-496
0
240
272
-224
-448
192
336
-32
-208
208
400
192
-832
-336
-304
-208
-128
112
304
176
224
32
-192
-160
336
48
-96
-192
-464
-624
-48
432
304
144
-80
-304
-208
-240
-48
-32
304
384
336
-160
-576
-160
96
-128
-304
-496
-704
-240
80
240
176
208
224
256
-32
368
224
-48
464
16
432
160
-400
-176
-448
272
-80
-752
-64
192
256
768
112
32
48
-272
-624
32
672
512
80
0
80
-288
-656
-112
96
-512
-192
128
448
208
544
448
-48
48
-176
-128
16
336
416
0
160
-288
64
352
-192
-304
208
336
448
-416
160
-48
-80
-48
192
-96
-176
-160
-240
160
-160
-64
224
160
-144
112
256
16
48
-80
-256
-304
-16
608
16
112
-224
-288
80
-112
-112
-112
704
192
-192
0
-16
-464
-64
-32
16
-96
64
176
224
208
-144
-448
-640
-416
-272
-96
416
176
16
208
80
304
304
112
-32
112
-112
-432
-208
240
256
208
-96
208
544
-368
-176
240
-400
-48
-144
-240
-352
-352
-160
-304
-304
-64
160
-16
128
-496
-368
128
272
-64
-144
320
112
256
304
-176
-240
64
-208
-464
-16
-112
128
112
752
368
16
240
416
-80
-288
-144
-304
-384
-256
-512
-240
352
176
-16
-512
-368
-48
-64
-272
16
112
-144
-272
544
352
80
384
16
-352
128
112
48
-272
16
-192
-64
176
-448
-16
-112
-320
-80
16
-16
192
352
-208
-192
-304
64
16
-208
176
256
-160
-304
-160
368
112
208
112
128
208
320
-320
-416
-112
48
128
-464
16
-64
-464
-208
-176
-144
-32
304
192
48
-80
336
-80
32
-64
400
-176
-720
288
96
-80
240
-272
-144
288
208
-176
176
-96
240
-48
-608
-240
-16
-32
-560
-496
-64
112
-256
-112
-144
-208
208
240
256
48
96
-64
-256
-496
-288
-416
-256
-48
-640
112
-368
-720
-592
-112
-64
-448
-272
592
128
144
-16
48
128
144
224
112
432
-16
-320
48
752
256
-336
-368
160
384
-32
16
160
128
-96
-176
-80
80
-208
-176
-240
384
-16
-16
320
624
288
-240
-160
-16
-336
-176
-128
-288
-80
-160
240
352
-448
-496
-48
48
-448
-608
-192
48
112
160
496
-288
176
160
352
240
-304
-192
-16
224
96
-16
0
-176
224
496
32
-128
-688
-736
-768
-400
16
-608
-496
-64
-128
-416
-192
-352
-512
-288
-48
176
-80
-256
-160
-336
400
112
32
48
-288
-336
-352
-352
-144
-224
-256
-336
-208
-16
-288
-640
-32
480
288
48
480
208
-272
-224
512
496
16
208
128
144
-48
128
448
528
576
48
-144
-480
-224
160
-160
-240
-464
-128
144
-16
128
128
-224
-224
48
-32
64
-48
48
96
64
256
144
-32
-592
-480
-80
48
272
0
448
0
64
128
-160
-128
-128
-224
192
832
-176
-128
-96
128
-112
-64
-32
-16
16
240
48
112
96
-336
-112
560
1104
400
-224
128
-96
352
192
-112
16
208
96
192
-192
64
128
-176
-48
288
80
-272
-128
64
112
-176
80
-80
-352
-96
-560
32
-128
96
-368
-432
-464
96
-432
-448
0
-224
-128
-32
-256
-528
-496
-80
208
240
176
-416
-256
-176
-48
-240
-304
-304
-272
64
-32
-48
416
64
-176
544
208
-192
-64
-496
-336
288
-128
288
336
-448
0
176
368
352
304
176
528
160
-368
-464
-384
-656
-352
-64
352
256
-16
-192
16
208
336
0
-32
-416
-128
224
-208
-112
352
-144
336
384
96
-240
-16
-96
-256
-688
-592
-144
-144
288
-208
-64
-80
-240
-496
-144
-144
-144
-16
112
144
224
-256
208
-64
-80
-96
96
-144
-144
-48
128
496
-64
16
160
-256
-448
-208
-112
16
-48
-336
-160
-240
144
-16
624
304
-608
-240
-48
112
-160
-464
96
-64
-432
-16
32
416
352
96
-256
288
144
-176
-512
-80
-80
496
256
-336
-640
-208
64
144
-496
-576
-560
112
80
112
0
464
512
96
336
464
192
368
528
384
-96
144
-336
-208
832
432
-448
-144
192
96
-32
144
112
208
176
96
128
-176
-352
-64
-208
-256
-464
-48
0
-176
-32
112
208
496
368
272
32
-208
208
256
448
80
-32
-96
80
432
-32
-384
-624
-144
-112
-48
384
224
-400
-112
208
192
80
-576
-288
32
-96
-304
-448
-208
80
-176
32
-80
-32
-320
-96
96
0
-32
-416
256
-16
-208
464
368
-256
-208
240
-96
288
160
256
272
-16
-272
-32
240
272
96
-336
-480
-240
-432
-208
-144
-144
32
-16
480
112
-96
-160
-64
-96
32
144
288
144
48
-160
256
592
32
192
304
32
48
128
32
208
-96
-32
48
400
80
-560
-80
-160
-80
80
-160
-464
160
64
304
336
-240
0
-176
-80
720
656
304
-48
-16
-400
-368
-336
272
224
-16
-80
-112
-384
0
144
-16
0
-64
-512
-208
-48
-128
16
-176
416
528
16
32
-96
32
-80
-704
-288
208
368
272
0
-160
-80
-48
-240
32
416
-16
-384
-208
48
48
192
256
64
480
288
48
288
-160
208
16
-272
-448
-192
-16
240
-32
-208
-272
480
368
-208
-336
-32
-176
32
32
-208
-16
-16
80
-128
144
160
176
-16
208
96
64
80
-352
80
48
144
-16
144
-160
32
176
144
-48
352
240
-304
0
-288
-352
-112
464
-176
-416
48
352
64
160
240
256
144
240
-576
-352
-32
-256
0
400
-400
-208
176
336
640
320
128
160
272
320
-96
-224
-496
-80
0
16
416
-224
-352
-160
16
-64
-624
-208
-48
-64
224
96
64
192
-224
-224
432
256
80
528
496
96
256
304
160
96
-512
-416
-32
224
608
-144
-480
-96
112
16
0
128
48
-448
-432
-48
-128
-32
-288
-144
160
-96
-192
192
-160
-256
-304
-640
-176
-144
-544
-336
-32
192
-64
176
-16
400
656
624
672
208
624
128
-256
-624
-128
-16
-336
448
0
-112
272
416
544
-64
-16
208
-16
352
304
112
32
-32
48
-224
-16
160
208
-96
-64
0
-480
-480
-336
-128
-16
-320
-160
-288
-64
-144
-672
224
336
-208
-240
-48
16
384
32
224
176
32
48
224
-48
-240
32
-432
-320
256
-80
16
-224
-448
-112
368
-256
-128
352
224
288
-128
-512
-320
-224
-608
-112
80
-512
-64
144
128
208
240
-208
240
368
176
-288
304
592
160
144
32
304
-96
112
-48
-48
96
-208
-832
-224
224
16
-512
-208
-352
320
256
-480
-352
32
384
0
304
128
0
32
-112
-112
352
224
384
336
-160
-208
160
432
176
-304
-144
32
-128
240
-176
128
272
112
96
-320
-352
-608
-512
288
320
-192
-512
304
112
80
-144
-192
-400
-416
-128
-96
-16
208
-80
-96
-144
-32
288
272
32
16
-288
-400
176
-80
-736
-304
-240
-240
112
-224
-320
-16
128
96
368
288
432
-224
-368
160
-496
-128
-272
240
-96
144
240
528
160
32
32
-80
224
144
96
240
-64
80
608
240
-320
-192
-592
-496
-256
-128
-32
-208
-496
-272
240
464
256
256
-160
-352
-240
-48
-208
-416
-160
-256
-32
-128
-96
-32
144
400
80
80
128
288
192
160
-208
336
384
48
-528
80
-64
-416
-16
80
32
96
192
-80
128
240
48
-544
-512
0
-352
-240
-224
16
560
640
96
176
-192
-144
208
288
-256
-288
176
336
-64
128
-320
-304
-112
-384
-160
-16
-240
-112
432
336
144
512
208
-272
32
-64
-208
-224
-432
-224
400
192
416
192
-192
-160
224
368
48
64
-528
-608
-560
-128
-144
-144
64
-48
-208
-16
-224
128
160
-304
96
240
-176
32
-64
-144
-352
320
240
-448
-336
160
16
32
208
-208
-80
-192
-128
32
80
240
528
752
480
32
0
-464
-336
-224
-304
256
384
128
176
-80
-272
-48
16
400
256
224
-368
-224
-48
-256
-416
-16
-80
64
-256
-32
32
576
400
-176
528
208
224
544
352
64
208
128
464
-320
-320
-448
-64
-16
144
-48
-160
-144
-352
-112
160
32
464
-128
16
-32
-64
16
224
-288
192
272
-128
128
80
-448
-272
-80
-448
160
32
-272
-176
-192
528
224
-320
-288
-64
176
448
544
-96
-272
-144
368
560
688
384
0
-480
-144
0
240
-256
-512
-368
96
-320
-160
112
224
-48
32
-48
128
-256
-160
48
336
128
16
208
320
-32
48
-48
32
-48
336
160
-336
-208
-144
112
-32
-352
160
896
640
160
-96
48
-160
464
400
64
32
-64
416
64
-176
-48
-352
0
80
448
-64
-288
-224
-256
-144
-512
-512
-288
-288
352
592
128
-48
96
192
128
-432
-64
272
-320
144
-192
16
112
112
160
80
-64
32
-32
-448
0
0
-192
16
128
-48
272
464
-160
-304
224
16
-16
-224
0
-176
-112
176
320
336
112
288
304
560
544
272
-80
-144
64
-224
-576
-32
-304
-144
224
288
-32
48
288
64
96
-80
-240
-32
-608
-288
320
112
128
-336
-368
-368
-288
128
64
64
-560
-592
176
336
-192
-160
-160
-272
352
176
-96
-32
-336
-240
-128
-32
112
-112
-240
-16
288
80
-128
48
-32
-192
240
272
-128
-224
112
112
-304
-288
-144
272
368
192
-16
-208
-304
-608
80
-96
544
496
208
-32
720
432
240
64
-96
48
-352
96
448
-256
-640
-240
176
64
-288
-640
-256
-112
-192
224
240
-560
-400
128
16
256
144
0
-432
-256
128
64
32
-64
-16
128
192
80
-240
-96
320
96
-112
-464
-352
-736
336
64
-96
32
32
256
112
16
32
-128
64
128
304
48
0
272
-208
48
512
528
64
576
160
320
208
144
-192
-128
-96
-480
-144
-32
160
48
128
96
-320
-32
496
64
112
-48
208
80
64
80
240
816
240
-16
80
-80
80
128
-128
256
368
-320
-352
112
400
-64
-112
-112
-352
32
-32
-144
-128
32
320
128
-784
-448
-144
-64
368
192
0
-112
-176
-96
-208
-176
-240
-448
-624
-192
-48
-368
-240
-240
-352
-64
160
448
560
112
-32
48
-64
-160
-48
672
368
-496
176
-128
-224
-64
-288
192
160
144
208
-64
96
-240
-336
352
464
-208
-320
384
-144
96
320
-224
-256
-144
192
32
-192
-336
-336
-128
-176
-368
96
96
-64
-368
32
144
336
272
272
272
-240
-272
144
224
192
-48
96
176
64
32
336
256
-48
304
-176
-240
-304
-48
-240
-144
-64
240
-144
-176
128
432
-224
-96
-112
432
-208
-400
224
688
416
16
160
-320
-480
608
320
-96
-48
-96
-112
160
672
96
96
224
256
496
192
-144
-272
288
288
-192
-144
464
448
-48
-48
-192
-256
-288
-64
432
32
-240
-224
80
-176
-112
0
-512
-64
368
192
192
-32
-192
-528
-624
80
96
-304
-224
-272
512
-432
-496
-320
-480
-384
128
-160
-48
-16
-432
-112
-64
-576
-224
-128
-128
304
176
128
-160
208
-96
176
-224
-80
368
144
448
384
-64
-16
64
432
-224
-432
-208
-304
-832
-240
224
672
336
80
288
96
16
352
208
96
256
464
208
-80
-112
16
-400
64
-272
0
416
-176
-64
224
192
144
784
208
80
240
-32
-320
-320
-64
-80
384
48
-64
32
-128
-64
0
-352
112
-112
-144
0
208
576
224
-256
-480
-176
-16
496
288
416
-208
-224
-64
336
336
-176
-112
128
256
-176
-112
-240
-16
-320
-320
-176
-192
-128
0
272
208
224
224
608
448
-96
176
384
544
-128
112
304
112
-48
832
640
96
-32
160
-32
384
-32
-336
112
272
-48
288
416
-48
-192
-224
-512
-352
-144
-272
128
-96
-400
-32
-416
-144
400
256
-96
-80
576
544
32
-160
-96
192
144
288
240
80
-224
-112
256
96
-96
-336
-304
176
16
-80
-80
176
80
64
-80
-496
-384
80
48
32
-368
-144
-144
432
320
128
400
240
-64
-112
400
-64
48
-16
-304
-400
-384
-272
-400
64
-32
-16
64
-304
-336
400
464
-192
-208
-384
-576
-32
48
400
400
-224
-256
-112
-432
48
528
112
272
224
0
-608
64
368
-624
-896
-448
112
-624
-912
-832
-336
208
80
160
-240
-656
64
464
176
304
16
-368
-144
-304
-112
-112
-304
-192
-304
112
352
-464
-384
160
80
176
256
112
-80
-176
-496
240
640
224
-128
192
-160
288
160
80
560
368
368
-48
-224
288
-288
-416
208
304
-496
-624
-192
-208
272
-160
-160
-16
-16
48
64
-256
-224
-176
-16
-64
160
64
80
-480
-352
-320
176
48
-192
-496
0
400
-192
-384
-64
32
96
160
480
-16
-288
-240
-368
-16
-80
256
160
-304
-256
32
80
224
288
-128
-384
-128
208
48
-64
144
384
288
256
336
432
400
-240
-400
-80
0
-480
-608
48
-112
-80
272
-96
176
32
208
176
-32
-64
0
-16
-48
-288
-288
224
320
-208
-112
-128
224
-192
-416
-736
-336
-240
-16
80
112
384
-320
-400
-144
0
256
48
-16
-144
0
160
496
-16
-288
16
480
368
-224
112
-240
-48
96
176
-128
-48
256
208
-336
-48
-160
96
-32
96
192
-288
-592
-272
240
448
-464
-464
48
240
128
-48
-192
-256
128
96
-240
176
80
160
176
128
160
416
528
96
272
-416
-176
672
352
48
16
416
224
-192
-240
-528
-432
-16
16
-32
-96
-352
-448
-512
64
-48
-416
-32
0
-112
-256
-32
432
192
-96
-112
32
240
32
64
112
-48
-208
-192
-16
-384
-144
128
80
320
48
-240
-480
-368
-144
-16
-400
96
-240
-96
96
208
512
288
112
-80
-16
-384
0
128
288
160
352
-128
-512
64
64
-128
208
176
-208
-272
80
224
320
144
-368
-448
-208
-384
-16
-320
-336
-208
16
288
-224
-160
-208
-32
240
144
208
-32
-16
-144
-192
16
160
64
-64
-384
-144
416
384
-160
256
0
-432
16
-96
-192
-320
-176
-208
80
208
-48
-32
-80
80
16
-16
-304
-464
-112
560
464
-272
-144
-480
-560
32
592
-32
-128
224
-32
-208
-144
192
144
-448
-240
672
592
112
-240
-80
-80
-384
-80
-176
-32
32
-128
304
224
-192
-48
-528
-544
-224
-320
-176
288
496
-256
144
-336
-352
80
-272
-144
-272
-256
-96
176
-112
32
80
240
256
-160
-16
-320
-368
-352
-80
80
432
272
-480
-352
0
-448
-688
-432
-64
-304
-480
-592
-128
-32
112
-432
-368
96
496
704
240
-48
-48
-112
96
80
-160
80
-80
-288
-64
352
416
-128
-128
64
-224
-272
-368
-448
-16
-16
-48
-48
-192
32
-304
-160
176
80
96
368
240
160
48
240
-80
-224
-240
-192
-64
224
80
368
272
-288
0
-224
-224
320
-48
112
256
192
128
-160
-176
176
416
592
256
320
272
-224
224
-64
-80
128
640
624
896
368
144
448
272
144
144
-240
-288
-672
240
-32
-288
-320
-384
-272
-112
64
96
-80
-48
704
768
112
240
-16
-336
528
640
432
64
-48
-80
-304
-128
-80
160
208
112
-496
-160
-208
-224
144
112
96
400
208
304
0
-32
256
496
560
128
224
624
240
480
16
-528
-128
-48
32
-464
-272
16
-192
-448
64
272
560
464
352
416
272
16
-480
-384
240
288
96
-480
-336
-48
-224
304
256
320
-16
-224
80
160
-48
-128
-208
-80
448
528
0
-112
-240
-16
-112
-224
-176
64
288
576
384
-64
-80
-48
560
368
320
288
32
-96
-368
48
400
384
112
16
-48
-320
-352
-432
-16
32
-16
-192
-128
96
304
-64
-192
-208
448
400
464
112
-224
-208
-400
-192
-144
-608
-16
80
208
256
-576
-560
304
336
-176
-192
16
-496
368
224
320
-128
192
464
96
64
256
-64
-240
240
384
560
336
-128
288
256
-320
48
208
576
400
128
-208
-192
-304
192
48
96
288
192
80
400
80
272
-368
-144
-240
-336
-272
160
48
144
336
-32
320
368
-288
-336
-752
-352
-384
-352
288
-64
-80
416
336
384
144
-272
0
464
672
272
-48
-16
144
-304
-352
-352
-544
-288
-96
64
-112
-176
-32
-64
-256
128
64
-256
-144
48
304
496
80
240
416
144
448
416
-128
-416
-272
-96
80
352
-192
-144
-64
208
64
144
256
352
432
256
544
336
-16
112
-192
512
720
32
496
-96
-416
-144
80
368
896
144
64
112
32
-112
-240
-96
256
192
-192
-112
192
48
-240
160
240
-288
192
112
-16
96
-448
-432
-176
-576
-416
-48
-32
-128
528
272
320
-144
-256
-400
-384
-16
-96
-288
-208
432
400
352
-240
-208
-256
48
208
368
48
208
304
-304
-480
-640
-368
128
-144
576
288
-128
32
-320
576
416
0
-160
-320
-416
-208
-80
-112
144
96
0
336
176
-80
112
128
368
432
64
-400
-256
-48
16
0
-336
144
544
432
-80
-112
-256
32
-48
-112
-192
144
-320
-432
464
320
-320
-288
-496
-640
128
176
112
-32
256
256
176
16
-224
64
80
-96
-224
-160
-512
-48
-96
-384
-64
48
-16
-48
-16
-176
624
208
176
80
-96
176
-208
-336
-304
-32
160
-48
64
32
176
528
448
608
-32
128
-48
176
416
-272
-80
192
-240
-384
-112
-256
-496
-64
224
208
112
-32
-96
-160
-320
144
-96
-192
-144
224
352
-576
-272
128
64
-192
-272
128
48
-256
-800
-192
144
-16
-336
-576
-128
-16
-176
240
688
512
256
-32
-112
-144
-352
48
352
80
272
288
336
80
32
-224
0
64
0
-80
480
512
-48
-80
160
48
112
-512
112
320
-304
-464
-512
64
400
0
-176
80
80
-176
-160
528
224
-48
-208
-688
-16
384
-336
-496
160
448
48
-80
-352
-288
-176
32
112
112
-48
-192
-288
-64
-16
304
368
368
-272
-144
-176
48
-528
-336
144
224
-208
-144
-368
16
-400
-784
-432
-432
240
-288
-32
-176
272
192
352
64
128
528
64
-192
-160
-160
640
496
-80
-80
16
32
-128
160
-144
-176
416
320
-352
-288
-160
-528
240
80
-64
240
336
48
-384
-368
-224
224
544
352
96
-288
16
-176
-448
-288
32
112
64
544
32
240
16
16
112
-48
-16
96
-288
-48
224
-560
-256
-160
192
-240
-736
-272
-48
-192
-400
-592
32
208
-224
-336
-144
-128
-16
-368
-544
-160
240
16
-32
320
192
416
-208
-304
112
352
240
-400
-224
160
0
16
-96
128
240
176
160
144
-80
144
16
-64
-112
-144
-544
-240
272
128
416
240
176
48
-496
160
16
-352
-96
-208
-224
-288
0
-272
80
16
128
176
240
608
304
368
112
-16
-32
-32
-256
128
112
-176
-160
-544
-336
208
0
-480
-464
-432
-368
-32
448
16
256
624
304
560
160
-336
112
384
240
-240
-368
-656
-688
-496
-672
144
304
-416
-544
32
-160
368
32
-32
32
-128
352
160
160
-240
-208
-208
-160
352
528
288
-48
-320
-384
-128
272
-128
-64
-96
576
320
240
48
16
-48
-144
96
48
-16
480
144
-400
-368
-432
-96
400
144
-80
-336
-784
-64
272
-16
80
144
656
368
272
192
128
-16
-256
-640
-400
-160
80
368
224
-176
96
160
96
48
176
240
144
-752
-288
-48
16
272
240
464
272
-256
-64
-240
-496
-240
-368
-16
-464
-368
144
-288
-256
480
272
480
48
0
-432
144
288
192
208
304
416
160
592
-80
32
-80
48
288
144
-48
448
16
432
176
144
96
176
0
-144
368
-144
-32
336
48
-240
-320
-32
400
-176
-160
-80
80
224
-16
208
144
-80
256
416
-160
512
336
336
288
-208
672
64
416
1152
640
32
-240
592
416
-320
-384
-80
96
-192
-400
-368
-400
-64
48
-256
-224
-288
-352
48
80
48
336
48
368
112
400
512
144
-144
-224
208
272
160
-48
112
384
416
240
144
336
0
112
240
48
16
192
-96
272
-112
-416
-80
144
-192
64
384
192
-240
-320
0
288
320
288
320
-352
-528
176
544
304
672
496
320
64
528
864
96
-304
48
432
32
16
64
272
-32
320
528
368
48
-416
-256
272
-224
-320
-176
-256
0
368
336
32
-160
-144
-368
-64
-16
-304
-144
0
48
192
32
112
-80
-160
-624
-192
-432
-496
-256
-272
208
64
64
-192
-192
-320
64
160
336
112
-192
-48
416
400
688
-240
-576
208
-112
-160
32
144
144
304
-48
-32
-224
-80
144
-208
-112
32
432
320
-64
-32
-16
-112
192
128
-368
-288
-240
-384
-464
-208
112
32
464
192
0
-208
-80
112
-48
48
-80
-224
-144
80
-96
-192
144
32
80
-96
-144
-448
-144
96
176
-80
-128
224
608
336
-96
-160
176
16
64
144
-176
160
192
-208
-224
-32
-48
96
240
0
80
64
64
256
32
288
352
80
-336
96
704
528
64
384
256
512
-80
-48
-32
128
192
-64
-448
-384
-32
-288
-464
-272
-64
-272
112
176
144
-176
352
-32
-144
-176
-688
16
384
304
272
32
80
192
256
432
384
-144
-128
-96
464
-112
-224
-400
-592
-352
-720
-80
176
-112
64
-240
-656
-528
-224
160
256
272
112
-304
64
400
48
80
512
624
-32
-32
-256
-336
176
-80
176
-96
-80
208
192
208
16
-576
-48
176
-16
-320
32
-48
96
16
-64
384
640
176
256
720
528
-64
-528
-128
32
-272
-176
-160
176
32
-480
-896
-112
256
256
272
-240
-400
-400
160
400
-64
-112
-496
-336
128
-160
48
32
-112
-176
176
48
-560
-496
-80
-128
-96
256
80
-64
-96
160
240
-272
80
-416
-384
-32
-192
432
272
528
368
-160
-256
-144
512
432
272
-304
-176
32
176
336
-32
-368
-528
96
416
624
48
96
48
-480
-496
-32
-208
-32
208
-384
-368
-112
-16
256
320
208
-144
368
512
-32
-224
-400
80
336
48
-160
336
96
-384
-320
-32
-64
224
432
-208
64
-64
-32
-208
-48
80
736
-288
-128
-96
-144
96
288
384
48
0
176
-112
-16
128
144
-336
-80
-256
-320
-144
-432
-160
400
288
128
160
208
416
64
112
208
-48
352
128
16
-240
-272
-480
-224
80
-48
-64
-224
-256
-16
48
160
320
576
-32
80
288
48
112
-256
-192
-320
304
144
400
720
128
320
400
320
384
96
-256
144
240
-432
-368
-752
-592
-352
48
-624
-192
240
336
256
0
32
224
-448
0
128
336
-16
-128
-480
-256
112
160
208
-400
32
160
288
512
-16
-432
48
352
688
304
256
544
80
-160
272
512
96
528
384
240
-96
-432
-608
112
400
192
96
320
192
160
-352
-32
-240
208
352
256
80
96
-224
480
144
-128
-16
-160
-832
-576
16
752
288
80
-160
-544
-128
176
-16
-240
-464
-208
48
304
176
-624
-704
0
-416
-48
64
-608
-208
-272
48
-144
208
256
-208
-272
-128
208
592
464
128
160
272
448
-32
-176
-432
-496
-64
-32
-160
-128
-208
-448
-400
-400
-288
480
208
32
160
-400
-416
-576
-288
16
144
576
16
-304
-352
-160
-336
400
416
48
-336
96
-224
-336
128
608
208
-64
-432
256
304
-384
-480
-112
496
448
480
-16
64
96
0
320
-176
-240
112
0
32
112
432
336
-400
-368
-832
-224
-16
-512
-192
-80
-240
-576
-336
-416
64
256
-160
-16
48
-240
-32
-336
-128
80
-496
-608
-16
-352
-176
288
-112
-208
-352
-80
304
336
-128
48
160
-16
-208
-208
-320
80
-32
-384
192
352
16
304
320
544
-256
-480
-224
128
-64
-224
-320
-352
-544
-240
64
480
544
32
-336
-576
-272
-464
320
48
-272
-592
-544
240
208
-256
-784
-368
-64
336
-288
-144
-32
-256
-384
-352
-496
-304
144
-48
-256
-576
-608
352
656
384
-112
-112
-192
-16
-384
16
208
-64
-320
192
272
-208
-208
336
32
-304
-384
-400
-16
64
128
112
336
352
560
-160
96
160
-208
-80
-48
-16
-112
-288
-384
-32
-176
272
-128
-224
64
0
-320
-240
-352
416
352
128
208
176
-80
-352
336
-48
0
144
64
-384
-256
-288
224
16
336
432
160
240
432
416
80
0
240
-448
-384
-96
832
624
448
96
416
176
-64
176
64
-128
-368
-80
288
176
384
560
656
304
272
256
-96
336
-144
-144
336
-128
16
-80
144
-352
-176
-176
608
176
-256
-96
-160
-80
-208
0
64
224
544
-320
-320
-96
48
176
528
-208
-432
160
-304
-688
-208
-32
-432
-592
-320
-144
208
0
96
-48
-256
112
-208
-48
-336
-48
-176
-784
-480
-176
-288
-192
32
-16
-160
-224
-16
-256
416
96
-16
-160
272
48
-64
32
-80
-48
-112
0
64
-336
-224
-320
-144
128
304
432
96
48
-240
-112
-96
-144
160
48
224
368
-288
-464
-384
-144
-112
-112
-336
-288
-112
160
48
-64
-272
192
80
-96
352
-16
32
-240
-512
-160
-128
336
416
48
-336
-592
-160
-32
256
112
480
96
112
144
192
192
-240
-128
-96
-272
-208
-160
208
800
448
-352
-160
-224
-336
-464
-304
208
-576
-640
-240
464
400
-144
48
64
192
416
80
128
-144
-512
-592
-192
208
-128
-224
288
224
32
224
112
672
-112
32
400
192
96
-144
-176
-144
352
32
-32
448
112
-112
80
656
64
-288
-112
144
-128
-432
-304
-16
-224
-368
-336
-416
-80
64
176
-160
-176
112
32
-320
-224
128
-512
-208
128
-256
-48
-48
-272
-240
112
-464
-64
448
112
-464
240
-208
-336
80
-112
-576
-48
272
368
-16
272
208
-208
-176
96
-464
-528
80
176
32
32
80
144
-256
32
-32
544
624
-304
-496
80
144
256
-400
-544
-64
-16
-208
-160
-256
-192
-192
144
-416
176
624
-48
80
-144
-64
288
112
0
0
320
-32
-16
16
256
0
0
64
-192
-336
-176
-176
192
48
-304
-128
160
80
368
-144
-256
112
-160
-208
-176
-160
-240
64
-64
-48
-96
-512
-400
-144
144
-176
-288
80
0
-736
-432
-192
-752
-384
-176
-368
-208
496
-80
-432
-400
-128
48
128
-240
-64
0
-528
-16
224
64
-192
-32
-208
-80
-176
176
48
48
240
464
432
608
64
-304
-224
64
16
-16
0
-480
-16
-80
-464
-256
-480
48
176
-16
208
448
96
80
-336
-176
112
96
176
48
-192
-16
-256
-400
-544
-688
-368
0
288
256
368
96
320
-64
224
384
96
-160
-144
16
-352
-608
-192
-176
-48
-48
32
16
96
304
160
-32
208
-112
-240
240
-16
-240
-112
-144
128
368
288
240
-400
-272
-256
-336
-176
-240
-288
-448
-336
-496
-288
-48
352
288
-48
-544
48
320
48
416
576
144
0
160
784
192
-320
-224
64
352
-176
-304
-304
160
288
384
272
-64
-288
-80
240
-480
32
80
144
336
-96
576
256
-288
-176
-80
272
608
224
16
-272
272
304
32
320
176
288
208
272
224
-144
48
64
-176
-576
-592
-160
-16
160
192
320
-192
-288
-272
-112
176
-112
-480
-128
-752
-704
-288
304
-32
96
544
272
112
-64
128
-16
144
416
96
-368
-48
-208
-208
-96
416
288
-320
-256
176
352
368
304
352
96
224
0
-176
304
368
-160
-432
80
32
-416
-64
144
416
384
144
-64
0
224
-64
-176
-48
-32
-240
-448
-128
208
320
0
144
752
-400
-464
-64
144
240
96
-160
-368
-176
32
0
192
-128
-160
64
224
160
144
-560
-640
-128
400
256
176
496
192
528
64
0
160
112
-176
416
256
32
560
144
-16
-272
-352
-384
-272
176
160
160
288
-432
-240
-144
-288
-336
112
384
-112
-464
-176
-64
-416
-640
-48
-176
-352
-432
-320
-288
144
-160
-112
256
-448
-64
-288
0
-416
-128
304
192
128
-336
-368
192
320
320
-480
-528
-368
224
0
-160
-80
160
-208
-576
-272
144
0
-464
48
192
-160
-112
-496
128
336
368
128
-176
-320
-96
64
-48
-288
128
432
64
16
-320
112
304
-320
-512
64
368
32
32
-256
-480
-160
-272
128
384
608
320
32
160
560
224
-112
336
16
160
224
-144
272
400
-544
-384
-48
-256
-256
-384
-16
-80
32
240
80
-384
-144
32
80
208
336
-240
-320
224
320
368
240
400
208
-144
320
224
-208
-160
-80
432
528
160
144
240
-288
-480
-176
-400
-48
-128
64
-256
-384
-128
288
176
0
16
-16
-128
-176
-304
-208
272
48
-16
-32
48
-192
-304
-160
-384
-672
-32
128
-160
112
496
320
-16
48
304
-64
32
64
-352
64
32
64
-32
144
48
384
512
368
-272
-432
-32
-224
-208
144
528
-32
-672
-128
-400
-352
-352
-192
112
-304
-64
192
336
-48
-288
-256
-144
-448
-288
80
256
224
496
480
240
16
80
48
-80
256
-224
-464
-240
-400
-48
-144
-240
16
272
208
128
-192
-304
128
-576
-128
80
-16
112
160
736
288
80
384
192
160
-80
-96
320
224
96
-96
-144
-80
-176
-304
-80
304
144
64
80
-128
-416
-176
0
368
304
-368
-336
-144
-192
208
-112
96
176
256
256
432
208
-256
-544
-464
-224
-480
-368
-80
-176
-32
-64
160
208
-176
48
-176
-128
-96
48
-112
-416
-160
-640
-208
160
352
224
-160
-592
-528
-560
-288
128
208
144
-192
-224
-256
-128
272
16
64
160
176
-176
-208
-176
-192
-192
144
320
-208
192
368
272
608
240
224
256
-240
-128
0
-16
304
160
16
-224
-224
-336
32
160
-240
-320
-144
-48
80
256
96
-32
80
-272
-576
-272
176
-304
-224
48
224
448
64
128
704
336
-288
-128
848
432
-272
-192
-112
-32
160
96
-112
224
32
112
336
896
480
0
-240
-816
-672
-432
-480
-112
128
-64
-352
16
-32
80
-32
-336
-752
-96
0
-288
208
144
-160
-448
-192
-96
256
304
64
-144
-512
-144
-288
-320
48
-432
48
-32
-432
-544
-144
208
720
80
32
0
64
-80
-176
288
288
-80
-192
-448
240
464
272
320
352
432
176
-48
-112
-640
-304
-32
48
96
-224
-336
-352
-224
96
192
128
352
-160
-144
80
288
-496
-240
-144
-448
-320
736
-112
-16
-144
-336
320
128
-352
-320
32
-208
-320
-128
-32
128
-64
-288
0
112
-432
-48
-32
0
368
160
-176
608
-16
-96
-400
-384
64
-208
-32
-96
544
176
-240
-64
112
-32
-240
-240
-240
-128
48
192
208
-400
-240
304
-208
128
320
16
48
32
-96
240
-144
-192
-272
64
-384
-368
-176
-128
224
-64
64
-16
240
64
112
-16
0
-80
-128
-288
-160
208
-128
-272
-32
400
224
64
176
-256
-576
48
-176
-176
-16
-336
-384
-32
-128
-160
96
-48
32
240
432
80
80
-48
-32
128
-80
208
800
16
16
-48
-48
-160
-464
-96
-64
80
112
-32
-48
0
-128
288
448
416
128
-464
96
272
-256
0
240
96
-256
-128
96
192
0
304
128
-240
-48
272
32
-320
-192
96
352
528
752
608
-144
-96
-32
-256
-160
-656
-224
112
32
32
-112
-144
-32
96
-80
-48
176
368
240
-160
-160
-400
-192
144
-112
-32
144
144
208
-160
240
960
160
-16
-464
-64
-272
-192
192
-416
-112
-80
-96
16
-208
16
-336
-224
-176
-272
288
272
-192
160
-208
-240
112
48
320
-80
0
320
32
240
-80
-368
-352
112
224
-688
-48
320
496
416
-16
336
816
-16
-512
-352
-416
-256
64
128
-176
-304
128
448
-64
-176
128
288
432
-16
368
1072
576
-80
-176
-160
-496
-144
640
672
640
-16
-192
-16
-208
-112
-160
-112
-336
-32
-288
-928
-864
-656
-320
-240
-96
432
400
208
224
-32
-160
-272
-160
320
304
-16
-480
-640
-192
-480
0
640
-32
-240
-96
176
288
304
64
-144
176
336
352
368
80
-720
-656
-224
-80
240
80
336
352
176
192
64
240
16
-80
256
0
-416
112
0
-160
-144
-208
320
272
464
-48
-128
80
240
48
32
-112
80
528
320
-224
-256
240
-16
256
80
-368
-320
-176
16
-176
272
112
-240
-272
-368
-208
-256
-368
-80
240
272
208
512
-240
32
304
48
0
-416
-432
-304
-512
-208
48
176
-192
-368
-432
128
192
-32
64
-128
-688
-400
128
256
-96
448
304
256
576
240
128
-208
16
-176
256
80
-272
64
256
-16
0
240
576
544
800
144
160
48
176
224
-80
384
160
448
0
192
272
224
0
-272
-320
-544
224
544
-272
-240
368
240
320
416
144
192
-208
-272
-96
128
112
-112
-80
0
48
-272
-192
-480
-256
-400
-208
-160
48
432
320
48
-304
-160
-496
32
112
-128
256
112
-48
144
320
-48
-208
32
720
-96
-64
288
256
400
240
32
480
464
176
160
144
112
400
768
80
-352
-448
-576
-256
-352
-208
144
192
224
-96
-384
-160
-528
-16
-112
-720
-16
256
112
64
432
-128
-304
-480
-608
-512
16
-112
32
368
144
272
224
80
-32
512
320
-64
-640
112
672
752
0
-144
368
832
-32
-160
240
176
304
240
-128
-304
-512
-256
-160
0
112
-176
-128
-32
-128
-576
-320
96
-176
-288
-112
-272
80
-160
192
464
608
0
32
304
176
256
320
224
64
16
16
48
0
160
272
-224
-512
480
176
-16
-208
304
160
-576
-48
416
-48
-64
208
-192
-208
16
-352
-224
160
-192
-48
-144
-96
-304
-144
-112
368
320
-80
-256
144
-208
-432
208
448
176
256
192
-384
64
64
0
-432
-144
-192
144
320
64
-144
-544
-320
192
-224
-400
-112
144
-112
-64
96
-176
-64
192
0
-192
496
432
-352
-352
-288
32
240
176
480
464
64
64
-32
160
432
624
880
304
-304
160
-416
224
320
384
112
-64
-64
0
192
160
288
432
128
48
16
0
416
160
-272
-32
160
320
224
96
-16
-48
-176
64
544
320
0
-96
32
-688
-368
320
416
176
-240
80
144
48
-80
-112
-144
-240
-32
-320
-176
384
-80
32
-112
528
448
976
496
-336
-528
-512
-80
80
96
-352
-384
-336
-304
32
0
304
160
-144
-16
240
448
288
144
-176
144
80
-96
-288
0
448
-112
-224
-592
-176
-16
112
256
-208
-48
160
192
400
-48
144
528
128
64
32
-32
-400
-336
224
448
224
112
-160
-128
80
-128
48
-112
-192
80
-80
32
96
-32
304
-208
-464
96
512
-80
-176
64
144
352
-32
-208
224
-256
-464
368
320
32
624
160
-208
64
224
384
-224
-224
-288
-352
-320
32
64
-48
-144
0
-480
-624
32
432
64
-96
-288
-112
224
160
16
128
-16
304
224
-512
-464
-96
-400
-80
192
-256
-288
-192
80
256
192
-336
-432
320
688
592
-144
-32
304
448
-96
-576
-416
-320
128
144
-208
48
400
160
320
176
-160
112
448
624
608
-112
-352
-304
-208
80
-176
-608
-160
-96
128
480
16
-192
-176
192
544
400
112
-32
528
688
272
16
128
160
-176
-208
64
-336
-464
-496
32
256
-160
144
512
336
-32
32
368
784
416
-304
-320
-848
-256
-160
112
528
80
112
176
448
912
512
496
304
96
-176
-48
-192
-144
-80
64
32
-224
-160
-240
16
80
16
-32
-48
80
16
176
192
-176
-32
416
160
464
144
-384
-64
144
-224
-192
240
-80
-416
-64
-432
-544
320
192
-224
-96
16
176
304
544
16
-112
560
-32
-112
176
400
256
256
-80
64
176
192
-96
-240
-224
-128
112
-304
-16
160
304
768
640
288
528
592
576
-256
-768
-448
-448
112
208
32
64
48
-288
-432
-368
112
-64
-112
304
-48
224
-96
240
80
-48
-80
-464
-400
384
560
352
-32
-96
0
160
736
208
-272
-400
-176
192
-144
-144
-96
48
400
32
112
-96
176
0
-48
-240
-112
128
-160
-80
-368
-32
-256
-144
32
32
288
192
80
-256
-464
80
336
96
480
384
-176
-512
-16
-112
-384
-304
560
80
-80
432
288
0
-48
-96
144
-208
-320
192
208
-144
80
-32
-80
-336
32
32
-160
-224
-144
48
272
-256
0
32
-176
-96
16
16
16
-160
-96
144
160
-288
272
528
16
272
80
-208
-192
96
-496
-768
-176
-64
-256
-16
-128
80
32
-192
-208
560
624
80
192
0
-144
-288
16
272
-32
-96
-272
-240
16
416
-224
-160
-704
-448
96
352
224
448
288
448
432
112
80
-64
384
144
176
64
128
-224
-16
240
224
480
352
480
-496
80
32
80
-160
16
80
-32
48
144
256
-32
16
32
0
80
-144
-288
-192
-112
112
-112
128
128
160
-224
144
320
-16
-672
128
512
160
-48
-16
-176
-16
-480
-288
-80
-448
-256
-144
-208
-80
96
176
-48
-416
-432
-544
160
80
-240
80
-16
48
-208
-192
-320
-16
48
-240
-96
-544
-128
-48
-224
96
80
-336
-144
320
240
192
560
288
-16
16
-336
224
416
-48
144
192
32
-80
352
192
-64
-112
-240
-176
48
336
672
704
336
272
16
240
128
-192
-224
-64
144
-288
368
272
16
336
304
-96
-16
368
352
176
32
176
-352
32
160
-176
-592
-384
-368
80
288
-368
-400
-704
-352
-224
-288
144
96
32
-160
528
704
112
272
192
0
-560
-96
112
-192
-144
-112
-288
-32
-128
-32
-256
-64
272
80
-32
-32
16
-64
48
352
400
-48
-336
-288
112
-80
432
336
-512
-224
160
-64
-32
0
-240
-448
-240
-272
-96
-480
-112
144
208
48
-48
144
304
16
80
-384
-336
64
-224
-192
-160
-112
-112
16
288
240
-112
48
368
-16
-240
-384
-208
-208
-288
384
400
416
-48
32
272
336
-128
-352
-544
-208
-256
80
-512
-272
-192
-48
-176
-512
-80
-80
-144
-464
-384
-400
-32
496
384
80
160
-288
192
-96
-528
-288
-128
112
16
-336
-176
-752
-96
176
-80
-160
-384
-416
16
64
0
-192
-112
208
496
336
-352
-224
496
-48
368
432
176
-512
-112
768
224
-208
-688
-336
80
32
-240
304
64
-112
192
80
32
144
384
64
-416
-48
-48
-288
272
160
-320
-160
-256
-160
-240
-160
-384
464
304
128
32
80
0
16
288
144
240
80
16
192
80
-144
192
528
16
-480
368
320
-352
-176
64
-144
-32
176
224
256
64
256
80
112
208
288
-32
-80
96
-144
128
144
32
64
-224
-48
-96
-528
-400
-192
-64
240
128
32
32
-208
-16
208
-240
-496
-32
32
144
-304
-96
16
0
-224
192
64
640
928
592
256
272
-320
-496
-352
-160
-320
-32
-400
-368
-112
160
-128
0
208
624
720
64
-320
160
-384
-192
112
128
192
16
-48
-496
-64
96
-176
-96
-480
-272
432
352
-224
-304
-464
80
336
-16
48
-96
-640
-752
32
112
-112
-688
-464
-128
-208
-144
-160
144
-64
-160
-448
0
176
176
-432
32
48
-416
-80
-496
-336
-208
-400
-384
-32
-64
-256
-96
-48
256
688
560
240
-192
-16
272
96
-688
-160
288
-16
-16
-416
-272
-544
-64
416
384
352
-272
-480
-352
-16
176
-32
-496
-160
384
80
-80
240
576
416
-272
0
320
-96
-336
-96
448
-128
-528
-128
-304
144
80
-464
208
-32
-128
288
-80
432
-144
112
-160
-272
-224
304
-192
80
240
576
176
-416
176
256
176
-128
-352
-272
-32
64
-80
-272
-320
-336
-144
-16
336
64
-544
-176
112
448
16
-304
-176
48
144
-336
-320
-144
384
432
-160
-224
-400
-160
-192
160
416
48
-80
-64
-256
128
640
-64
-224
-64
240
48
272
-48
-288
-352
224
128
-400
-128
640
400
240
368
-256
-464
-272
80
16
-224
-256
-96
-48
-144
-320
-480
-64
64
0
-240
-160
464
-256
-176
432
592
384
16
-256
-416
-336
0
128
480
208
240
48
288
-256
-416
-160
-560
-848
-320
-176
32
-176
96
384
432
272
-128
16
-256
-304
-608
-288
64
96
432
-64
-512
-240
-224
-320
-256
384
-304
-224
-160
-96
496
352
224
-272
-176
352
624
432
240
-48
-560
-128
224
336
-112
16
-144
160
-32
96
240
-192
-144
-256
-320
-48
-192
-416
-80
-192
-400
-496
-16
32
16
-96
-96
-112
-320
96
-32
176
-128
256
-496
-528
-224
224
16
-96
208
448
480
48
112
-32
-384
-368
-48
-192
432
352
0
48
-384
-16
-112
-224
-224
-192
-112
-160
64
32
-272
-192
-160
16
-272
208
64
-32
192
-144
-800
-720
-544
-400
-64
16
-48
304
-112
208
432
96
-192
128
-16
-288
400
96
-176
80
-416
-304
-320
-336
48
-48
64
-160
32
400
-144
-256
80
416
-304
-272
-160
-160
-96
-48
240
-112
560
144
-480
16
192
512
-176
-240
0
16
-160
592
528
160
304
208
-160
64
128
16
48
480
656
-176
-448
-304
-416
-208
32
32
80
208
368
-208
-96
-80
256
32
128
-144
-128
48
288
224
-48
-208
272
368
48
384
-112
-512
-192
-288
-160
96
672
480
336
688
64
128
160
-32
-416
-96
208
96
32
96
64
-400
-544
-32
96
272
528
320
112
32
128
208
176
-288
-64
-64
-32
32
48
512
128
128
176
-272
-464
48
48
-32
-384
-16
-368
112
256
128
80
16
-16
-192
0
-16
-400
32
272
-96
-32
240
80
-48
-208
-432
-176
48
-144
-112
-112
400
-144
128
-16
192
32
32
32
-112
-48
-128
160
256
208
-96
-304
-16
-96
-112
96
16
-64
-384
-416
-288
400
144
384
-208
48
272
-112
-160
272
16
0
-112
176
336
-16
224
16
-224
224
368
208
336
-16
-208
-128
-288
-144
96
240
48
-64
160
192
48
-160
-16
304
-352
-384
-432
64
368
-288
-160
-368
-192
32
128
192
176
-80
192
176
-64
368
-64
-416
-512
-608
-320
-80
160
16
48
32
416
304
224
-96
208
80
176
-368
-128
-176
-160
-128
-32
256
304
80
176
512
704
480
304
-496
-320
-32
-224
-368
-128
208
64
-96
-192
-512
192
-80
-336
-16
-288
-112
32
112
-208
-304
-96
336
-144
32
48
-256
144
-80
-32
-48
0
-192
48
-48
-80
-176
-96
224
160
0
-528
-352
112
-416
-336
-240
208
224
-16
-128
-176
176
320
-144
-800
-688
112
208
-448
-368
96
32
80
-64
-240
-400
272
160
-256
-240
-176
-48
-80
336
80
-32
-80
-32
-288
192
128
464
368
64
96
-288
-416
-16
-176
304
240
-96
80
336
-48
-256
288
192
160
224
96
-224
-304
48
-304
-448
-16
304
160
-432
-80
-128
-368
-624
-144
416
752
480
368
-224
-256
-240
-160
-336
-32
-144
0
496
352
112
-80
-160
-608
-176
16
-80
-208
-368
0
-16
32
416
144
-528
-720
-448
32
48
-128
432
112
32
-64
32
96
-64
64
368
912
704
208
464
352
400
336
144
0
400
560
240
256
464
416
176
64
176
496
432
80
32
304
-64
-224
368
256
32
-256
480
336
-240
288
480
224
240
480
224
48
-576
-496
-304
-48
624
656
256
112
-80
-48
-416
192
144
16
112
32
160
-144
-160
-528
-384
-192
208
32
176
480
96
-64
-128
-416
-576
-704
496
96
-192
224
0
-224
80
-128
-96
272
128
240
48
112
240
176
-304
-448
144
320
304
240
64
-208
-96
-336
-64
0
-256
-432
-384
-320
-112
480
384
-160
-48
-192
-80
160
-32
-240
80
-112
-112
-464
96
240
32
528
368
208
112
-48
-304
-320
-352
-80
32
80
-16
96
112
64
336
-80
-128
-192
-496
-448
-64
-288
-208
-480
-544
-608
-752
-368
48
-208
304
-32
320
176
32
-32
-288
-432
-720
-288
-320
-320
-32
-208
-128
16
-144
208
-240
-32
336
448
-208
-384
-384
-400
-304
-416
-16
208
16
-16
-96
-96
208
480
-272
-160
384
32
-512
-224
-224
-224
16
-96
-144
128
576
240
208
-160
112
608
416
-80
96
-224
-400
-240
176
448
-32
-112
-256
-400
176
752
496
0
-320
-32
-192
80
-48
-224
400
512
320
-208
-192
176
208
-112
-240
-80
-48
-288
-64
208
-48
80
304
-80
80
208
528
16
-240
80
80
-80
224
-144
-288
336
192
-208
-768
-736
32
224
-336
-240
-320
160
112
304
368
256
0
-96
-320
224
-32
144
-144
32
16
64
-256
-400
-112
-352
-352
272
-112
-160
48
544
-176
-400
0
128
320
112
0
-256
464
720
-16
-320
-64
-192
-64
272
144
608
416
-144
-320
-656
-192
176
32
624
288
-256
-80
-624
-560
-192
32
-48
-32
64
-16
144
128
-352
-224
160
-128
-176
-208
-96
-128
32
-32
64
144
112
-112
-32
64
368
224
-496
-208
128
80
-112
-160
288
272
-96
-112
112
0
-32
-96
-192
-416
-192
-448
-384
208
208
496
272
336
256
304
96
288
880
432
-80
-160
48
-208
-480
-256
-80
416
-112
32
-112
-32
192
-80
-192
240
32
-96
48
-256
-32
80
-32
32
-496
-592
-16
-112
112
-80
624
624
544
48
48
-48
-16
96
-112
-272
-704
-288
-176
32
352
-160
-432
-96
112
496
176
-496
-224
32
272
176
-48
-496
16
272
-128
-368
-48
336
160
400
352
32
-576
-416
-224
-272
-80
208
-192
-160
-512
-672
256
544
560
64
-32
-112
448
240
80
336
256
128
32
400
192
80
576
400
32
112
-48
-192
-240
64
0
32
-64
160
272
32
-48
176
48
-592
-576
-496
-416
-416
-464
-160
-112
80
352
352
224
128
560
208
160
-176
144
304
-96
-64
-464
-176
656
352
432
144
-288
128
128
704
96
-96
192
496
224
688
-128
-288
-16
320
432
64
-240
-240
96
480
272
0
112
448
336
64
-80
-16
32
-128
-128
384
0
-464
176
336
144
-320
32
240
-48
96
112
320
112
64
-336
-352
-240
160
176
-448
-256
-128
-96
-384
-640
272
80
-176
-208
-80
64
-96
-272
-240
240
-16
-224
-32
432
432
-64
-320
-352
64
0
144
368
672
-32
-624
-64
-288
128
112
48
-176
-224
240
-192
-320
-144
-48
48
-336
-560
384
96
240
64
80
48
-64
-160
-448
-352
-528
-448
64
240
-48
112
-144
-144
352
-96
-304
-288
-432
-432
176
-592
-240
-112
304
240
-96
-32
-16
-240
-448
-560
-208
96
304
224
-80
208
-16
64
-544
-304
224
240
-272
48
-208
-656
160
-80
0
288
256
-464
-144
-224
-448
-368
-304
-288
-160
144
-352
-512
160
544
48
-16
-16
-48
176
240
224
416
576
240
192
320
-96
-432
-400
400
432
-48
-64
-352
64
16
-336
-80
-400
-32
288
400
128
192
64
272
240
208
0
112
-128
-144
-256
160
160
96
304
256
208
-368
288
144
-208
-176
-48
0
64
176
208
128
-352
-256
-368
-448
-16
-160
288
288
-256
-128
176
96
176
208
128
320
288
32
16
-48
-128
-112
128
64
336
160
304
224
16
608
-32
-304
-288
-256
48
-80
-192
64
512
496
384
96
16
160
112
-320
-320
-416
336
592
512
368
-160
16
208
-48
-176
-432
-48
224
-16
0
-112
256
512
368
16
-192
384
400
256
176
288
96
-128
-176
112
-48
80
-144
-352
-176
-80
-496
-624
-240
-48
144
688
272
-240
240
-80
-64
16
304
-128
-64
80
-480
-288
-336
0
-16
-32
176
-176
64
-80
-336
32
-96
-336
80
304
16
-352
-304
-304
48
-416
-48
96
-96
-32
-112
32
192
-160
-160
-144
80
-416
-208
-144
-176
304
480
192
320
0
400
240
32
176
80
-432
-368
64
-96
-176
-560
192
352
-48
-160
288
160
0
-80
320
304
448
16
-16
224
80
-112
-128
-16
112
96
32
-176
-128
-192
-560
-240
48
80
64
96
288
464
-144
-256
-448
-592
-592
-336
-80
80
352
-224
-128
0
-64
-352
-272
-544
-368
-304
-400
-192
-336
112
-48
32
-96
32
48
-336
-224
-16
544
80
-432
-432
-48
256
112
-144
-80
352
416
320
-80
-32
-96
-128
192
592
192
-352
-400
16
416
400
-160
144
-16
-400
64
384
336
-64
16
-352
48
400
-192
-128
-16
-256
-64
-48
240
624
208
176
-352
-192
272
96
320
176
336
-48
-128
32
-432
-688
-208
176
160
-96
-96
112
224
96
224
80
-192
0
-192
-256
224
-80
-272
64
-112
-192
480
256
-16
48
176
-112
32
208
112
16
112
224
-128
-16
0
-336
-32
-16
-128
320
32
-48
-192
128
384
960
304
400
304
240
640
128
-464
-512
-64
320
-192
48
160
-176
-352
16
-320
144
192
352
208
64
368
-16
336
128
-272
-32
-80
0
-288
-80
-176
240
544
16
368
-304
-384
128
-336
-240
0
256
64
0
112
-176
-384
-480
48
400
-176
80
-320
-672
-672
-224
-176
-272
192
-64
-320
-112
-112
-32
384
256
-176
-224
-688
-336
-480
-464
336
848
336
-144
16
32
-208
-512
-384
496
0
-512
-240
64
560
160
352
-80
96
32
-256
288
672
176
-304
-400
-176
272
384
-160
-112
-64
-272
176
-544
-496
-304
-544
-448
-544
-480
-480
-64
320
80
-192
80
-80
-288
-208
-448
-144
-64
464
352
512
240
-432
-48
-32
-368
-112
-144
-112
-80
-112
240
-144
-304
-352
-224
-448
-368
-272
96
64
256
-448
-416
-320
-64
80
-16
400
-112
-96
352
512
-96
-112
128
288
112
224
608
528
288
400
80
64
-496
-656
-336
-96
-208
-160
368
0
-192
-320
96
64
32
-208
-64
160
96
336
208
112
1200
128
-160
112
48
272
-240
48
-32
192
-64
96
-320
256
176
304
368
96
-64
144
96
576
96
-80
-32
64
-112
-336
160
-224
-512
-288
80
-496
-176
-48
-32
64
144
192
-288
-752
16
80
-400
160
160
-32
304
480
528
288
592
496
224
-192
-336
288
384
32
112
448
336
112
-192
416
352
-464
-304
-368
-176
400
352
704
560
192
0
32
-128
-224
0
384
-272
-272
160
112
-272
64
512
-352
480
-80
-48
-448
-592
-80
-192
16
304
352
-64
-400
-288
-64
-32
-272
-496
-320
-96
-336
-96
656
304
544
224
-224
160
544
-16
-96
64
-160
-240
-240
-48
-480
64
384
624
368
128
-256
-416
-416
-192
-160
-64
-128
64
-32
-128
160
448
-192
176
160
-656
-128
144
304
304
-144
-128
112
-384
-32
-160
64
160
-288
-400
352
496
-128
112
224
192
288
208
512
256
128
544
112
112
224
-32
128
-240
-448
-560
-640
-192
240
160
400
336
-112
112
272
320
64
-80
-432
-208
-464
80
480
16
-224
-416
-304
-128
16
-416
80
80
-336
-160
48
-80
-16
-192
-464
-336
-432
64
208
320
-64
128
-96
144
128
544
-336
-368
-448
-576
-240
-176
-16
128
352
-160
-160
288
-160
256
-64
-160
-48
-304
-480
-384
-544
48
-160
-352
160
-608
-608
48
-64
192
-288
-32
112
-16
-128
-144
-96
-176
96
16
-496
-544
-128
-592
-320
-288
-400
-256
112
192
0
112
-128
256
128
32
-336
-384
-208
160
-64
-240
0
176
-64
-288
-352
368
-160
-80
528
128
64
0
-224
-160
208
208
-160
-144
-128
-256
-16
-48
-208
-48
-96
-32
-240
-288
64
-336
-464
-32
80
96
-80
-128
-304
-64
-176
16
208
0
-272
-464
-80
-240
-528
-336
-592
432
416
128
272
-464
-112
208
-32
-448
-208
528
-224
-224
-16
528
512
-272
-144
-432
-400
-208
240
0
528
96
-32
-192
224
96
64
256
304
0
-48
-208
-256
-192
-144
-48
-48
-272
-320
-16
144
192
208
-64
-176
-128
-112
-80
-160
-128
64
-128
-144
-80
-224
144
464
432
112
-80
272
528
464
224
352
384
-480
-560
288
-320
16
-32
-528
-528
96
96
256
-48
-240
240
-96
-224
-32
-48
288
208
112
-368
-128
112
-96
16
0
-96
-96
352
320
800
544
-240
-16
-48
-48
-448
-448
384
608
320
144
-384
-272
64
-208
304
736
368
224
-160
48
-112
192
288
720
480
464
-384
-368
32
240
336
256
32
-80
-208
-384
0
-48
544
416
-256
-240
-432
-688
-96
-32
-80
-224
-80
608
672
-144
-368
128
-128
-96
288
544
336
-80
-208
-320
-64
704
-112
-144
176
48
640
176
16
-96
-240
272
352
416
32
-304
-128
-128
-304
-16
0
352
144
-352
144
304
256
320
-464
-512
-384
-144
304
-336
-336
416
192
0
240
384
112
-64
-160
368
624
272
-416
-336
224
48
-64
-528
-320
352
320
432
96
-336
-160
-128
400
64
272
320
80
128
-64
-416
0
608
480
-16
128
160
-320
192
-576
-448
-352
-192
64
432
-240
-736
-512
-112
-32
160
-16
-128
-352
32
224
-336
224
-320
-272
-240
-208
-256
80
192
-352
288
112
0
128
480
240
32
400
384
-496
256
32
-288
32
528
144
-576
-208
80
48
-128
256
336
256
0
416
480
-80
240
-16
-112
176
-336
-208
-592
-304
-240
-320
-496
-272
80
48
128
-16
48
-128
208
432
704
336
0
-160
64
400
16
224
-128
-48
-112
-176
208
432
592
160
96
-416
48
-80
-64
240
96
384
320
-112
48
96
160
-160
320
96
-688
-304
-288
-80
-416
-96
-464
128
-176
-208
-448
-144
544
320
-16
240
720
544
-304
-352
32
544
-64
-320
-80
624
256
224
0
-336
-176
-112
192
208
-256
-784
-512
-80
-416
240
192
-128
208
96
-320
-160
-48
-368
80
448
416
-240
-272
-240
-144
-144
208
-160
-64
-192
-16
-144
480
272
-256
-304
-32
-288
-192
-512
-432
-64
-112
-112
-224
208
32
272
48
224
192
16
128
96
368
48
-496
-240
272
0
-16
800
224
96
-96
80
48
-176
288
304
320
48
-208
192
-112
-448
-176
-176
-64
336
496
256
-128
-320
-304
-128
80
-32
-208
-160
-112
-64
-304
-80
16
-464
256
272
96
368
416
-464
-560
176
112
80
-64
-400
240
192
-272
-144
-368
0
144
-96
0
352
208
224
-112
352
-544
-544
-224
96
128
96
464
432
432
272
224
240
-176
384
432
0
-752
-32
-32
48
16
288
368
-16
512
592
400
576
704
512
176
112
0
-432
-192
-528
-304
-272
-288
-208
80
-192
-208
-352
-112
128
96
16
-416
-144
288
128
368
560
608
304
256
640
480
48
160
640
-32
-16
32
-96
-352
-96
-432
-240
-48
-512
-640
-208
112
-352
32
416
304
112
48
416
-432
-128
480
448
528
208
352
528
336
80
-560
-368
-240
384
-112
16
48
-368
16
-144
-416
-192
-96
96
-128
-208
208
224
-176
-256
112
0
-48
416
-80
-368
-544
-400
80
208
96
304
128
48
-288
32
496
320
-64
-32
496
32
160
480
416
-32
-336
80
80
-384
-224
-64
-16
112
544
-160
-432
-128
-320
-224
304
-320
32
208
-16
96
496
256
-368
-640
-64
-352
-320
-208
-176
224
-192
-496
-64
416
-304
-432
-64
288
32
-384
-192
176
144
-256
144
448
400
224
240
-336
-144
-672
-800
-320
-64
208
368
720
512
48
-96
-176
-256
0
320
208
-16
496
-528
-672
-256
-16
128
624
384
128
-432
-480
16
-96
96
272
256
192
192
-32
112
-208
-160
240
-208
400
208
-96
16
304
448
96
144
-32
-32
-176
-400
-304
80
0
-80
-16
-288
-208
-16
-304
240
256
272
64
-368
-336
-96
-144
-208
16
176
304
64
464
320
-48
144
288
-208
-112
-304
-400
0
512
96
-192
-240
-32
-272
-176
32
256
32
-256
432
176
-496
-160
176
464
32
128
32
288
64
176
128
-256
-368
256
512
384
-208
32
-80
-128
16
-128
48
64
416
128
-80
-128
-240
-48
368
416
576
96
-112
-48
-208
64
112
144
48
48
128
128
144
-64
-144
128
528
-160
-288
-16
-176
96
48
-240
-624
-448
96
128
-496
-496
64
192
-160
-32
-16
-48
80
-80
416
480
272
-272
-80
368
352
-256
-192
544
592
176
288
256
64
-80
-336
-64
96
32
-224
-288
-80
32
-288
-320
384
224
-288
-224
48
-32
128
-416
-224
256
528
112
64
368
-208
128
-96
-480
-464
-416
-208
384
48
-384
-496
-336
-608
-400
288
288
544
128
-112
464
256
192
352
80
-48
64
-64
-16
-32
608
416
336
256
-432
-256
-256
-688
-576
-176
272
-160
-160
-320
-32
-352
-224
464
128
-624
-336
48
288
-224
-224
608
528
-272
-368
-640
-336
-512
-192
96
224
224
-144
-80
-16
-16
-224
-592
-256
240
-64
-288
-304
96
64
128
0
64
96
0
192
224
-416
-256
-336
-384
-432
64
0
64
-128
-592
-688
-720
-192
256
-112
-160
-640
-160
-464
-576
240
224
48
16
80
176
-320
-688
-224
-240
-144
-112
32
-480
-816
-432
-432
-288
-208
-160
-240
112
240
-80
480
272
320
112
256
-80
-240
384
64
256
144
48
288
288
-576
-64
176
-48
96
-80
64
224
144
-384
-192
112
-144
384
144
-208
-752
-592
32
656
192
304
-240
-480
80
384
256
-320
-640
-384
272
160
-144
-304
-288
16
-80
-208
-320
-128
128
96
32
-176
-64
-80
0
-32
-208
96
-240
112
128
-176
-256
-144
256
720
112
64
112
-224
64
480
352
288
-144
48
0
-80
64
-192
16
-288
256
448
64
-80
-64
-32
-48
-144
-192
-112
-432
-480
-208
-144
-16
-240
256
80
-48
96
288
112
16
-128
-48
-288
-464
144
192
-48
336
528
-32
-304
-80
-240
-80
256
256
-144
112
384
-80
-192
-400
-16
48
-368
-432
-400
128
-112
-352
544
-112
-432
-400
-304
80
320
384
-304
-96
400
208
-160
672
880
0
-784
-496
304
-304
-320
-96
-608
-384
-64
176
32
-112
112
16
128
448
-48
-384
80
496
0
-480
-464
-288
-96
384
176
-288
-144
-240
-96
-160
-80
0
-128
-352
112
-224
-640
-608
96
64
-480
48
400
320
-240
16
-192
16
80
288
-160
-16
256
-304
-336
-224
64
0
-224
176
112
-96
-96
272
288
80
-48
-240
160
320
-128
-464
-64
176
192
352
0
0
-32
-192
-528
-448
-80
112
-400
-64
-464
-384
-48
-48
-192
144
272
208
-288
-80
16
48
-16
-80
-80
-160
112
448
112
-224
112
240
496
144
-128
-336
-96
-48
-240
-176
-112
208
-80
-656
128
112
-272
-144
480
1072
272
-144
64
208
-32
-32
272
256
256
480
224
-384
16
-240
48
272
-336
-272
112
-80
-320
336
-352
-368
-256
96
-112
-400
-416
-496
-256
-224
112
448
-336
-736
-208
-288
208
192
144
192
-176
-368
-288
64
-176
400
448
-16
112
0
32
384
32
-192
32
464
176
-560
-400
-336
-576
48
336
192
-224
-224
112
-176
-592
48
16
160
-112
-64
176
160
-48
0
-48
32
288
336
592
224
224
352
-224
-224
-224
-448
-544
48
96
768
512
80
-80
240
208
64
-304
-48
-368
-96
-384
-16
32
-272
112
208
400
384
96
-432
-240
-48
-80
-784
-256
-208
-80
224
-80
128
-304
-192
224
160
224
0
-48
-528
-128
-16
-96
-48
272
-208
320
32
-160
-304
144
16
128
32
0
-304
-176
-32
16
-240
-192
96
176
208
-400
-288
48
-208
-144
-272
128
192
32
-272
-272
-208
-464
16
-288
-672
-144
64
-16
224
144
304
176
848
288
0
-64
-608
-592
-384
-272
176
0
208
272
176
160
-240
-144
-288
-208
96
384
624
448
-272
-736
-448
256
304
-160
208
160
-224
-304
-320
-16
512
64
-144
48
80
-48
-208
-272
112
224
-16
128
112
144
-272
-304
-128
320
48
64
-32
176
-416
-480
160
-112
-512
-640
-208
-240
-448
-320
-176
-128
48
128
240
-224
112
256
368
384
80
144
208
48
-80
-224
-208
-304
-32
192
256
-128
96
80
352
320
304
448
-64
-128
-176
-368
-80
-128
400
384
-80
-128
-304
-160
0
-176
-304
-128
-320
-48
208
224
-96
-320
-144
128
176
-272
192
144
-128
-272
-64
-608
-512
-416
-144
336
272
304
-48
144
64
336
272
432
416
560
192
-128
-80
576
624
-176
336
528
96
240
-144
-80
176
976
1024
-240
-240
64
96
96
544
368
80
16
320
688
64
208
400
432
192
800
64
320
128
-432
-304
48
256
-336
-496
-336
-192
-64
160
-144
-64
112
32
192
-112
48
384
272
-464
96
-208
-336
-320
-176
-256
128
-144
-512
-432
-80
-160
-368
64
160
-304
-128
-64
-464
-240
-48
64
368
480
-64
-336
0
64
32
-112
-304
-432
-112
32
-112
-320
-176
-176
-336
192
208
176
336
112
-176
-192
-368
-560
-96
224
608
-288
-512
-288
160
112
752
112
-208
208
144
-176
96
-192
-400
-752
-176
64
448
256
-128
192
48
-224
-128
-416
-496
-400
272
-96
0
240
128
80
-352
96
-176
-592
112
128
64
64
64
208
320
176
96
-336
-640
-400
-160
48
48
-96
608
272
16
-160
-176
160
112
224
240
336
-80
-256
-32
-176
-496
-624
-480
-16
-160
-272
-304
-272
-192
272
336
-80
-64
272
96
-304
64
352
-592
-368
16
192
80
-80
112
32
176
-48
48
-96
-64
-256
-304
-128
304
128
400
704
192
-176
-128
64
-400
112
272
-528
-64
96
-208
64
400
176
112
112
160
-208
-352
128
-224
-368
-368
208
224
240
224
-144
304
-224
32
32
400
608
144
128
336
672
-176
-144
-32
-176
32
-96
-272
128
240
-64
-256
48
400
208
144
-320
-384
-96
-224
0
224
96
352
96
-112
32
224
768
192
0
-16
16
80
160
560
416
0
-176
-112
144
-304
96
224
496
304
-384
-512
-384
-80
-32
-384
-64
112
224
-144
176
32
-192
-176
48
32
336
-432
-480
-208
0
432
304
128
304
48
288
-176
-144
32
0
464
160
-272
-112
-192
224
224
112
-384
-160
-288
-496
-320
-400
240
288
192
-272
-128
912
384
-432
-480
-416
272
-272
208
80
-352
-416
-320
0
-304
-192
-96
-112
-96
240
-160
16
96
-368
-352
-160
-256
-544
-160
320
128
-304
-592
-464
448
560
80
-272
-32
240
0
-448
-128
288
208
-48
-224
-496
-176
208
544
448
192
-16
-416
432
-256
-176
112
784
272
112
-112
464
656
32
-368
-256
176
688
336
16
0
-128
-96
208
592
336
224
-160
16
-176
-80
-64
64
-32
224
384
-112
240
-240
192
736
256
-208
64
-272
-560
272
144
-480
-160
112
-176
-192
128
-176
176
272
-672
96
624
464
464
-368
-464
192
32
256
16
-240
-144
-288
-496
224
416
-64
544
272
-256
-336
-304
-192
-128
-144
-384
-112
-432
-224
-144
-784
-112
368
288
-96
-96
208
-208
-192
96
192
96
-240
336
288
-624
-992
-160
-16
-112
-272
-352
96
208
-64
-336
48
80
-240
-80
160
240
480
480
-48
-336
-96
-48
-128
-304
-656
-496
-144
-48
-240
0
-176
-64
-480
512
416
-256
-624
-240
224
896
592
448
192
-384
-432
160
368
768
48
-432
208
160
256
48
32
-32
160
96
-416
-464
-176
176
0
-224
-256
-656
-544
176
496
-144
0
-96
0
16
-32
-384
-128
-304
-144
256
656
272
160
160
16
0
-288
-592
176
-160
-48
-32
192
336
-80
-240
-176
-496
-384
0
160
-192
-272
-128
-240
-336
-16
256
16
32
224
480
128
-112
-160
272
-112
-336
-416
64
320
512
208
-48
-144
-160
48
-288
-496
-240
-208
-240
-96
-304
-144
112
160
112
224
-160
-320
-640
-48
208
96
112
288
-112
208
256
-16
-320
-384
0
-112
-32
256
-288
-112
128
256
64
-224
48
128
304
-16
-144
352
704
672
384
224
-160
-208
-208
-192
240
0
-208
-288
128
-288
-80
336
432
-80
-256
-144
496
192
-208
-224
48
-240
64
-208
-320
-16
256
384
-272
144
176
96
32
-336
-32
384
288
-160
-144
-128
-176
-224
-672
-528
80
-240
-656
16
-176
-160
432
-80
48
288
112
-128
-144
128
-160
32
-256
-80
368
288
224
-384
-400
-336
576
-192
-560
-64
96
-48
-432
-272
288
416
176
640
864
608
864
608
-32
160
64
288
96
160
368
160
-144
224
80
-160
0
272
384
192
80
64
-48
80
0
-80
-16
224
-144
-192
-48
-128
-304
-608
-32
288
-48
-128
-16
144
0
96
16
-192
-672
-112
672
48
80
352
160
-704
-480
32
-96
608
352
-320
-144
-176
-576
-208
272
16
-176
336
-64
-160
-368
528
192
32
176
0
656
688
544
256
224
-384
160
64
-240
320
256
208
128
-144
16
-64
-80
-304
-384
-32
-96
-48
-384
-32
-128
-16
-32
-256
-1136
-1056
-736
32
-176
112
48
-304
-32
-48
0
400
0
-192
-16
-336
-192
400
448
160
-160
-160
128
112
-176
-448
-464
-192
-128
-368
-288
-240
144
-400
-304
-16
-160
64
16
176
240
96
-256
-112
-496
-704
-288
-128
-256
0
80
272
-176
-128
-64
-336
-128
576
304
176
288
176
-16
432
16
-480
-224
-48
208
576
112
-368
112
656
144
480
96
112
-128
80
96
-304
-368
0
112
-48
0
48
0
208
-176
-128
-192
-64
-384
-592
-352
-80
144
448
224
544
480
-176
96
160
-144
80
144
0
-64
-112
32
-496
-128
80
64
-32
-480
-16
-16
-160
112
48
-352
-64
64
-48
-288
944
144
176
272
224
128
-96
-208
0
208
-48
-16
192
432
-224
-96
320
288
-192
192
-112
288
288
384
-224
304
192
-384
384
160
-48
-96
-128
528
560
-16
0
-384
-320
-320
-224
176
560
656
-16
576
-144
80
144
-32
-496
-608
-400
-144
240
-96
-320
-144
432
592
688
-176
0
208
496
176
224
32
224
32
96
576
752
-416
352
144
-352
-480
-336
-64
160
-480
-128
-80
192
224
96
80
-352
-32
192
480
624
-208
-256
-432
-176
-64
304
432
288
-192
96
-64
0
-368
-160
192
176
-96
96
288
-96
-256
-208
-240
-144
-160
48
368
368
352
176
128
80
-576
-288
176
-80
-16
144
-464
-96
0
32
320
-272
-304
32
-208
320
272
-416
-288
272
-48
224
176
-320
-256
-208
48
-16
-112
-48
240
352
336
-528
-304
352
496
304
0
-288
-48
16
-496
-240
-128
-48
-160
-224
272
112
32
112
176
400
256
-208
64
144
-272
-352
-192
48
16
336
144
-112
-128
-288
-464
112
64
448
-96
-176
256
-256
-320
-704
-416
-736
-128
128
384
464
16
-176
-256
0
-80
32
-128
448
48
-64
80
304
32
-176
400
352
0
-528
16
-192
16
-128
-32
-224
-32
-128
-96
224
1104
400
-288
-320
-432
336
80
32
256
-240
-256
-240
-368
208
864
576
96
64
-144
-320
-272
128
208
16
-16
-144
-608
-240
-496
112
256
-48
336
48
-352
-176
352
352
272
0
48
240
48
-256
-592
-464
-128
-400
320
448
-80
-160
-160
-384
0
-96
-320
-240
208
368
-32
-176
-320
-448
16
240
128
160
-144
-624
-432
-464
-304
256
-400
-288
-352
16
448
480
512
112
-240
-480
-32
-272
-288
96
256
48
336
272
-80
-256
-16
48
128
-448
0
-256
128
112
448
208
192
-368
-256
528
368
160
96
-432
-352
-224
400
784
736
-240
-464
-624
-160
-176
304
-112
16
576
384
-192
208
-192
-512
-352
80
112
-416
-480
-48
-64
-112
-128
48
16
-416
-160
48
192
96
192
-480
-80
-80
-96
144
416
464
-80
464
672
240
368
528
192
80
-80
-16
-208
-16
-288
-48
-128
192
272
-128
176
112
-480
-160
-128
64
-16
-176
-160
-272
-416
240
-304
-32
80
-448
528
512
208
400
240
304
480
32
-16
16
-272
-352
-16
448
384
-176
-224
112
224
272
-32
-336
-240
144
304
64
-336
-352
-224
176
80
-528
-576
-368
-544
-288
-208
272
-432
-176
-64
-32
-240
-208
-560
-512
-80
112
64
144
272
224
64
-496
-192
240
272
-80
-80
-480
-272
64
-64
48
16
-624
-896
-928
-560
-496
-144
-16
128
-192
208
112
128
96
416
80
80
-16
352
320
-208
64
736
784
272
-128
-256
224
48
-672
-336
-320
336
112
-208
-464
-240
-128
-272
-80
-32
64
208
32
32
-224
-352
-160
176
-48
-16
-64
128
-544
-272
272
-304
-272
-688
-432
0
224
-464
-576
-112
0
80
48
208
-32
-208
272
-192
-112
368
-368
48
-192
80
336
48
176
-144
128
112
-544
-448
32
224
-192
-240
-128
192
288
16
144
64
-160
-16
64
0
-192
240
320
144
-96
128
-192
-160
-144
-304
80
-80
336
-112
-48
-128
176
-16
352
224
112
-16
-176
-128
96
0
-64
416
-176
-208
288
0
256
304
-176
-112
-256
240
704
-16
-128
-176
176
-400
-208
-48
-272
-704
-224
496
720
608
-48
-48
192
-256
-432
-64
480
-48
-256
-256
-608
-560
-256
-368
-192
-304
64
16
-304
-400
-352
-240
144
48
-144
144
-176
-256
176
80
-128
-400
-48
128
768
-224
-544
-320
-336
-144
112
-240
-48
192
128
0
-112
-48
160
0
-240
-224
-176
-160
-288
-48
272
160
0
-464
-752
-336
-16
-48
48
560
-208
336
400
416
464
-48
16
400
576
240
-128
-592
32
448
336
-96
32
0
-592
-416
128
-304
-64
-112
160
16
48
48
-96
-208
464
272
-400
-672
-240
-128
400
384
-64
-384
112
96
-288
208
-80
16
-272
-576
48
512
224
-64
48
208
-224
-160
16
96
32
-384
-48
304
400
336
-112
-256
-112
-240
-544
-288
96
-144
208
-16
304
528
96
-224
-416
-416
-96
448
160
352
416
208
-160
192
512
480
432
320
-464
-64
608
736
208
544
368
-128
-112
320
-192
-336
-160
-144
-416
0
384
-208
-384
80
0
272
272
-32
-304
-752
-112
96
-160
-64
-384
-352
112
240
272
-80
-512
-384
-112
-96
-64
-272
160
432
320
544
832
80
-144
96
-112
-416
-240
144
-96
-400
0
80
-336
-656
-704
-272
0
-608
-240
304
80
288
-48
-144
784
256
48
64
128
592
320
96
64
144
32
-160
-176
496
208
-80
368
176
-112
-128
-80
64
112
-352
-256
16
176
-48
0
176
496
80
-272
-176
112
144
-288
208
-256
-432
112
336
64
432
592
192
-48
-480
-496
-480
48
-16
-192
-256
112
192
-32
-96
240
-224
-240
-48
160
-48
-448
-240
-224
144
-272
-208
-304
-304
-96
-16
208
112
16
80
-688
-256
-112
144
-96
-128
160
208
496
-64
-128
304
176
192
320
384
80
64
-32
-208
-160
-144
528
64
-144
-176
-640
-512
-192
880
640
128
-96
-336
-256
176
-224
-112
432
256
288
288
-64
128
464
464
-272
144
112
448
-112
-304
64
-304
-288
-192
-224
368
144
144
256
-384
-400
-80
432
-416
80
-80
-16
-16
-192
-160
-160
368
256
16
112
48
16
-160
-48
448
-16
-176
112
272
480
512
-48
208
224
-416
-176
-272
-32
160
-336
144
128
-64
304
800
272
80
-208
-224
-32
608
416
704
592
176
-32
336
-208
-640
-128
-720
-576
112
-320
160
144
-112
-32
-128
-64
-416
240
176
192
-176
-32
80
-320
-240
48
512
416
-176
-448
-144
352
-64
-192
-32
-176
368
16
-48
-480
0
-240
-224
-208
-96
-16
-208
-512
-368
448
416
160
-48
-432
48
64
-112
256
192
-192
-192
128
496
336
208
80
-144
96
0
464
464
288
176
208
144
48
-16
-128
-288
192
400
-32
96
128
16
-352
-144
-32
-80
-48
192
176
64
-224
-80
64
256
208
-96
-240
-512
-208
-176
-240
-128
-192
-32
-16
448
192
288
-256
-384
288
176
-224
-128
-368
-144
-160
160
336
304
112
-384
-352
-224
560
-192
-208
-160
-576
-272
-336
0
288
112
352
80
-176
-144
160
176
48
-256
608
480
-448
-512
-80
-528
-128
272
-224
-48
80
160
-48
-256
64
160
224
-288
64
432
496
192
240
-160
-640
-400
-432
-144
128
464
352
-304
-512
192
272
-112
208
-112
128
-192
192
96
-416
-256
-256
-16
208
0
240
16
368
160
-272
-240
32
0
192
352
-144
-16
-160
256
192
-304
-112
-336
0
272
-32
16
96
-144
64
-32
272
80
48
432
592
336
-128
64
144
256
400
416
32
-144
-80
-320
-240
-128
-192
-48
-64
-64
-480
-272
224
336
176
-256
-272
-160
-176
-64
-80
-32
-272
-496
96
-208
-592
-160
-192
-368
-256
96
560
32
32
-176
-192
96
-48
-208
-432
-80
-64
-48
-80
48
208
48
-48
80
-176
-48
-288
160
304
352
-144
-96
336
448
-16
32
-544
-144
240
384
320
32
336
464
-144
32
32
-48
-176
-208
96
176
0
-560
16
-320
208
256
448
656
32
464
192
176
-128
-576
-320
64
128
400
256
-384
-160
208
-16
-336
-112
208
-352
-208
224
-256
-240
16
-352
-128
-496
0
176
-560
-256
208
-320
-768
240
192
48
16
-288
-288
176
-272
-240
144
224
-176
192
128
-96
544
-240
32
-144
112
-480
112
160
528
384
-240
-80
-160
288
528
208
-96
304
176
-128
-336
160
80
-416
-176
16
96
208
-224
-304
-528
-400
32
-64
96
0
-176
-272
128
-160
96
-16
-288
-160
-272
-96
208
-32
112
144
-32
-272
352
368
720
480
64
432
32
-208
224
48
-112
48
224
592
432
-96
16
224
-208
-464
-256
144
112
288
704
448
192
432
-80
-144
144
80
448
176
192
176
-288
-96
-80
80
-128
-64
-128
-48
-80
-432
-304
-96
432
208
352
112
-320
-320
-64
-272
-928
-560
-32
-176
16
-64
400
304
-16
-128
176
208
32
-336
-16
32
-80
128
-464
-528
-16
-16
-336
224
464
448
416
-304
176
-96
448
448
64
64
336
-112
-352
-288
-368
-192
-96
128
-112
0
-272
-48
16
32
-144
-240
-400
-464
-272
-336
-272
-144
-336
-416
16
448
336
-96
16
368
32
-272
-544
64
448
16
-432
-240
-656
-208
64
400
80
-64
192
0
-544
-448
-304
64
-80
224
-448
-48
272
240
176
-400
48
96
-240
-96
288
80
-176
192
-96
96
176
-208
-208
16
192
208
304
-144
-80
-160
32
-144
-112
512
208
-64
384
416
112
448
464
256
-176
-384
-192
128
64
-176
-352
-288
-464
288
48
-96
256
80
16
192
0
-304
192
-32
-128
-16
-80
192
48
96
192
32
-464
-784
-416
-224
-64
192
-448
-224
-416
-496
0
208
128
80
-48
128
48
-208
-32
96
240
-16
-784
-336
224
240
-304
0
-48
-416
-304
-96
-48
-320
-128
64
-96
-176
512
32
-144
528
400
304
64
-32
-32
16
96
240
400
624
160
-416
112
-192
-256
-16
-208
-112
80
-48
224
144
-192
-224
48
64
0
-448
-272
-160
-448
176
64
256
208
208
-96
208
96
96
672
64
80
0
464
192
-112
-208
-320
-480
-272
16
16
-208
-416
-160
-208
160
-304
80
144
48
-464
-16
0
-112
128
528
256
400
-752
-352
-144
96
-368
-432
-336
-272
-448
32
-496
32
-224
80
0
-80
496
608
-16
128
-16
144
160
336
208
144
16
48
-128
-240
-16
-96
-336
-448
-80
80
208
192
-240
-336
112
-128
96
416
528
192
288
-192
-272
96
336
0
-160
432
64
-192
-352
-480
80
80
528
32
144
96
128
176
384
144
-48
16
144
16
0
-208
-112
-32
-96
-128
208
272
-48
-176
-32
112
208
112
-256
368
640
336
320
528
640
528
192
240
240
16
-224
-64
16
-16
-512
-464
80
96
-48
-80
-256
-144
16
-176
-160
240
80
64
256
256
496
-304
-48
-224
-256
-496
-480
-320
-64
-144
32
-224
-144
160
-176
-176
-48
400
176
-192
-80
-336
-224
-48
288
48
224
352
-160
-96
-320
208
128
272
528
720
368
128
0
-192
16
-320
176
-272
176
416
144
432
336
240
-352
-96
-176
-208
192
-128
48
-128
64
464
-96
-96
128
-384
-144
32
368
160
336
-80
-224
176
480
256
112
-64
-688
-320
-368
-416
-304
96
-48
-64
96
-416
-288
128
640
304
320
-272
-384
-272
-64
416
560
272
192
96
128
-32
0
656
528
-224
-304
-384
-592
160
496
272
128
160
368
112
-48
-176
352
224
288
288
-112
-304
-352
-96
-128
-320
-128
-192
-192
272
304
48
224
192
528
304
96
496
16
-48
48
-144
-16
-192
16
368
720
304
160
128
-240
-256
-368
-304
48
256
-96
112
272
-48
-96
400
160
0
-448
-272
-208
-256
80
-256
-240
-368
-608
-240
288
208
128
192
-48
-240
384
288
-64
32
16
-32
-512
-96
-464
-416
112
-96
-416
-256
-80
80
192
-704
-496
512
16
352
464
-128
0
-480
-240
96
96
256
48
-192
-240
-560
-224
416
-128
-496
48
-144
-144
-144
-256
192
288
-208
-288
-192
-256
-464
-64
656
144
112
256
-160
144
16
112
432
144
-64
-304
-208
-64
304
624
-128
720
832
320
128
-224
-64
-144
80
192
-48
-80
-160
-112
-496
-576
-160
-96
48
784
512
272
-16
480
336
-160
-224
-48
-304
-144
64
-16
352
464
160
-224
-192
-288
16
272
224
-160
-336
-64
512
848
-160
-624
-64
432
64
-624
-544
128
160
-528
0
160
0
-144
-160
-80
-96
-448
288
0
-752
-912
-160
0
-352
-272
-160
-80
128
832
336
-304
-240
128
304
272
656
336
368
704
448
-144
-32
-128
32
-192
-448
-16
-272
-256
160
448
352
-320
128
224
-272
-224
240
-64
-144
192
208
352
736
304
-288
256
192
304
272
368
64
160
240
16
-144
-272
240
96
16
-144
-320
48
-80
224
176
32
112
-272
-176
144
224
-336
16
-96
-368
-384
-176
-224
-304
-288
64
-128
384
128
-320
0
32
128
-352
-224
-48
-400
64
80
-384
-64
-208
224
144
464
160
160
80
368
96
-192
112
96
160
-864
-528
-32
-80
128
288
256
-80
112
176
384
0
-368
-112
-144
384
368
528
32
-496
-32
112
112
144
16
48
-176
-512
-144
-112
-288
-96
32
480
448
336
128
64
320
512
560
-144
-416
-224
-256
-48
272
144
80
48
-240
32
496
-80
384
800
704
48
112
-128
192
48
96
256
336
448
-224
-480
-256
-256
80
-368
-400
-16
464
128
336
576
576
192
192
-80
-400
-80
-16
688
368
-96
80
80
-272
0
480
-16
-224
-528
96
-240
-336
-112
384
672
96
48
-336
-496
-160
96
736
816
272
0
256
224
-400
-64
240
-112
144
64
96
32
-416
96
336
576
368
-304
112
528
224
224
32
-80
-144
-320
-144
-112
128
-160
-304
240
304
0
656
-64
288
-96
0
544
272
176
208
464
272
-128
-160
560
304
-80
272
448
256
208
-576
-416
-208
-80
16
-144
80
-48
64
-32
-80
528
128
-400
-384
-112
304
160
320
16
-48
-352
-320
-320
96
240
208
368
-384
0
160
80
-528
-560
64
160
-880
-16
32
-176
-224
-160
-384
-416
-80
-416
-16
608
192
-224
-400
-400
-80
96
-48
-80
224
304
144
16
80
208
-160
-144
-400
-272
-160
-160
32
96
-112
-80
-192
96
96
-672
-656
48
416
432
208
192
32
32
-176
-304
-560
-304
-480
-304
0
-224
32
-80
-352
192
224
64
-16
-384
0
-240
432
832
-48
176
80
192
384
224
-352
-544
160
336
0
-160
-560
-320
80
-112
80
-32
544
-48
-512
-256
-368
-256
-32
32
-224
-352
-384
-176
112
16
512
512
-160
-96
-240
16
-144
-224
-64
0
304
-32
144
496
256
112
176
-304
-912
-112
-224
-224
-368
16
464
288
-128
0
-64
-352
-224
-480
-64
288
240
80
-144
128
224
-416
-304
-432
-352
-272
16
112
-352
-480
-48
-144
-560
-496
112
-64
128
-112
32
32
-400
-304
-192
112
176
-160
-208
-64
-192
-496
-400
-464
-320
48
112
-144
-64
-112
-96
336
288
-352
-240
-352
-352
240
192
-192
-448
-192
32
-544
-384
-400
-128
-208
-144
192
384
-208
-400
80
-112
-112
-352
-352
-288
-176
224
64
32
-112
272
352
-128
-112
160
-208
-64
32
368
768
-192
-192
256
240
128
0
-176
240
416
496
-80
-304
-672
-320
384
384
-160
-176
-32
288
-48
-192
64
240
352
208
352
288
-528
-624
96
144
160
368
-240
32
-144
16
-16
-64
176
336
112
-240
-192
-96
112
-192
-288
304
0
-192
0
-272
32
-176
-224
-544
-304
272
288
-464
96
-400
-576
-384
0
-80
-384
0
224
-96
-224
-96
-96
144
-64
-288
-672
0
144
-16
-688
-224
-64
64
-192
128
80
-16
256
0
144
656
384
384
80
-320
48
128
128
0
-448
-160
-320
-224
-320
32
368
112
-176
48
-112
80
192
112
-160
-160
-400
-112
0
128
96
-160
-192
-336
-704
-416
96
384
-96
160
96
-256
-416
-192
-144
0
-112
-32
16
272
0
-208
304
320
-64
-256
-80
-528
-272
-16
-176
48
80
-336
-992
-112
-144
-480
-224
256
-208
-128
64
592
784
144
-272
-288
-32
-144
-624
-384
240
-64
-416
-736
-336
-48
-304
-96
-304
80
432
288
272
704
224
-96
176
-176
-400
-240
80
432
80
-160
32
-400
-160
-224
-416
-336
400
624
320
592
160
80
176
128
-240
-592
-128
592
128
96
272
304
160
160
-16
-96
336
352
-112
-352
-240
-144
32
-80
-256
-144
-272
-256
80
-16
608
576
240
320
592
32
-192
-48
64
496
160
208
208
-32
128
-192
-400
-480
-32
544
352
176
-352
-544
-400
-320
384
480
-32
64
144
-256
-528
-352
-224
-96
-144
-304
-160
80
368
32
272
-96
-336
16
-160
-272
-272
-416
-240
272
-16
-16
368
240
-48
160
192
-48
-416
-208
128
64
16
128
240
-144
-352
-160
192
32
112
-368
-32
144
192
-112
-128
240
384
16
560
240
272
-208
-416
-144
-352
-160
336
16
512
976
128
-176
-128
368
448
-80
-144
-560
-496
-464
48
0
-848
96
208
352
0
-208
-544
-384
32
32
-272
-208
-160
-192
-80
192
416
272
304
-112
-432
-224
208
112
512
256
-64
-416
-80
160
-320
-192
432
400
48
320
128
-208
32
192
32
-176
48
208
-144
-288
288
272
112
-144
-256
448
128
-80
-160
-160
-256
-384
-624
80
272
-176
-144
352
32
80
176
384
624
64
160
-464
-16
368
128
64
0
16
64
432
304
-304
-224
-192
-128
320
320
544
-80
-224
368
592
-96
-64
192
-112
-16
-160
-240
-480
128
-336
-288
-208
32
592
144
-288
-48
-528
-288
-384
-624
-784
-272
256
80
96
368
-64
-384
-336
-496
-192
256
128
-528
-304
-336
-288
176
560
144
16
608
416
-176
-144
-368
-352
-16
-96
224
352
80
32
32
-16
224
288
160
-48
48
400
192
80
96
32
-592
-272
112
-32
-432
-512
-32
-128
16
-224
48
192
512
176
256
-272
-336
112
128
336
304
352
144
-336
-304
-352
-16
160
144
224
256
208
-16
-144
-80
48
16
-128
-576
-464
416
544
384
48
144
800
640
-16
-64
208
128
-432
-368
288
304
-112
-64
-592
-144
272
-16
-240
160
-80
288
240
400
-16
0
192
-320
-128
-224
-592
-16
-32
-400
-32
608
0
-384
-352
-32
256
304
-160
-288
-400
-384
-160
-448
-32
144
-48
-592
32
288
368
-64
-240
336
-96
-640
128
528
256
-192
-528
0
-416
-128
336
272
-144
48
496
784
-16
-240
304
512
544
224
-48
112
96
192
272
-64
-32
-80
240
528
96
-384
-48
-352
-16
480
400
128
-208
-128
352
448
0
192
432
320
64
496
432
80
256
672
528
128
-80
-224
-384
-448
0
-224
-16
176
32
576
160
160
-48
560
528
16
48
320
544
128
96
144
32
-80
-592
-480
-192
-112
176
-112
-400
-384
-240
-384
-208
-336
-224
-256
-48
-144
80
80
-32
-192
-480
-368
-32
48
-336
208
-112
-192
-144
192
304
400
256
192
-160
-272
-192
-528
-432
224
272
-64
-112
640
192
-320
272
-80
-448
-256
-336
-32
16
112
-32
-400
-224
224
32
16
576
96
-432
-144
128
-288
-272
-128
224
-80
-48
-432
-128
-176
-208
-416
-256
80
464
288
304
144
64
-128
32
-320
-128
-80
240
16
-304
-592
-160
384
16
16
224
416
144
0
-576
-32
-160
112
16
-96
16
160
704
640
368
80
64
-176
-16
-144
-496
-416
-192
160
400
416
-32
224
16
-352
160
64
-208
-384
352
48
-128
-224
272
544
-80
-416
-96
240
-416
-224
672
256
208
-48
752
400
272
256
-96
128
-112
-448
-208
576
608
-96
224
224
-48
320
-64
-368
-608
-560
-32
368
304
-144
-416
-464
16
352
176
256
208
-480
-656
-544
-384
32
-96
-736
256
-384
-336
368
256
32
-112
304
240
-224
-288
-640
-32
304
192
336
144
-64
368
304
80
240
208
-544
-432
-48
544
704
384
144
16
112
464
-192
-144
208
160
192
144
16
-128
-448
48
-144
-48
320
304
-336
16
-64
-336
-48
336
288
272
688
688
256
-144
-240
-16
-144
144
16
-112
-112
352
736
-192
32
64
-16
-272
512
288
-368
384
64
-112
16
-32
64
-256
-320
-16
112
112
-16
-112
80
208
16
240
592
-16
-144
-192
-400
48
240
-112
192
-304
-208
-288
-320
-368
-352
-320
-432
-656
-656
-224
256
288
-336
-432
-400
240
144
-432
48
240
-16
-352
-208
-544
-480
-240
-336
-112
16
-16
0
48
80
160
-128
-80
-192
-192
-80
208
256
-320
0
-176
-368
-224
0
-64
-256
272
-480
-48
-80
-576
-384
-80
-432
-528
-416
16
688
368
-208
-432
-144
-400
-352
-176
-352
-272
-752
-416
224
208
48
-16
-32
-48
160
-112
-32
432
-64
-176
-208
-16
288
288
-208
-480
-128
112
-560
-384
-240
144
384
240
256
0
304
128
256
192
48
-16
-368
-144
-208
-480
-160
224
-208
-96
192
0
112
448
-32
-160
-112
-256
-208
608
304
32
-176
-416
-240
-80
-368
-352
208
-16
352
-64
-80
-32
64
32
-112
-32
128
-224
496
560
0
-720
-448
336
768
640
-176
224
-16
-368
-432
-608
-336
-400
272
32
480
16
-368
80
64
208
112
-624
96
-80
224
96
-96
-128
-528
-336
384
624
-80
-16
-96
-160
400
-256
-400
-352
336
64
-192
-80
512
400
-336
-160
-256
-256
0
-224
-16
240
-304
48
-96
-560
-320
272
-16
-208
368
464
-80
64
112
256
112
256
48
-496
-240
-96
0
384
320
-32
144
176
-160
-240
-272
-208
-192
240
144
64
-240
64
256
368
272
320
208
96
32
464
272
128
64
32
48
-272
320
192
48
48
96
96
144
-224
-32
192
-112
96
-176
-400
-176
-96
-224
272
272
-160
-192
-176
80
16
-432
-288
-208
-272
-368
-64
-208
-400
-448
-336
112
256
368
-32
-352
-64
-160
48
-448
-96
-192
-96
304
-144
-160
128
80
-128
-368
-624
-64
0
128
-128
608
-16
-448
-272
-16
-272
-48
144
-384
-640
-384
-16
0
-304
-192
448
208
208
-160
-576
-368
-304
-272
-112
32
320
-80
32
0
320
480
384
-304
-288
-160
-192
-368
-592
-608
-160
-400
-80
-288
-448
-448
-256
-496
-64
48
-256
-288
256
336
208
256
-192
64
-64
16
368
-16
-96
16
576
624
144
80
144
32
-224
-64
256
432
-304
-192
528
128
240
400
128
224
32
384
112
16
-320
-192
-128
-48
384
240
-48
-144
-288
-272
-304
176
0
-176
-16
-160
16
-192
-112
48
336
624
752
240
432
-336
-704
-384
-368
160
752
48
288
-416
-272
-272
336
496
160
320
-176
16
-192
160
-32
0
-272
-448
-256
-448
-80
272
16
-368
-384
-16
-208
-128
-32
336
16
-48
560
-48
-48
-160
-688
16
-96
48
336
256
400
400
48
-32
160
512
0
432
176
0
-320
64
320
-144
-176
-608
432
-32
-208
480
-96
-320
112
528
144
-48
0
304
144
-272
-480
112
32
-48
-96
240
192
48
384
80
96
192
384
-176
-256
-320
-416
-560
-80
272
-304
-336
-464
-384
240
48
144
128
-224
-528
-608
-192
240
-304
80
-16
-144
736
80
-32
32
-208
448
416
64
96
-272
-320
-160
-16
224
800
144
224
416
-256
-96
-64
-224
144
592
336
672
80
144
352
544
16
-48
-208
-96
-288
-368
-176
144
64
-128
-128
512
832
208
-320
176
432
432
-176
-64
208
368
336
336
272
688
368
-192
-192
128
-208
-176
-208
32
256
528
816
-144
-80
-352
32
96
-448
0
496
-224
-976
-608
-192
368
480
-192
-80
128
-496
-208
-512
-448
-288
-96
-112
-272
96
-32
-16
240
0
16
64
-416
-256
288
240
-112
304
-96
48
112
-384
-352
112
304
272
576
160
240
176
32
-400
-352
-416
112
256
128
128
-448
-640
-304
-48
160
48
0
464
272
-16
464
720
464
0
-176
-224
-288
544
96
-16
-448
16
-304
-368
-416
-480
-160
-144
336
336
-288
-192
-272
256
384
-400
-400
0
-16
-224
-464
-736
176
640
112
-432
-208
288
-384
-304
-160
-80
0
-96
-32
-240
-80
256
544
224
64
416
192
-240
-96
128
160
-96
-112
576
848
256
544
624
144
720
624
576
-64
-192
384
464
-64
288
-64
-64
48
240
256
80
32
-320
-400
-64
0
-736
-528
80
112
96
-160
48
-720
-304
448
352
0
720
64
-144
-640
-480
-96
-96
-192
224
384
448
224
704
448
304
-64
-112
-16
432
112
-288
-80
96
0
0
-176
-432
-240
-96
272
352
32
-416
-416
624
784
224
240
64
-320
16
-144
112
0
-176
256
464
0
288
48
-320
-512
-480
-128
-432
64
464
288
112
-128
-320
160
384
64
-64
432
352
96
256
192
-176
-480
128
-224
144
-32
128
-128
224
576
-96
-336
-624
-432
48
-80
160
144
-48
-112
-368
-192
32
432
80
192
80
208
-96
64
-64
-320
-256
-480
16
224
144
352
128
112
288
416
32
176
448
480
688
624
208
0
-96
256
-320
-432
368
112
-80
16
-304
384
192
-80
48
-160
-320
-912
-304
400
320
-304
-256
-176
-224
48
-32
64
-272
-128
128
160
-144
-528
-608
0
-64
-16
80
-672
64
-32
-80
224
-144
-32
192
-16
16
64
208
160
0
400
752
32
-112
160
64
-96
176
176
608
192
-64
0
256
304
384
-160
-80
-64
384
16
-240
-112
-224
-496
-640
-368
-736
-464
-256
-32
64
96
-96
-208
-528
-528
320
304
176
288
-432
-16
128
-496
-464
-528
-176
112
-368
-512
-448
-608
-96
-400
-272
-16
272
-128
-592
16
0
-144
48
-96
-352
-112
0
80
-112
-176
304
320
-128
-240
-16
-64
32
48
-176
160
-176
-160
176
496
464
32
-80
48
-160
-48
176
208
832
400
-368
-288
304
32
-256
-336
-96
160
-48
240
480
112
-240
-288
-32
0
112
-336
-80
176
16
64
16
96
0
-64
-96
-160
208
304
-64
160
560
-592
-368
-96
-80
-288
-48
256
160
304
-48
32
-176
528
-16
64
-32
-176
16
-16
-224
0
-112
96
-96
-96
-368
-224
-272
-128
-32
-464
-96
-208
-64
-240
-432
80
-64
96
656
448
448
112
-352
96
224
192
304
112
-400
-96
64
-48
160
48
224
-64
-208
192
-176
224
-352
64
512
368
-240
464
400
352
16
-80
-128
-160
-160
128
464
-80
-144
0
64
0
-16
592
448
464
544
80
176
-64
-144
368
-192
-432
112
-736
-224
32
96
-80
32
160
576
-48
-112
-64
128
-240
32
192
432
-384
-224
80
-48
0
-288
160
368
-16
96
-272
-320
-16
-176
-240
-32
16
160
-400
-240
224
48
-80
160
-96
-720
-128
112
208
-288
-128
160
-640
-176
-432
448
336
0
288
-32
-368
-256
-640
128
256
-112
0
96
384
416
-320
-64
-336
-96
-192
256
160
-80
-112
-16
-64
288
112
-384
-48
-80
96
48
240
-480
-144
-272
-48
64
224
-448
-608
-400
-496
560
-192
-272
-160
128
-736
-384
-16
-368
-272
0
448
272
400
144
-224
-336
-320
-736
304
-192
-224
-32
-64
-368
-528
-592
-496
32
48
-432
192
592
240
448
576
112
-48
-336
-304
-208
-288
-400
-48
64
336
-304
-336
-320
-256
48
592
384
-272
256
224
-48
-336
32
416
-288
64
-96
-240
64
160
32
320
-32
-112
112
0
-512
-144
80
240
-240
-16
352
688
368
496
368
240
96
208
-336
-176
176
-80
48
304
64
-96
-256
16
-16
-464
-496
-208
-192
-32
-336
-192
-208
-32
336
464
32
-112
-272
224
160
-240
-416
-400
16
64
560
-144
-304
-304
-304
-80
352
64
16
496
-416
-848
-64
-400
-96
128
448
160
-192
-160
160
16
-480
-208
192
144
336
336
-336
-592
144
64
480
176
112
272
240
-368
-32
176
432
432
384
80
-448
-496
208
192
0
-304
160
592
640
32
-96
-80
48
368
-80
272
336
224
0
96
-208
160
-112
-144
-112
-64
-320
-272
-240
160
48
-96
112
-16
-208
-32
-240
272
176
48
-320
-640
-336
144
-96
128
176
-240
-144
-464
416
384
-272
-240
-368
-496
-352
-576
-672
64
288
80
-208
-64
16
192
624
16
-336
-448
-592
-352
-208
144
480
240
-192
16
176
-368
-224
-16
-176
304
384
80
256
368
-224
-208
32
-448
-544
-512
-368
-224
352
-368
-560
112
304
304
400
-32
160
464
-96
-144
448
0
-176
368
-112
-96
112
-80
80
96
-336
-176
224
320
32
128
304
-192
-176
224
368
384
-96
48
384
592
-16
-112
240
-96
-32
144
48
-384
-128
-304
128
336
416
-64
384
176
-208
-176
-192
-240
-144
384
352
16
256
480
288
-128
-288
-400
-288
352
272
192
-272
32
80
32
352
64
-16
-288
80
0
-240
-176
-208
-16
704
848
192
16
-528
-352
-304
-48
144
-16
-48
256
0
-144
-400
-208
128
-80
480
320
-48
160
480
256
-112
96
-368
-272
208
-96
96
-96
-288
-352
-96
80
96
-272
-112
-240
-688
-208
128
-320
-480
304
624
-96
-64
224
-240
-320
-16
352
176
-304
-48
-80
-112
-160
16
48
-112
112
480
272
-64
48
-432
112
-304
112
192
320
32
-112
-624
-432
-448
-112
16
464
-48
-64
720
288
-96
96
-48
-400
-352
336
384
96
-160
-336
-320
-432
-160
96
0
-160
-128
-288
-352
-592
-96
-64
-368
-208
544
352
-96
-320
64
32
96
-128
-240
224
480
464
416
400
16
-16
-240
-240
-208
-240
-208
80
32
160
-32
-176
48
-176
240
-32
384
496
-64
-224
-576
160
-208
-432
-320
96
160
272
-304
16
80
480
336
-160
-288
544
480
160
32
-240
-416
-32
160
-192
-192
-32
112
448
240
-176
-336
-560
112
-560
-304
-416
-176
-240
-368
16
-16
-672
-528
80
-128
-224
288
-240
-544
-128
272
864
688
112
112
-320
80
464
528
-80
-480
-496
-16
-32
576
512
-272
-272
448
208
288
48
-144
-80
32
64
320
80
64
-240
112
368
176
32
48
448
32
48
-144
-320
-560
176
208
-64
0
80
16
-304
112
208
-32
128
-112
-96
-144
-304
-352
-400
-272
-496
-336
-192
144
160
-304
0
224
-32
-48
80
-160
304
-240
464
672
432
256
-96
16
-144
-176
-128
-560
160
-416
-112
-224
-480
-528
192
512
-272
-336
160
176
320
-496
-480
-96
144
368
32
-352
-544
272
464
192
160
560
64
80
-32
64
-336
-160
-112
-192
80
-112
16
224
-160
336
336
0
336
-64
64
-176
288
320
-112
128
704
144
240
224
112
400
-416
-160
16
-80
0
176
-96
-112
80
-144
-112
208
272
-384
-272
16
160
752
16
-224
-432
-208
288
48
272
128
240
352
288
64
-32
-32
16
-128
-400
-560
-240
-144
288
-240
384
816
112
-48
368
464
352
-192
-512
48
-176
-336
-64
192
176
512
96
480
-32
-384
-80
320
272
448
288
304
368
-112
160
96
160
-48
288
-192
48
-304
-384
-560
-432
400
-48
-208
-64
64
64
-112
-272
-336
96
480
32
176
-192
-272
-176
160
-176
-496
80
-96
-320
64
64
256
96
-32
400
32
-256
-720
-512
176
304
288
0
-624
-416
-208
-112
208
304
-240
0
-288
448
-16
-528
-368
-272
-288
-496
-608
-128
-80
-208
-192
32
96
320
-48
-560
-64
192
176
-96
-272
-128
0
-160
80
192
-208
-496
-16
-32
-160
496
128
-144
-608
-16
-336
-352
-256
-208
-64
32
-64
-112
-128
64
80
576
672
288
32
144
128
-16
-256
-336
-336
-432
-592
-496
-240
32
96
-224
-336
64
-32
-192
-160
-64
496
-112
192
-96
-128
320
128
192
384
-320
-192
176
176
176
-80
-304
-256
-32
-32
-176
320
64
224
48
48
-64
-352
-304
-80
-256
16
-512
-208
128
-64
-384
-128
320
192
416
304
-144
-720
-640
112
432
752
272
80
-192
-160
16
-672
-592
-176
-240
-256
-288
-80
32
96
-336
-464
16
80
-64
-352
144
-112
-112
-128
-448
-96
48
640
368
192
448
-80
80
0
-208
32
-64
-128
-256
-304
-96
-224
0
32
-144
-176
-96
-272
688
112
-416
-96
-64
-96
-48
-160
240
144
320
304
64
-192
192
208
64
0
16
192
-96
-448
96
32
144
0
-368
96
-464
-432
112
0
160
-176
-496
-336
144
32
-128
16
256
0
-48
224
-64
64
128
-48
432
1312
240
-640
-192
-112
-32
0
96
608
432
80
192
608
464
112
128
-352
-224
0
-112
400
352
512
80
160
272
-256
-304
-464
-256
-224
192
128
-128
-80
-208
-112
272
320
-112
-112
-176
-160
-96
0
-112
64
-112
-336
-704
-672
-144
-320
-336
-320
-48
64
-224
-96
208
288
304
224
-208
-624
-288
-336
0
80
352
32
-96
-256
-304
-352
-480
-160
224
544
448
64
-240
-112
-480
-160
176
96
176
160
352
80
-192
64
-96
160
64
-144
-48
-64
-112
-80
-304
-304
-112
160
320
-192
-320
48
-16
0
-208
400
160
-496
-320
272
-32
-448
32
48
-464
112
16
-352
432
448
272
256
144
-208
-384
-320
16
176
304
-48
-144
-416
-416
-336
128
-16
-48
256
-208
-224
-240
-272
-560
-128
96
272
-16
-32
608
320
-128
-64
-400
304
176
-448
16
288
-368
-528
-224
-144
-96
-160
-192
-448
-48
-208
-496
-192
192
400
112
160
-304
-368
-464
-176
-400
-336
144
-336
-400
-384
-48
32
-224
-224
-32
-256
80
240
496
-16
0
-288
-464
-224
16
400
-320
-64
-208
-32
512
624
64
176
-48
416
-224
-416
-368
-336
-352
-128
80
96
-32
96
-272
-688
-384
-32
-1008
-544
-256
0
-240
-32
-160
-224
-336
96
560
464
800
160
256
528
784
112
-352
-304
-288
192
224
-32
-704
-256
-288
176
240
368
-256
128
-80
-496
-336
-64
-608
-528
-416
16
112
-32
-16
0
-272
-128
-112
256
-128
-384
48
128
304
-48
208
-320
-576
-240
128
496
240
480
-16
400
-448
-208
544
976
32
384
544
256
432
144
48
112
-48
176
336
640
112
-160
-224
-272
-400
64
80
-96
368
512
400
-144
-160
-176
32
448
128
-64
-304
-224
-464
-336
-176
240
192
320
-16
0
560
256
48
-16
-64
-304
-32
-96
16
368
-496
320
352
0
-192
16
144
-32
-496
-496
-240
-176
-16
128
-448
-272
384
-304
-160
-256
-208
480
64
-64
16
192
-32
-304
-64
448
496
336
96
256
-224
-80
-304
32
0
176
256
-32
-512
-16
128
256
64
-272
16
112
-32
-288
-64
-144
192
464
-112
-848
-480
-480
-624
-512
-288
192
432
-144
-608
-240
176
96
320
224
-208
-304
240
-96
-144
16
144
64
-176
-576
-272
-736
-384
-176
-336
288
448
288
368
-320
-288
-544
32
-16
-272
-160
144
176
272
-128
-144
-256
-208
-368
-176
-208
64
352
928
0
-32
160
256
-336
96
-80
-384
-384
-480
-432
-288
80
-352
384
176
16
-416
-848
48
496
272
-112
352
64
96
208
112
80
-64
-528
256
48
-128
144
192
160
-288
384
32
16
-144
-128
368
-368
-304
-256
48
-496
16
-64
-288
192
176
144
176
-496
32
-16
-224
384
48
-288
-368
-272
-192
432
880
368
144
0
-496
-960
16
0
192
96
32
-224
-80
256
-112
304
272
384
736
448
96
208
-80
128
608
16
-336
-192
-192
-208
-80
-112
240
-160
-112
-256
-304
192
-144
-528
-272
-160
176
-32
368
240
384
336
-48
480
208
352
48
-384
-272
128
128
144
368
144
-16
-160
-272
-128
-352
208
208
176
-176
-128
-160
-144
-384
-48
176
192
-160
112
160
368
-640
-528
-96
160
224
-48
0
0
32
32
16
-160
-496
-64
-496
-192
400
32
-624
-336
-112
-80
-272
16
-192
-224
272
352
-16
368
480
656
-16
-352
-160
-208
96
80
320
416
160
-80
320
-208
-288
-288
-432
-16
352
272
560
112
-288
-528
-112
-304
-624
-240
0
-32
-208
-16
544
336
176
320
752
176
-224
-320
64
16
416
560
320
112
-336
-352
144
400
160
0
-32
-272
-208
-112
-96
16
-16
96
128
-96
-112
48
320
384
-336
-272
48
208
272
448
384
-64
-272
-512
-240
-288
-272
208
-208
0
-64
464
432
-160
-144
-128
112
-592
-208
464
400
-240
48
192
112
64
384
112
-208
-192
-224
-464
16
96
0
-192
-336
-16
176
288
48
240
352
272
-48
-400
-176
128
-48
-496
-256
224
288
160
-32
0
-144
256
-64
-336
-176
160
368
448
224
160
400
288
-144
-352
-176
-128
64
176
448
400
112
304
368
320
-112
0
-208
112
160
192
32
80
-96
432
0
-192
-176
-160
-208
128
528
240
-304
-176
32
96
-560
-192
-256
-368
32
32
32
272
64
-272
-400
80
464
288
-256
-176
-576
496
368
-208
-224
-288
-464
-320
-48
-96
-208
240
144
-16
48
368
336
-336
-240
-144
592
528
-256
-400
-208
-304
-96
16
-48
112
320
144
16
-64
128
368
160
96
48
-240
-112
-64
-320
-176
128
-128
144
224
-96
-16
304
-32
512
192
400
336
-144
-176
384
448
800
480
-272
-128
16
144
-144
256
160
-16
560
512
32
496
224
400
-128
-336
-304
-48
-96
-608
-160
512
336
224
16
-64
-112
-64
384
48
-96
-288
-704
-848
-160
256
-48
-464
64
128
-256
-192
-416
-48
32
-624
-288
0
0
448
608
448
320
-304
-432
-16
-64
-304
-64
-192
-192
-320
80
448
-80
-288
160
64
0
64
-208
-48
-144
256
-96
-16
-64
144
-64
32
96
-144
208
144
-336
-96
240
144
624
512
400
-320
-448
-112
-176
512
448
-544
-80
304
256
-384
-288
-288
-656
-96
48
-304
-544
-528
-464
-480
-80
-144
144
-96
96
128
32
0
96
-528
-528
-400
208
-176
192
160
-320
-544
0
192
48
352
32
0
32
-96
208
-96
208
208
-32
144
-288
-112
-16
-400
-192
-192
-160
224
-176
-112
-208
-432
80
-176
-112
160
-96
-304
160
-176
320
176
-176
384
272
112
-272
144
304
16
272
160
-432
96
-192
96
0
-144
208
-112
32
240
80
96
-32
-160
112
192
256
-192
-32
-192
32
-368
-176
-64
64
96
848
864
-64
-128
-288
32
256
-64
-256
-400
-32
-32
-32
544
272
144
-144
-464
48
192
-16
-176
-224
128
-16
208
-224
-704
80
368
320
64
400
64
-160
-144
352
176
-304
-64
-64
80
240
208
64
-176
-96
368
528
240
-144
-32
256
-96
-272
-528
-304
336
16
96
-80
-80
-416
-480
-592
-192
80
48
80
304
224
240
-144
-560
-48
192
64
-16
-112
-112
16
-160
-96
-240
-336
208
64
256
512
0
-80
64
416
144
-352
-32
48
-80
208
448
128
48
-448
-208
-160
64
-128
560
544
432
128
-864
-768
-112
192
-80
-128
-240
32
-368
-176
256
96
224
816
16
-192
80
80
-352
-336
-304
-144
-96
-400
48
448
320
-112
128
64
80
272
288
528
-112
304
144
-208
112
272
-192
-80
192
80
224
304
144
-192
-128
-528
-160
432
656
688
-144
-16
-112
-384
-304
-80
-704
-544
-80
-112
208
304
48
0
-16
256
432
672
656
384
-384
64
16
-96
-672
-256
-288
176
416
0
-400
112
-96
-208
-304
-64
-112
592
512
112
48
-48
496
368
-112
240
432
16
208
656
-32
-464
-256
528
432
320
416
208
64
32
320
208
288
544
32
-144
16
96
-176
80
-80
272
-208
-64
176
-48
-256
16
16
-624
-16
208
64
-32
256
336
16
304
0
48
368
-224
-576
-384
240
672
352
-96
-352
176
144
-16
-128
-96
-192
-672
-32
80
-32
-208
-384
-272
-240
-128
-160
-416
16
-144
-240
-512
112
-368
-736
-96
656
320
528
960
608
-416
-544
-144
480
304
-144
-224
-208
-32
-240
208
496
128
-224
-384
-608
-256
240
0
-256
-160
0
48
-16
-368
-112
-304
-48
-144
256
496
448
80
320
-48
720
816
-272
-192
-368
304
304
352
-32
-80
-272
-48
-96
-240
-64
-112
-400
-576
32
-48
-112
-192
-128
-80
272
-80
-64
-144
-144
192
256
304
368
80
160
528
336
-160
16
128
-160
-528
-448
176
-144
-64
-224
-368
80
32
-560
-320
-432
-160
-336
-512
-320
16
-192
48
112
-144
16
-480
-528
32
320
32
-128
-112
-192
464
0
-192
-160
-176
208
80
-272
-64
144
400
448
-144
-32
-112
224
432
640
608
448
432
80
-112
80
208
-80
-128
496
544
592
368
-32
-48
-432
-656
-256
-80
-672
48
368
-208
-448
-256
368
688
288
192
96
176
160
-32
224
-144
208
592
480
208
-384
48
-304
16
240
240
336
-192
-16
-304
-320
-544
32
160
224
-272
304
-208
-368
-144
-544
-256
320
368
144
272
-304
-672
-464
304
288
-336
-128
-48
-16
16
-112
320
48
-64
-176
128
368
-32
-16
240
176
48
-384
64
176
0
0
224
208
304
-96
-208
-320
-176
-16
-112
-192
16
-128
192
48
416
432
-336
-416
-368
-160
160
288
-64
-192
16
-256
64
544
240
48
256
208
-48
272
-208
-272
176
64
-192
-320
144
144
112
-48
-64
-112
-64
336
-112
-192
64
-128
400
368
-48
-64
32
-448
-528
-128
-64
304
320
368
-80
96
64
-240
-48
160
32
144
288
384
400
512
176
-112
-64
80
272
176
-160
-256
-32
80
16
16
208
112
-416
-80
-528
-528
-208
-224
-560
-288
-192
-272
-560
-528
-304
-288
-256
-144
-304
144
320
224
464
32
160
80
-352
-96
304
-448
80
-224
-400
-64
128
240
64
-224
32
-384
-368
-16
-48
-272
-48
384
288
-80
-48
0
-176
-32
256
192
288
208
208
384
80
512
224
-224
-400
-608
-32
-240
64
-160
-272
0
-272
-192
48
-176
-304
304
144
-240
-240
112
384
544
544
304
-256
-64
224
-64
-336
-592
-208
-144
-480
-208
80
-160
32
320
128
-144
-112
320
448
352
-176
64
464
224
624
-112
-816
400
-112
-464
-256
-192
-288
80
-288
-192
-32
-224
-80
-240
144
96
-368
-592
-16
272
736
-48
160
16
-160
16
-176
-16
-272
-480
-432
-176
672
512
0
528
96
-336
-176
-272
144
560
320
240
272
16
192
160
64
-208
-288
-256
-176
304
80
-528
-208
144
288
480
128
-112
64
-80
96
-32
-32
-320
-80
160
640
48
-608
-528
-272
-160
-32
-48
80
176
80
96
-32
-192
-176
96
656
-192
-32
544
480
-192
-176
-256
64
48
-384
-112
48
-48
-176
-704
-848
176
512
384
384
576
208
32
-96
304
112
-144
-112
16
-64
-224
-128
608
208
-128
-16
528
-240
-128
-144
-336
272
-224
-416
-272
-304
-16
-32
-64
-432
-272
16
208
464
704
-240
-496
288
256
96
80
592
80
16
80
0
-144
80
-288
-128
-16
-32
-208
-80
-112
-128
-384
-336
-128
-240
-32
-96
-288
128
288
192
144
-368
-224
112
192
176
192
32
192
288
-96
-192
-16
-96
-416
-464
320
-192
-352
-128
176
-80
96
336
-224
-304
-112
-112
-256
16
288
16
16
-144
336
256
224
-16
-160
-96
144
80
240
0
-368
-64
-160
32
-352
-352
80
320
176
-240
112
0
192
-176
112
-240
16
80
-192
304
256
608
-384
-512
-48
-224
32
-64
-32
448
288
464
288
80
80
-80
-304
240
432
128
288
208
192
176
-144
-240
-176
304
-144
64
128
304
464
64
-16
-224
-80
-160
480
528
416
96
-400
-64
-320
16
-128
400
64
-512
-48
640
432
-48
64
256
-96
-128
-64
-144
-496
-48
192
96
-160
0
320
112
-144
-16
224
512
544
144
208
16
16
-64
16
256
-80
-192
32
128
80
272
256
-208
-48
-48
-128
-400
-496
288
160
-32
160
112
-32
-112
-560
-352
-64
640
720
-16
-272
-272
-96
-400
-112
-112
-336
-16
80
-112
-112
176
32
304
256
-96
-192
-320
-256
-48
-128
-208
16
496
336
-400
-624
-656
-592
192
496
112
224
160
-64
-160
-144
-160
112
304
16
208
-288
-320
-224
16
208
640
224
-336
-272
-736
-848
-16
-192
-96
-48
96
112
368
-32
-256
-48
-416
-208
432
-48
-560
-32
288
160
-240
-96
368
176
-256
-256
-416
48
0
-48
-160
-112
16
-160
-288
-160
128
144
-176
-80
16
-256
-480
-64
-96
-80
-224
-112
-128
-176
-128
-112
-560
-160
-176
160
32
224
176
224
144
176
-352
-256
-464
240
32
-480
-336
96
160
-352
-528
-352
160
160
368
368
208
-432
-288
144
320
32
-224
-64
464
-80
-128
-240
-80
-80
-176
240
112
-128
-256
144
320
48
80
144
-176
144
432
176
-304
288
432
256
224
144
368
496
-272
-192
-96
-112
-368
-48
144
-240
208
64
192
48
352
272
-64
-80
-352
48
528
16
-80
-48
160
256
-240
-144
-208
-96
-96
-128
208
528
240
432
224
-288
-272
80
496
240
-48
-128
192
32
208
-96
-416
-112
176
352
304
-16
16
384
528
480
272
448
240
-256
-320
208
-64
176
-32
32
-160
304
-272
368
464
400
272
384
-512
-368
144
224
368
-368
0
320
0
192
-96
-288
-96
-16
-656
-304
-64
-80
-96
-16
128
-96
16
16
272
672
64
0
-272
80
96
-192
-288
-64
128
112
-320
-544
-480
-272
-128
592
80
-400
-336
-64
176
-272
-416
-480
96
384
320
-176
-608
-304
96
576
176
-416
160
-192
-640
-448
-192
336
448
-192
368
80
-400
208
720
48
80
320
-80
-128
208
80
128
-48
0
464
512
752
208
80
0
-96
-208
-480
96
-16
272
304
-96
272
208
-224
-208
144
160
0
384
592
-192
-208
-256
-48
496
240
128
-240
224
-208
-144
304
96
144
-208
-432
-320
240
112
-400
-432
272
-416
-448
-48
-16
240
160
224
192
208
336
-160
-256
-48
48
240
560
448
-208
-512
-512
80
-208
-224
224
160
32
384
160
-416
-416
-192
96
144
-32
-112
-80
-512
-64
576
-96
-16
-64
-320
-400
-272
-640
-544
-416
-288
-240
-256
-272
-256
208
112
32
0
208
320
-464
-240
272
16
-384
112
16
64
288
-32
64
-64
-208
-512
-112
32
-208
-32
-32
-80
208
432
-256
112
256
-176
80
144
-16
-80
-112
32
-48
-384
32
96
16
-128
-256
-208
-240
-304
-16
112
240
-240
80
192
272
16
-160
0
144
384
-416
-656
-368
-336
176
80
-512
-416
80
368
80
-400
-112
-704
-272
96
80
-240
-256
80
-192
-176
-128
-208
-32
-64
-224
128
16
288
352
-112
-32
-32
288
-80
160
80
-640
-368
-496
-256
-400
-32
-32
256
-80
-688
-416
-240
16
304
640
-64
-112
-208
400
496
-112
-480
-624
-464
-432
-400
-192
-256
-512
-208
80
-384
-288
-544
-384
64
16
-48
-80
-192
-64
-48
-608
-64
-16
-320
-256
-208
480
304
16
-192
16
208
112
16
96
96
-48
-368
-224
80
16
-432
16
256
-16
128
-48
32
48
-224
416
-64
-128
-48
-208
224
464
176
480
272
112
0
-48
-80
-144
64
-48
896
496
176
80
176
-256
-160
-656
-240
-208
336
-16
-32
224
-144
-656
-96
160
-736
-368
576
272
-544
-176
48
-560
128
160
224
96
-304
96
480
464
160
64
416
400
-144
64
-112
-336
192
32
-48
272
208
-96
-304
-112
384
224
16
448
544
112
-144
80
-384
-256
16
-80
240
608
592
448
160
448
368
320
224
208
-16
384
272
160
80
112
352
-624
-672
-192
64
64
400
336
-64
32
80
512
352
128
-512
-800
-208
16
-32
256
-144
96
-320
272
496
800
256
64
-320
-320
-256
-528
-192
48
256
512
336
128
-32
48
384
208
-80
-272
-64
-400
112
304
272
-64
-352
-528
-592
-112
0
-112
-48
208
-16
-48
-304
176
240
432
288
-304
576
352
-96
-64
0
-320
16
-112
-32
-16
336
48
-16
-368
-272
16
368
64
-80
144
176
-640
-416
32
560
400
480
80
-64
304
640
96
-384
0
336
-208
-256
-144
-368
96
-240
160
128
144
256
-16
-192
-368
-16
128
320
464
208
-96
-192
0
-240
304
320
416
240
32
288
336
-320
-64
-160
-288
-496
-336
32
144
320
-96
176
176
192
224
176
-80
-240
-544
-208
96
-192
-128
352
656
240
208
336
352
80
-592
-288
336
-16
-112
-352
-80
-272
64
-192
208
48
-208
224
240
192
-272
224
160
688
208
480
80
-256
-288
-432
240
-80
-336
160
-96
16
784
848
0
-560
48
-112
16
-256
272
384
-240
-32
320
176
240
256
-240
-224
-640
-96
304
288
-64
672
544
-64
-320
-48
-160
-560
-368
-432
-320
-144
-288
304
368
368
384
304
192
-192
-128
112
-48
128
80
128
-48
-96
304
368
-400
-112
448
128
240
480
-160
-272
0
-352
-624
-288
432
208
-176
208
96
-16
-256
-240
-272
-224
-576
384
192
-160
32
-112
-320
-64
528
560
-400
32
544
416
128
32
-64
-208
-304
-256
-256
368
32
-144
-48
-96
-528
-240
256
-16
64
0
-96
-80
160
-224
240
496
144
-16
-320
32
288
-224
-336
-256
-160
0
-368
192
80
-32
-96
-96
352
48
-192
-192
16
32
-48
-320
-80
-80
32
-16
512
208
-288
-192
-48
-288
-160
-176
-176
-80
-48
-160
-32
336
32
-384
16
-448
-64
128
-32
-272
-240
-384
320
0
16
-320
-192
160
16
-304
-304
-448
-400
144
272
432
-160
352
368
-64
320
64
-128
64
-576
80
-448
-416
-320
-752
-400
-288
0
112
-400
0
128
112
64
320
448
-512
-224
112
32
-48
400
480
-384
48
-80
416
320
-80
-80
-128
32
-96
-288
-304
-288
96
48
-112
-16
-416
-16
-128
528
288
496
240
-320
-224
352
112
128
-240
720
416
-80
-64
-272
-480
176
272
192
-288
-64
-176
144
-160
32
-512
-160
320
160
352
-160
48
416
416
128
-304
-336
288
96
-432
-560
-112
-48
-224
16
0
240
480
768
144
208
-16
-80
-224
112
-112
16
192
464
656
400
112
320
432
256
-32
-416
-336
-304
320
-160
-16
320
176
432
144
48
240
304
-80
192
320
48
16
-192
-192
32
32
416
-176
-368
-96
128
384
-192
176
0
112
176
224
-112
304
480
112
240
-96
-448
-128
-224
-96
-128
-240
112
-272
32
-192
-320
-48
-208
288
-96
352
144
400
-192
-784
-336
-96
-48
-176
160
-352
-560
-288
352
-224
144
32
-32
144
160
112
-208
-192
-320
96
208
224
-368
-256
-160
192
192
192
-112
-48
-160
272
32
-16
-80
-464
-48
-96
-80
-256
-64
-400
-480
240
144
-288
-336
-160
-144
-112
-144
-336
-208
-336
-96
624
208
368
-192
-240
48
128
288
-96
-128
-80
-48
16
-320
-208
48
112
16
-96
256
256
-80
-144
-160
-144
-256
-480
-144
-96
32
256
-32
-384
-224
-416
-208
-64
16
-112
-128
224
384
864
384
96
-80
-208
-144
32
-64
-64
96
-256
-160
144
-256
-80
-16
176
128
-16
112
32
-96
256
400
400
-48
144
-320
-336
512
688
0
304
-80
-336
480
64
-704
-112
32
-240
-448
144
-208
-320
-128
-96
-128
-160
16
-208
48
224
240
224
-384
48
336
416
416
48
160
-32
-416
-432
-128
224
304
48
-416
-144
160
-16
192
144
0
-368
176
-352
-496
-176
-304
-336
144
160
96
336
576
560
288
-32
-208
-48
0
-672
-320
288
-16
96
80
32
16
-16
-288
64
128
128
-96
128
-64
480
112
144
368
336
-128
-368
-272
-128
176
-352
224
368
240
128
368
160
144
-272
-512
-224
-64
0
-368
-272
128
160
80
-160
-448
-80
-128
96
160
16
-224
-400
-320
128
0
16
-32
-192
160
80
-16
464
192
80
-144
-224
-384
48
-80
-112
-272
448
1008
272
-304
-240
448
480
320
160
368
576
336
304
208
176
512
-176
96
-160
-128
-288
-160
-176
128
288
64
112
176
-16
-128
-144
224
208
128
-224
-80
-208
-288
128
-144
-208
-64
16
576
432
-224
-48
288
-144
304
-112
-176
-176
-64
-144
240
544
288
-48
128
-128
0
0
32
-368
-288
-32
352
592
-16
480
176
-448
-192
32
96
272
256
-336
-192
-112
-496
208
48
592
496
-576
-352
112
96
272
-48
-128
-16
144
64
112
-16
160
256
912
-16
-688
-256
-32
-176
-224
-704
48
288
64
-336
64
-96
-176
144
80
-272
-192
160
160
80
-64
-48
128
-160
-624
-176
-304
-288
-416
-64
448
480
368
16
-368
-448
128
-80
192
304
448
384
0
-240
-192
480
336
-736
-784
-432
-384
-224
-224
-352
-592
80
448
32
208
224
0
-384
160
-16
-96
-176
160
448
320
32
-624
-432
112
416
32
256
176
96
-592
-448
-96
224
-256
-224
-48
224
288
-304
-512
-16
-160
-48
-688
-448
-208
-304
-256
192
640
448
-272
-96
-16
304
336
-32
192
0
336
416
512
160
-256
-128
-64
112
-128
608
144
-608
-448
192
-144
0
240
80
-112
-128
-80
-144
-256
-624
-528
-48
16
-80
64
-240
-512
64
272
-32
-304
-208
-96
-464
-400
-128
96
272
256
144
64
0
400
144
-352
-288
304
80
32
-208
-304
-272
144
-352
-320
-240
-16
-304
96
128
-112
224
208
272
560
496
272
96
0
336
368
208
64
-80
-96
128
-48
-288
16
-336
-32
-304
208
48
-128
224
192
144
-192
-304
-64
160
16
224
-32
192
176
64
64
-16
80
144
48
-48
-176
-512
-400
-176
-192
80
-112
144
288
96
-160
128
-240
320
16
576
256
400
144
240
544
-224
-528
-16
16
80
-336
-304
160
528
32
64
-240
-368
-112
-320
-448
128
-16
-336
80
-48
-144
-272
-528
-224
128
80
-576
144
-16
-608
-384
416
-240
-288
112
288
-64
32
-48
192
-32
32
272
-400
-240
144
-240
-432
352
336
-128
176
912
240
-176
112
384
96
272
544
48
-352
-128
288
256
-288
480
208
-208
-112
-144
-16
-160
208
608
32
112
112
-96
-144
176
-176
-16
48
80
-112
-384
240
-384
-240
240
256
432
384
-240
-384
224
288
-128
-432
-64
352
352
208
-256
352
384
-240
-256
592
496
336
-16
256
32
-128
64
432
80
-368
336
176
176
-32
-144
-368
288
-144
-64
-240
-176
208
-48
80
336
496
-96
-32
80
-448
-448
80
128
736
144
256
-16
-192
416
288
-48
-96
736
448
448
176
-192
-448
-112
-160
-288
-256
-320
-176
384
320
64
432
208
0
-160
304
48
-160
-192
-64
-160
-416
224
176
48
-48
-336
-448
-192
304
112
-288
-336
-240
320
544
-96
-352
416
-528
80
80
176
320
-224
-112
-48
416
-256
16
304
80
-64
240
624
-304
-32
288
-48
-624
-624
-224
-208
-560
-16
80
-48
-416
-256
-480
-336
-256
0
496
-80
96
-256
-304
-176
176
576
128
-384
-368
-480
-256
144
640
256
-464
-144
-416
-272
0
144
64
-32
208
176
112
96
0
32
176
336
480
304
-224
-192
-80
176
288
176
-240
48
-208
-192
-160
-80
80
-32
80
0
-64
-96
224
16
-224
-96
-160
-224
336
192
224
160
-16
320
304
16
336
-48
-48
-96
272
-192
16
80
-96
-112
-240
496
80
32
416
-48
-448
-192
-32
48
48
352
112
-592
-816
-752
-560
176
-208
-416
-304
-192
192
-160
-176
496
-112
208
-288
-496
-384
-96
-336
64
336
16
-400
224
400
336
48
-544
-208
-240
-480
-544
-160
64
96
416
480
144
-240
64
496
304
16
-144
-288
-480
-192
144
352
32
-192
304
48
-272
-144
-432
272
208
-240
-272
-224
-144
-240
-64
224
352
576
80
64
144
-272
-16
-96
-240
0
192
-320
-112
272
16
-96
-80
224
-288
-288
320
64
-160
-208
-192
-416
272
304
32
96
-112
-304
-432
-176
-352
352
448
16
-64
-240
-64
288
688
848
-16
-336
-144
240
320
-48
96
160
320
32
-96
80
160
96
144
-16
-496
-368
-752
-736
-848
-464
-512
-304
-176
16
0
96
-128
192
-64
-336
-64
-32
-192
-272
160
16
128
208
-16
-160
-128
0
-480
-288
-176
-704
-544
-512
96
-16
16
16
-560
-752
-160
96
192
-160
80
96
224
-144
208
-448
-400
