-560
-1744
-1120
384
-896
-864
-368
-864
-112
80
-112
-256
-656
944
544
-1120
-1120
784
160
-432
-528
-512
576
-272
-272
-192
-48
-1072
-16
240
-240
160
-832
-1280
-960
-736
432
-848
-624
-320
-144
-560
480
352
16
960
1040
-16
-704
-752
1184
-192
-144
-64
-880
-272
592
320
-1360
-768
-144
304
736
-304
-432
-928
208
-32
1136
1808
528
320
-352
-1072
-272
-480
448
1328
896
16
528
256
-256
-416
208
240
992
48
448
176
512
48
-256
96
128
432
448
-336
-224
16
-400
1152
1472
480
208
-880
-960
-1216
-1136
-576
-1136
144
-544
672
-688
-976
80
-224
-448
-1168
112
-1040
-832
-928
-1216
-864
1008
864
1104
288
-288
-256
208
1056
-224
160
-912
-336
1504
784
-128
352
-304
-896
-640
-1664
-1680
-656
400
720
976
1488
832
-1136
-784
816
672
-544
-768
544
32
432
-128
-32
-192
-752
-688
-64
-848
704
1632
672
80
-368
176
-416
96
-112
864
832
400
-160
592
1072
624
-704
-800
320
288
-560
144
-1184
-592
-784
-832
-656
272
-1168
-896
-192
176
368
96
48
544
112
-32
-928
-304
-720
80
-208
720
480
272
384
-384
-144
560
752
592
416
80
512
-96
-768
1280
672
-1120
640
928
-1168
-32
1184
224
-464
-1232
-544
-1008
384
64
-496
-896
512
864
336
624
544
-496
592
304
288
992
112
592
608
1280
176
-448
0
-1248
-1328
272
1472
-48
736
-240
16
768
-96
208
816
800
-336
256
512
-352
800
736
640
-624
128
-672
-208
288
880
368
368
784
-880
-1728
-640
368
1184
896
112
32
-864
144
-1008
-96
-800
-672
-928
752
-592
-1232
-512
-112
288
-128
-688
32
928
-704
-800
-400
-736
-240
-624
928
1728
656
-48
1024
1872
128
-704
-128
-656
-912
-64
-48
-656
752
-96
-624
448
-352
-384
-464
-672
-672
-304
-128
768
816
1600
688
-16
-448
48
-784
-2016
-784
-496
-64
144
-960
-768
176
784
368
0
-160
-96
448
736
192
-688
224
656
544
-512
160
576
320
768
256
1120
-528
496
1280
64
-160
464
-128
-368
-736
-1664
-240
-336
-560
-176
-480
-160
128
-448
96
-384
-1120
-1152
-1024
432
800
-352
992
-16
-1040
1296
-48
-896
672
-768
-976
-48
768
960
-112
-1264
-208
960
1360
-112
-1200
-432
416
464
32
-224
-528
464
-160
-544
-64
-912
-640
-272
-288
-880
-1136
112
1024
80
-656
-608
304
720
496
768
512
-80
-464
-272
672
-176
240
256
-48
-1232
-144
-640
48
608
-656
-816
928
496
-16
-528
704
128
816
1888
464
912
384
-48
432
1632
1536
624
32
1248
464
-128
-352
272
80
-816
-1104
-256
-960
-464
288
-320
-416
-336
-224
-144
848
1392
384
64
-432
-384
-32
-1008
32
1168
848
560
1264
768
-944
-64
-592
-608
-720
-80
512
-112
-224
304
736
944
192
848
560
336
80
-752
-816
-912
-464
-48
-816
80
1344
1056
640
48
-288
-1408
-368
400
-144
-576
-976
-912
0
-192
-32
704
496
-80
-320
880
1408
-128
-720
-528
-240
-1440
144
912
-112
-1200
112
-320
-1056
-400
-1584
-1440
64
560
448
-816
-976
-352
-16
0
48
512
288
960
736
-208
-288
352
1040
432
704
-240
-432
-800
-464
-448
-800
544
336
608
-288
-384
-176
1296
128
-560
-160
80
-64
-896
-224
432
-544
-304
-272
-688
-1152
-736
-704
-1584
-304
-528
-384
-608
240
800
368
-80
320
1728
-320
-1984
-112
864
672
528
-304
192
-704
288
-128
240
240
208
-48
-656
32
-1104
-1744
-1856
-496
-80
704
-512
-928
-1120
144
-448
384
928
368
352
720
432
256
-128
-432
384
96
1248
1312
784
976
208
416
256
-96
-320
320
544
-464
64
-288
-448
-288
624
112
-144
624
688
864
-400
-80
272
1424
1120
512
-384
-1280
-640
208
928
-400
-368
48
-976
-1312
-816
-320
-160
16
432
-480
-624
-768
-560
64
304
-96
-320
-944
-1712
-256
-1648
-1152
-800
-224
-480
368
-288
-960
352
512
800
224
352
256
688
-448
-560
800
0
-240
-1136
160
1712
1680
1904
816
-1520
-640
544
-512
-1472
-1360
16
-1600
-1440
-224
160
-848
-1248
-672
-240
-112
880
304
-912
-64
-1392
-1424
736
976
464
48
224
-320
336
-256
-848
272
432
0
-256
-688
-1616
-592
-336
-592
560
768
1712
1440
1104
480
32
-976
-384
784
736
-336
16
-16
16
192
-80
-704
-560
-176
-240
112
-16
544
208
-144
-528
-624
256
880
1264
-176
-736
-1616
-1312
-208
-272
-560
464
288
608
-128
-608
-800
0
560
1312
80
-160
-64
-352
448
-96
-32
-96
-400
-624
-656
-288
-848
-800
224
112
240
784
-240
-416
-288
1024
480
-432
-576
496
1024
16
-48
-400
48
-752
48
176
48
-1200
192
-720
-848
-416
912
-720
-992
-608
544
400
-208
160
16
1152
-928
-752
-512
96
480
0
-592
-528
528
-128
640
528
-400
320
-688
-1280
-256
-320
144
208
496
576
368
688
592
752
-400
64
-176
-336
432
-96
752
-112
-416
-704
-288
-96
-848
464
192
-448
-1680
64
320
-304
-688
-1440
-112
960
1456
368
-1296
0
-80
992
800
1568
1152
1408
1600
368
128
736
304
-464
-2048
-1440
-656
-384
-448
-208
528
32
-96
208
-64
-272
128
64
-352
-656
1008
960
608
128
272
1600
144
-112
-64
80
464
16
-480
-400
-240
1456
48
544
48
-48
256
432
1168
48
288
-624
-560
-96
-336
-384
-400
-896
-880
-384
-496
-496
112
-912
-224
-640
-112
128
432
128
1664
1456
304
16
1840
896
-160
-464
-544
-944
-880
288
624
64
480
32
912
-368
-304
240
-768
512
1472
-160
672
-592
-672
0
1264
-128
-992
-624
-656
-1056
-912
-224
-1616
352
720
-832
-640
-208
752
592
-528
48
784
672
432
1824
848
-1600
-176
848
80
-672
432
1488
32
864
-400
-1088
928
1312
1184
496
592
448
-416
832
1408
176
-16
0
1216
1456
1760
-32
160
1136
784
496
-288
-432
-32
1152
64
-1024
-1488
304
-1056
-224
1600
912
-416
-512
-1120
304
1008
-960
16
-336
736
48
-688
1008
-160
-112
-1008
-896
128
608
-656
192
608
928
816
304
656
-1008
768
688
-1600
-768
1056
1104
416
1216
1696
800
240
-32
-1040
-192
-432
800
128
-224
-512
240
960
688
672
112
1536
1168
128
-608
-128
-768
848
1744
784
-176
480
208
1152
-624
-880
-400
1184
736
496
-224
-304
-304
-1872
256
144
-144
240
64
256
528
-432
-848
-896
-384
768
-32
-1200
-976
-576
-912
-736
-48
-16
912
960
-688
304
432
32
-832
-1200
-1328
-528
-1920
-1152
336
1296
1552
832
288
400
272
112
-48
-608
352
-80
-64
736
320
-160
1264
688
-528
640
848
688
688
16
-208
-880
-608
-368
-240
352
1040
672
688
-96
352
1040
1360
768
224
-1088
-128
-336
-176
-992
-1328
96
-624
-304
-1568
-256
-528
-192
544
512
976
32
-576
-1040
-976
-768
-160
-240
-560
-320
688
512
-704
-448
-320
1008
784
1040
688
-496
-816
944
-16
16
-528
-176
-32
112
-1056
-288
240
512
320
96
-304
400
384
-416
176
784
160
-1136
-304
400
944
416
-928
-944
656
-416
1056
96
-592
-352
272
624
496
-48
416
1120
448
-240
-96
-80
-304
-704
-256
176
560
-224
0
-96
-576
-480
608
912
192
-944
288
272
336
720
-112
976
368
-16
336
16
336
16
272
-736
32
1056
400
-112
0
528
320
-512
-1072
-880
-912
-816
-320
-1344
-1936
-800
-608
-800
-944
-160
-256
-1296
-1136
-16
112
752
560
-640
80
1408
368
-320
512
528
736
1168
272
-944
944
-208
-336
144
720
0
-1184
-416
-256
-1168
-432
-1072
-928
-1152
-64
-112
-960
-1120
720
-192
-448
-656
-480
864
768
-672
80
496
96
656
-1488
208
1264
784
1328
576
-368
-1568
-1504
80
80
832
512
-320
-832
-1072
384
-848
-1264
-720
-1504
-976
-1136
-160
-272
-1312
176
1472
-960
528
-272
-288
272
848
1088
-528
-1392
-1024
-1376
-1488
-1296
-400
-320
-368
-128
-160
560
-96
560
-304
112
1008
768
816
288
-432
-128
240
1408
960
-752
-368
416
-1120
0
464
128
-112
-176
-400
-160
144
-336
-992
-272
-416
-1040
-528
448
640
-48
256
-768
-1168
-768
976
384
-736
-1056
-576
-1024
16
-368
-720
32
-544
-544
-336
-704
448
464
368
32
-576
-496
-640
784
304
-176
192
16
-1552
-80
-752
-752
-496
-416
-800
-96
448
576
-512
352
848
-640
416
672
240
-32
-64
800
416
-400
-480
-272
-192
1008
1872
1232
-1152
-1536
-192
384
48
-256
-224
-1120
-1152
-1536
-576
-656
-496
-32
-160
704
48
752
-16
-1008
-208
272
288
-704
96
-432
-128
304
336
768
1632
672
-864
-1376
-976
-608
-592
-608
96
944
192
816
-656
-16
-272
-960
-656
-400
-608
32
752
-288
1248
320
-272
256
864
16
-672
-48
880
992
464
192
912
784
320
1152
1040
-32
-912
-544
-512
448
-48
-640
288
-608
768
688
-240
832
1712
400
352
48
-624
-992
1104
1104
-1360
-1504
-144
800
1072
624
-240
-32
-976
16
-720
-336
-1024
-1568
-624
-896
-224
-1360
-896
-928
384
-656
-1424
-1008
-1104
352
1584
336
-656
-208
1504
1408
-352
-656
-1344
-1632
-1056
-176
96
848
112
-656
-656
304
-528
-160
-144
-992
64
-400
-1120
-576
544
1760
608
-192
-464
592
64
-128
384
1008
672
320
-496
-864
288
-208
464
336
128
-48
320
480
-480
224
-160
-128
-1168
-656
1072
1328
-192
-80
800
160
256
-560
-704
64
48
800
464
-1008
-416
208
784
-32
48
1120
624
128
-192
-112
608
560
128
-144
96
-256
-1696
-848
-944
-656
48
-1488
-656
-848
-608
-816
-560
304
400
848
1088
1056
16
-608
224
688
176
-480
592
272
480
528
560
800
528
64
-528
-752
592
-528
-1200
-576
-224
-768
-592
-400
-688
1104
-896
-32
-576
-896
-816
720
1264
-192
16
416
-448
-928
-32
1232
1264
1536
1328
-112
448
416
144
-208
-1360
-80
560
448
1312
688
592
-896
-704
-512
-80
944
144
-304
-368
-640
-208
848
-112
-544
-288
416
784
528
-192
96
416
320
144
-192
16
-1008
-304
-352
-96
480
80
-752
368
-64
848
1392
1328
624
768
-384
-1024
-912
880
592
-496
272
-1216
-976
816
432
-464
-1408
-656
-896
-864
224
320
-768
640
208
-1328
-1808
240
1312
784
1168
512
32
128
-288
96
-480
144
992
464
1056
256
-496
624
848
-208
-176
-704
-512
-272
-512
-48
1120
880
1328
480
1360
1120
48
176
80
496
288
544
656
624
0
816
640
-304
-1696
-704
1008
-224
-352
-416
368
192
-1152
-688
1984
-16
-32
1136
176
624
352
880
-192
-64
-1056
-720
256
528
-208
-512
-848
-1056
32
-288
-256
-32
-656
128
-352
528
96
-832
16
-320
-256
-464
-1696
-784
-336
-1088
144
16
1472
1040
64
-816
112
-240
-176
-1248
-624
-672
-592
320
96
-208
-64
-480
0
544
-448
-528
496
496
-352
-608
48
-128
528
-96
784
144
464
64
-1232
80
128
0
368
400
672
144
-400
256
-320
832
-992
-816
272
-640
-736
-256
256
-256
512
1216
1184
128
-224
336
-832
368
-432
1152
1168
224
1088
1056
2032
1280
864
-1104
-112
1808
576
256
800
720
1296
-96
1024
-96
256
736
1360
752
-688
0
-176
-432
48
784
1344
400
-560
720
976
-400
-624
864
-368
-880
-592
-800
1072
1376
560
0
-432
-400
640
512
688
976
448
272
48
-256
576
384
240
-240
-1216
-1248
-2000
-560
-16
-240
-288
400
144
64
96
1344
464
-352
272
256
400
848
736
96
-192
1008
704
16
688
-304
-496
-608
-800
-1232
-80
640
-144
192
640
-832
-400
288
864
1120
336
-368
-1184
-736
-448
-240
-384
320
976
-672
48
-448
-128
384
1360
1296
352
784
1152
1584
768
-208
-768
224
1344
-384
-624
-320
304
1152
992
352
688
960
736
320
720
-736
-944
-304
-592
-240
32
320
800
416
288
48
448
256
-640
-32
-32
-1136
448
-48
976
1168
560
-288
1216
544
-816
-1200
768
368
208
1136
-16
-80
-480
-320
192
192
-688
512
-784
-576
-864
-672
-192
832
1104
320
112
1040
272
1120
-272
-1184
-240
-144
208
800
608
-448
-16
-1088
192
-16
592
-1248
32
-208
-528
-1552
-96
352
368
688
464
336
-288
-1280
-976
-448
-1072
-1968
192
32
288
320
416
384
336
448
176
-48
32
-624
-1024
-480
-32
-320
-688
1008
16
-128
1456
288
16
176
304
-112
640
-416
-1216
-656
464
928
304
2000
208
-336
48
-256
832
496
-928
-416
-576
208
432
640
-448
320
-192
-144
1280
992
864
128
-544
-1168
-1264
-1344
-16
64
-272
-48
-192
880
-480
-544
-1840
-544
176
976
832
-624
272
-64
-352
144
416
288
-112
480
-304
208
464
960
336
-1184
-848
-80
-672
-768
832
304
-336
-16
-112
-384
-512
464
-304
-288
-32
1104
-64
-672
-368
-416
256
-160
-752
432
-688
272
-1424
-752
-512
-720
160
624
-320
-688
-1728
112
-32
-160
-368
1040
736
-1120
368
1456
368
496
1280
32
-1024
-272
-880
544
-112
-32
640
688
784
80
-1488
-848
-880
-880
-432
384
1232
1120
-208
-16
416
-256
64
-656
-96
-368
-992
-944
-32
-144
-592
-320
-160
48
-32
-1776
-464
-48
-976
-1520
-240
64
-368
-96
368
-368
-272
16
16
656
464
400
-368
128
1248
-96
-1136
-704
-48
752
1264
640
256
704
-96
-320
112
672
-528
-400
48
-1216
-784
160
448
-192
-1088
-736
-768
-912
288
-640
-448
-1344
-1584
-976
-16
256
400
224
-976
-416
880
-816
-1008
-928
848
-816
-992
400
-240
-640
-864
176
1488
816
592
-64
-192
32
256
576
880
864
-512
-32
-928
160
32
-1072
-1712
-992
-32
-624
-592
224
-48
336
352
1072
1216
224
464
32
160
-832
-1040
976
544
-112
256
416
-384
-592
-896
624
-32
832
1616
784
1232
1824
800
-848
-384
-64
-352
128
464
448
-576
-1584
-288
112
-1536
-48
-352
-560
-1008
-480
-96
464
624
352
0
480
448
1408
768
992
560
-368
-1008
-800
816
272
1248
960
-512
-272
-1296
-1712
96
-64
-1104
-736
-208
368
-272
496
928
1040
288
32
-144
176
944
560
944
384
736
-208
-384
-304
-528
16
80
-368
1168
448
976
1104
-160
-368
-448
1056
592
-160
-256
-48
416
-624
-384
368
288
144
752
1440
352
432
848
1696
1120
1104
16
624
176
480
288
1488
320
1216
144
-464
464
192
-448
-672
-928
-528
656
-304
832
1728
816
-416
720
-480
128
32
704
320
-144
-656
-144
704
-352
192
-112
-656
640
1200
896
-624
-512
560
944
-160
256
-1824
-816
208
-1296
-1712
-608
-32
464
1232
1120
-32
816
400
448
528
656
-528
-816
-608
-880
48
304
608
288
-432
416
-224
0
448
-656
-1216
-384
-608
144
576
-928
-816
-832
336
-272
64
496
-592
-336
-608
352
-672
-800
432
-480
-736
-256
-80
-160
320
-128
576
352
512
512
672
1008
352
272
1120
128
960
320
-240
48
1168
1216
1264
464
-1104
-512
-1408
-1904
-1536
-720
-304
-112
128
-272
-1072
384
80
-480
-64
320
320
32
-480
-96
-1104
-1152
-192
-208
32
592
960
-512
-608
432
-416
304
-64
368
-176
1056
-432
-1392
-624
-912
176
208
864
368
-16
944
1008
128
-1216
-1104
1536
944
-272
1392
-560
-416
48
384
448
784
144
240
592
464
16
-656
-64
-1120
352
1344
992
128
0
-784
-960
-176
224
160
1760
432
-1456
-1488
-736
-800
-256
-960
-1104
-672
-544
-640
256
32
672
368
240
128
768
-176
-208
-800
0
1216
-592
-880
-80
-128
-672
-864
720
320
800
-128
-1120
80
864
-720
496
1232
480
-128
48
656
288
1168
272
-800
-800
-304
-1024
-320
752
1936
-160
-1280
-208
272
592
64
912
1024
608
-816
-1264
224
-816
-320
208
128
16
448
-672
-720
560
944
-80
-720
-496
-48
416
-480
-864
-208
-512
368
560
1120
640
912
1200
704
1632
-208
352
880
672
-352
-688
480
528
-288
-448
496
80
-1664
-352
-608
-224
-688
528
-384
-368
16
672
-256
-576
-672
-160
-784
400
-304
-176
-144
1264
544
1056
240
784
-192
272
576
-768
-240
-16
-592
-848
352
784
1056
240
-688
-544
0
-96
400
-288
-1696
-1840
-464
-224
-96
160
400
96
-928
-1504
192
-480
512
48
-816
-336
288
496
-144
112
624
1408
592
-640
176
208
240
656
240
-432
-624
656
416
-1440
-1440
-320
-112
-96
-256
512
1344
912
848
1264
288
608
-240
-1040
176
-592
512
1104
272
-1680
-912
-784
864
800
352
-624
-304
384
-304
-1152
-48
896
-96
208
512
320
144
-176
-320
-192
400
-208
-528
320
1360
400
464
144
720
208
1136
-1200
-304
-160
-976
-592
688
1152
256
1264
960
448
-112
-864
-448
-176
-1920
-1728
-800
-736
-816
688
224
864
544
-1024
-1552
-1808
-128
-1008
496
544
1120
688
-576
-32
-64
1088
-240
-432
-704
224
624
592
-160
-608
-800
-112
224
-400
160
-576
-32
432
80
-1120
-960
48
-912
-288
-720
288
-560
-816
32
624
-1456
-928
-592
-624
-400
-144
-128
1184
1312
1408
-832
-1824
576
1408
992
336
176
1248
1088
640
208
-656
400
-128
-496
1104
0
-1232
-592
-336
-144
-176
464
96
768
464
320
-448
-1040
-672
-1168
-432
-1136
528
16
-864
-1040
-1392
256
1264
480
672
-64
672
-480
-1088
384
656
1488
1088
624
48
-384
432
1056
1472
1760
144
-176
-1280
-368
800
304
-848
-672
352
432
-368
-176
-528
736
512
-336
848
912
-48
-320
-144
32
-112
-400
-176
384
384
480
-1136
-640
112
-752
-400
864
1584
160
-672
-512
-352
-416
-352
-192
1104
-112
944
-224
-480
-1312
-1584
-304
224
192
-128
592
-240
-672
-320
-864
-560
112
-1296
-640
-80
-976
-928
-208
-176
-576
-432
-704
-2000
-976
752
592
304
704
720
384
144
704
-48
-464
-1280
112
48
-64
-944
-112
32
-624
-448
-704
-464
-112
-528
-352
80
64
-480
-224
640
224
144
-864
-1216
-688
1088
480
432
-32
-96
224
304
112
-704
-496
-416
16
144
-992
32
560
176
-400
-288
-432
-1184
-832
384
1072
1248
912
-48
-192
-768
-208
-176
-240
1264
1552
368
-1088
-944
1024
944
-880
-560
-240
-1312
-48
176
992
352
-432
288
1600
976
1024
640
352
304
240
-688
-576
32
-144
-736
-80
816
832
960
592
400
736
928
-448
96
688
1248
256
352
-240
-608
256
304
-1056
224
864
304
-16
144
576
-656
-1120
-1136
-816
656
1088
-352
-608
208
832
592
-384
-288
-288
336
-320
-1664
-1184
144
864
400
64
832
560
-48
-80
-240
-1152
-1152
624
48
-32
352
1008
560
224
1808
672
-1680
-640
-240
80
-416
-240
832
336
-80
-464
288
-272
-208
752
704
1232
1312
896
96
256
-64
576
-208
464
848
368
256
192
32
-448
-352
960
192
192
464
288
-352
-160
224
-144
-176
-384
960
480
1216
1248
768
112
160
-608
-1504
-1232
-1104
-208
-512
176
272
-432
-784
448
320
-1152
-1392
-96
720
592
736
480
1056
256
-256
144
336
608
880
608
784
320
-432
-672
192
-16
1760
448
176
160
-192
-496
880
1168
1552
544
464
736
1232
176
-336
384
688
912
1200
736
-224
-768
-336
-176
-176
-384
-80
-832
-272
752
1296
-576
48
-32
-240
592
-256
544
-704
-432
-512
672
208
-1392
0
1200
1456
816
864
1168
944
-176
-880
-528
640
1424
-112
224
912
672
1040
640
160
320
-96
1424
1152
128
1472
224
-16
-160
560
-880
-64
-704
464
-1648
32
96
352
384
416
32
-624
-400
16
496
704
-128
-1280
-48
800
-784
-112
624
-400
96
-416
-384
624
400
336
800
144
-800
-336
688
128
320
864
1152
800
-320
-176
496
288
608
1120
864
-400
-1120
-400
-352
272
0
-544
-240
576
-448
-832
-192
-384
-608
192
-656
-432
-1184
-1392
-128
240
-192
-464
544
-1056
-928
464
1232
880
-544
-1424
-80
864
576
384
-960
-784
-976
-352
-192
-400
-1104
-880
-944
-1120
-1552
-1456
0
-1088
-1312
-656
-1776
224
1536
672
224
1088
480
-912
-64
400
-16
-288
-656
-416
-128
-1440
192
336
-352
1312
-1216
-1456
-16
-992
-720
544
1088
-464
-32
304
800
-64
-64
304
144
-272
96
336
-160
-480
-768
-416
-416
144
-240
-48
-16
-144
144
272
-944
-1584
-352
-1024
0
352
832
-912
-432
352
-320
-1168
-736
-784
1056
1632
0
304
-288
-848
80
832
608
-176
-464
48
-592
-592
-176
-32
-1200
-560
144
-880
-416
1504
1008
256
592
-384
512
1168
608
624
1360
512
192
-896
-1200
-528
720
-64
-400
112
800
-64
640
-432
-1120
-1152
224
-1424
-848
640
192
-688
-544
544
64
464
608
-576
-64
688
-320
-608
-672
-864
-1568
-1008
848
-16
-1056
128
-176
-912
-544
752
1040
16
-352
-256
176
1600
80
-656
-1440
-64
704
512
640
688
1024
-352
-400
-272
-176
224
1056
-800
512
1360
992
-560
-1456
-1104
-720
-192
304
944
-32
-704
-384
-240
800
64
-128
544
864
896
928
128
384
-144
272
-64
560
1984
656
256
-608
-864
-80
720
352
-848
-80
32
112
-336
880
944
48
-464
96
-416
-448
-192
272
416
-80
-1584
-1728
-416
-720
-432
592
-976
-672
464
-352
432
544
1152
800
-192
-1248
-176
-192
-448
256
512
0
400
720
80
-1312
-944
256
1424
-272
-1072
320
96
-576
-480
-432
-432
-1136
-192
496
-544
-368
288
480
-288
64
-1248
-1072
-240
-256
-416
-144
160
432
672
96
-64
592
640
976
160
176
448
-1120
-896
368
544
-256
816
944
-416
976
-896
0
-256
720
-720
656
352
128
-576
-240
-1440
-1280
544
-96
128
-192
-912
112
224
1232
1024
-64
-528
-400
-256
720
-816
1040
640
-608
-400
656
720
224
272
-896
-1184
-432
-864
-288
-144
-208
-352
-928
-848
-1696
-464
512
-448
-384
-1296
-912
800
-448
-560
-672
-464
-96
-304
304
560
-1920
-608
384
560
480
-304
-16
64
48
224
528
-656
384
112
64
-1072
32
-240
368
-192
-16
-880
-688
-928
-736
-368
544
1312
1168
-176
832
416
-192
560
992
1104
832
-368
224
512
64
-48
240
-240
-16
-256
-400
-672
-528
352
848
-240
48
-944
272
-880
-832
48
-192
624
416
688
-80
-336
160
-368
-64
64
0
560
560
-1392
-1216
-512
-208
336
256
400
32
-1376
64
144
-320
-352
-496
16
-976
-112
-160
-1104
-1344
-112
832
112
1520
1008
880
-688
-1168
112
-96
96
624
-64
-1152
-96
2000
16
-816
720
-496
-240
688
496
336
1152
736
128
896
-720
-896
-800
688
1024
1472
832
336
512
32
-352
752
208
640
64
-560
400
-288
-64
-960
-64
48
-64
-416
-1344
-1568
-1056
-1200
-560
-416
-928
-1024
-976
720
-80
-912
-1216
-704
784
80
-272
-640
-896
1040
64
-784
-96
352
-464
-352
-1680
-1648
-992
16
-176
-1040
656
928
864
240
160
-672
-816
-960
-64
-576
560
-1216
-1472
-96
1056
-192
608
-224
416
16
48
16
-304
-144
-656
1248
608
208
1344
992
896
512
80
512
160
-880
-1536
-1232
-720
400
400
752
688
528
768
-544
-976
1008
1856
-128
32
-160
912
560
352
368
768
-464
544
256
928
384
416
480
-128
144
800
-32
576
624
-608
-288
400
-576
192
288
-784
-1184
-512
-368
-592
160
-32
752
-288
-176
608
64
688
-336
-672
-448
240
-368
-96
-896
-96
-208
128
-336
256
16
-512
-816
-656
-1008
-1008
-768
-368
-272
-352
32
-576
80
368
288
576
224
64
32
-320
-784
-144
96
-80
448
160
-432
304
208
-352
48
624
-400
-352
-192
192
384
352
-336
-1424
-64
-2032
-1136
-224
480
400
176
240
-48
-1056
-176
416
400
-208
848
928
592
1760
16
-192
-32
816
16
144
608
1200
672
96
432
352
848
1104
688
-512
-336
-64
160
720
-320
-384
-112
-272
-288
-640
-784
-528
-912
-1168
-144
-624
128
1376
448
192
-320
544
320
1296
128
-128
-176
-112
-432
480
816
-640
-336
816
688
752
864
-144
-64
464
1008
992
784
464
528
-160
352
48
-576
832
832
720
1280
1376
-656
-1344
-656
144
-992
-1056
-320
-32
128
-256
-288
-80
240
176
160
48
48
-688
-672
848
80
784
-16
-32
-112
-16
0
192
-80
-352
480
1520
672
1296
0
432
432
-48
-896
-1056
-416
-320
192
656
176
400
1472
704
720
288
1488
1248
-640
-64
-1120
-544
720
768
304
-256
416
-400
-352
976
304
1776
1152
224
160
160
-400
496
368
-480
-528
-800
576
1040
-176
32
-688
-304
-16
272
-464
-320
560
368
-976
-640
-160
800
-128
-176
704
1728
176
368
1104
432
-416
-144
64
720
624
736
816
336
640
0
-240
-272
-256
-784
-176
464
-752
-528
-560
-400
624
1456
128
48
512
960
1760
0
-432
240
688
-640
-48
1216
368
896
-272
480
528
-224
96
208
736
96
-64
320
-848
-1376
-1184
-224
592
544
688
-720
-496
256
-464
736
784
-912
-384
-1056
-704
848
272
-1024
-736
-368
-1008
656
848
1616
1056
1040
-432
-1104
-288
544
976
-256
672
-544
-1648
-704
752
112
-336
800
624
-496
-880
-1616
336
944
224
960
944
-448
-576
-96
-240
-80
528
-128
416
1312
0
464
-16
1120
1568
560
-160
-528
288
-1472
992
-336
-560
128
-1504
-480
-64
240
-16
496
-544
-448
160
-1088
-752
-784
-736
64
80
-880
-1008
144
-96
48
0
288
-48
-496
-560
640
512
-48
240
-560
-1024
528
-128
0
1008
1536
496
0
416
-224
464
1168
-832
-16
-48
-80
1984
784
-128
848
1056
-416
0
560
528
272
-256
-560
-144
-400
-1568
-1312
-1600
-1040
-784
-1440
-1232
-864
-992
-32
-1312
-1232
-448
880
160
464
-48
-688
512
-16
80
768
-528
128
1344
288
-976
64
752
-464
-192
464
-368
-656
512
1552
1232
1264
1744
128
-464
-112
352
400
384
-432
-1104
-1232
-1088
1024
720
-320
-400
-656
160
-784
-1088
144
-48
672
1232
528
-1072
-624
-480
-1232
-848
304
1040
656
464
-720
-672
-848
-256
-688
-32
-496
-896
-560
-16
576
368
0
272
-128
-1376
-864
-144
-608
0
-16
1008
80
-672
1360
80
1232
384
-672
-528
144
-576
-1200
-720
-672
-544
240
688
464
-752
-480
272
0
-784
-592
-144
640
288
-688
384
1248
1088
1072
1472
416
-32
-864
-176
-928
-240
-400
-512
16
-448
-1376
-608
-848
-1056
-688
-256
-496
-608
-1280
-1024
528
160
544
48
-1296
-320
-448
-128
-80
-256
1632
752
-112
-464
192
304
-96
-320
-832
-592
176
-192
-1696
-896
-944
-912
-144
-320
-336
-1808
208
1312
144
144
608
464
752
976
544
-144
-704
-864
-256
688
1312
624
-32
-112
192
848
544
256
976
448
304
-768
-608
-144
800
-784
-144
976
-368
-1376
-128
112
-864
-656
240
1360
-240
192
-672
128
672
16
384
32
352
848
32
-1344
-960
-880
384
-128
560
832
-448
-320
-864
-96
1168
-192
-784
-784
416
-512
-544
-352
1760
1920
1200
512
-368
-480
-512
-560
-192
-256
512
-1344
-288
144
-608
-32
416
128
-1248
-448
-960
160
448
320
-544
-608
1040
448
-800
-336
-448
-880
-848
-480
848
1344
512
-512
96
224
-1248
-992
-352
224
-1680
-288
832
640
368
944
320
48
96
992
528
448
-1120
-464
176
336
1232
784
1264
32
-560
80
-256
-1072
-656
-128
-1040
-720
-80
432
0
928
16
208
224
1040
832
-768
-192
-240
432
528
-1440
576
992
-112
896
288
-816
-1472
80
-272
352
1952
496
-864
-1632
-400
496
-48
-112
-560
-464
176
64
-944
-256
-976
-352
-80
-432
-464
208
800
-416
448
208
1296
928
1232
400
32
-464
-256
432
-480
800
1104
16
0
-704
-256
-320
-272
496
1088
736
960
-80
-240
-144
-400
-928
-464
416
-896
-1264
-496
32
864
0
816
-80
-1280
752
176
384
272
-1056
-1888
-1088
-336
976
752
-432
-960
-368
768
-208
-368
384
752
-32
432
-144
-976
0
592
432
368
976
432
320
240
736
1168
1008
400
560
752
784
240
-912
-528
-640
1488
528
-80
512
400
704
16
144
144
-976
-640
-512
-208
944
1008
48
224
400
-512
-96
592
176
-160
-160
-208
544
992
352
-256
-1008
208
320
880
528
-928
-32
880
-32
16
-736
-944
1504
864
272
-672
496
1424
512
-1376
-736
-304
-1296
-1056
-640
-432
352
416
848
752
-1088
-928
-144
-416
-768
240
320
512
608
1232
256
-32
592
1408
1584
1136
1440
880
-128
-352
-1024
-16
432
272
624
-192
352
1104
304
304
208
640
128
-384
-928
-896
-1680
-944
-704
-784
-48
-304
336
720
1424
-1008
96
-160
-832
-160
640
784
-96
-96
1904
1712
1696
640
544
896
480
96
-704
800
1264
496
-800
-304
176
-32
1264
480
-1024
832
176
-480
144
0
592
448
752
-944
-320
768
-112
-512
-800
-272
800
576
336
976
-160
-1088
-32
1120
864
-304
-624
-384
1024
272
-656
-144
-144
528
-80
-1296
-400
112
672
384
208
-320
-224
-640
96
256
-864
-272
912
272
304
-288
-656
336
864
-128
560
-576
-720
144
-512
-416
-704
-1168
-320
-1216
-128
864
848
768
-864
-800
640
1264
1536
656
704
1216
-848
-176
-112
-1248
-1488
-752
-720
-512
-304
-288
560
-576
-352
208
1072
1152
128
80
-592
1536
1488
1120
112
384
-1040
-288
-880
-80
320
736
448
400
-608
-1536
-880
-176
-288
304
304
544
48
-32
320
-1472
-400
128
720
-688
-464
-1072
480
1440
176
-480
-112
176
-1200
-112
784
1184
1136
-640
-1280
-1200
-448
-1216
-640
-368
-224
112
-1104
-688
0
432
608
624
1120
1088
736
672
560
-672
-1360
-1168
-1440
-80
-128
-960
-336
608
896
880
240
368
368
560
-224
-688
-16
-112
432
816
1360
1504
1136
1648
1392
1088
-128
-1360
-1152
-320
480
-192
-128
-720
384
880
1440
-16
-1024
-736
80
-224
-304
416
-224
176
-736
-160
784
192
128
-256
-96
-1552
-656
336
848
-48
-976
-560
0
128
-64
-512
-480
384
-624
-768
-144
1168
-160
384
320
1520
640
-528
368
64
720
352
992
416
816
64
-544
992
-336
-336
-544
-1104
-576
784
400
-160
752
640
-464
-1504
-736
272
384
864
416
1024
80
192
1056
1184
880
768
-976
-1952
-368
48
480
-64
240
80
-48
368
-1568
-896
272
128
336
48
432
112
-1008
-720
-592
288
624
-864
-640
-544
-880
96
352
-576
-880
-80
512
-352
-960
-768
480
-480
48
-352
-416
-784
-480
-640
-112
-400
288
1136
-528
-480
-128
-384
-272
-144
640
1184
1024
512
752
80
-576
-48
-496
-112
16
-992
80
-352
-1072
-64
480
1088
224
-160
-768
-128
-96
-32
-672
-112
-864
-384
-816
-384
992
288
-912
-80
480
656
-96
624
688
1408
256
272
-48
-912
-480
672
1216
240
720
224
-304
96
1056
720
128
816
-432
-1008
-960
-672
432
-256
224
128
-848
-1024
32
0
384
80
-704
-112
-96
-48
96
-336
720
1008
1232
752
-64
-304
-16
704
624
-48
976
-64
-688
-560
-320
-752
-1664
-1440
-272
352
1568
192
-256
-576
576
-240
848
736
-576
912
-336
-80
-896
-432
-512
-80
176
-272
608
-224
-400
-640
-1648
-224
96
-1728
-1088
-320
256
-320
-688
-96
496
640
-416
-64
-304
-240
-320
-1680
-1328
160
768
-80
272
-208
48
-512
-624
-272
-784
-64
-176
720
608
-256
352
-64
-240
512
1344
-288
-688
-64
-288
-592
400
848
192
-560
1312
1056
1136
864
640
1104
656
1136
320
832
-528
-1680
48
176
-64
-352
80
112
-192
896
960
416
176
1232
128
-384
976
-16
352
80
-144
-640
-448
-496
-288
704
496
528
432
1008
-112
-64
144
1616
144
-1680
-512
-352
-16
-576
-1008
-80
848
1120
480
-288
-752
-832
-1552
-1472
-560
288
480
-496
-688
-576
-736
-368
-816
336
864
848
832
400
480
-336
-112
768
16
656
1024
720
0
352
704
1680
-128
-736
-208
192
640
352
864
656
-544
1136
848
-272
864
-480
-112
272
592
1632
736
-528
-208
512
-1024
-352
-208
160
80
-720
400
896
192
-448
-352
240
256
-32
-448
160
800
-800
-80
-304
208
-1136
-960
32
-368
-272
-848
592
-352
-528
352
576
736
-736
-1120
-1024
-816
256
-928
-496
784
-128
1264
768
-208
-592
-1296
-1968
528
1600
432
224
336
1728
944
-1104
-880
-272
544
352
624
656
-624
-96
896
1888
1280
0
-704
-624
-624
-864
-16
48
960
784
208
992
96
-896
-480
832
320
144
0
-176
-1040
-864
-992
736
1440
496
-944
-752
-864
-1952
-720
-896
-1312
1712
1456
384
96
-704
112
-80
176
176
-288
544
1408
1472
16
-112
768
576
128
496
512
80
-1088
32
208
-1024
-1648
-208
-208
80
416
-512
-1120
-240
432
-1008
-1744
-848
992
96
576
-496
-832
1104
480
464
-256
-272
-368
-672
624
160
656
-352
192
-336
-1088
-624
-288
-768
-272
-352
112
-400
-1104
-352
480
1584
1344
-48
-256
-240
-624
-176
176
240
208
368
-688
-1824
-656
288
688
480
368
-304
96
464
-160
816
1312
1072
560
688
784
992
320
352
160
240
432
464
-784
-1040
368
1408
672
-544
-384
672
-384
-896
208
912
1376
864
-288
-1888
-496
1072
544
272
656
176
880
1296
1232
736
640
160
-384
-400
208
-448
464
-64
-768
128
128
-176
192
-528
-720
-368
720
1040
-320
-1008
-1216
-576
-240
-288
160
-720
-624
688
1568
800
688
1280
48
-976
-272
432
720
1088
-256
-80
1152
1136
192
480
368
208
-624
-416
-480
192
480
-848
-576
-784
-1120
-736
192
-928
-864
208
384
528
-928
-672
16
-96
-224
864
384
-1024
144
-448
224
144
-768
-96
-304
-80
64
-256
-128
-640
-1344
240
176
-16
1056
288
-64
720
144
112
-112
384
640
448
-944
-832
0
-1104
-688
144
-448
-960
-48
48
992
464
1184
-560
-1792
288
0
16
624
512
1040
1072
1264
144
288
-256
-544
-272
-976
-704
80
704
448
48
-480
-1408
-416
-48
-1120
-576
-176
-1520
-944
-496
-32
272
416
352
32
432
-80
-576
-800
256
944
864
-448
-656
1168
512
400
-544
-624
-1728
-768
416
208
624
-384
-48
-320
-224
-64
0
320
-704
-768
-1008
-272
128
208
-704
-880
-928
-448
-416
-176
-1504
-848
-448
-336
-272
-720
384
-496
0
656
-400
368
-48
-656
-336
592
944
176
-384
-128
928
208
240
-304
-512
-1264
-1264
-688
-320
-80
592
512
-80
560
624
-16
848
1568
320
-1648
-752
-896
-512
-320
-624
-240
-688
-240
256
1408
832
-112
-432
-384
560
304
496
-48
128
432
16
80
-720
-912
304
800
192
416
672
96
-16
720
-800
-608
-432
-336
256
-112
0
640
240
464
-112
-368
96
464
944
976
-928
-144
416
448
608
-912
-1552
-352
576
848
1488
432
-1024
480
-64
-48
-448
-1328
-928
-1264
176
608
1280
16
-560
-544
-544
400
-464
-912
-880
-608
-736
400
240
1024
816
1648
1520
1696
1424
-96
-560
608
960
720
1824
1072
16
640
-64
-400
-656
272
-464
-224
-48
240
-592
512
320
-464
-416
144
624
160
-768
-1920
-688
176
256
512
-32
-720
1632
208
192
512
-272
1152
752
-480
-144
256
-496
-432
800
-48
-432
768
-80
-336
320
16
-528
-640
-656
-176
256
432
-112
-528
208
-176
-1040
-624
1024
-64
-576
688
288
432
1120
576
-1376
-976
0
64
240
544
224
-608
-576
416
-240
480
304
1360
896
224
-240
-1536
-256
-80
-224
-672
-304
288
576
-800
240
48
256
336
144
-112
-240
-384
256
-368
-240
-320
-336
0
448
-144
-384
-480
496
352
448
64
576
960
816
496
976
1024
-256
-224
336
-192
256
-64
-640
176
-1280
-640
-112
-736
-1088
-384
0
-608
-464
-576
416
656
416
64
-608
-400
704
-816
-320
1296
1952
1152
160
-208
-176
944
432
-144
464
-832
-1712
112
704
352
352
128
-64
160
64
1328
1392
-464
-768
-1696
-1248
464
608
-1072
-576
-528
-288
-704
-1024
352
416
336
272
-64
-528
-416
96
384
672
-592
-560
-992
-1120
-288
816
928
1232
-224
-64
16
896
48
1008
448
656
-608
-544
-64
-1104
-1120
496
944
-432
384
1552
96
368
-752
-1040
-752
688
992
800
528
752
-352
-928
-160
64
128
352
480
288
912
1776
1424
512
-768
-784
768
208
96
-352
-640
96
-96
608
16
-464
288
-496
-1552
256
608
496
-352
-320
-256
-944
-384
-560
-672
-176
-1120
-1280
-528
-32
-688
-672
-832
0
1312
160
176
112
448
-400
-944
240
-112
-352
-160
464
176
480
2032
1536
464
-384
336
1136
1232
-672
-656
-144
-592
-48
560
224
480
-128
-752
592
1120
-32
320
-288
-528
176
784
128
128
48
-128
-224
-1136
-256
208
-352
-288
-336
-368
-496
-864
-512
-656
-352
224
128
-416
-976
-64
-576
-336
-160
-416
-1312
-576
272
-80
-592
-416
-1072
-416
-336
16
944
384
-336
-848
-992
-768
16
-464
-32
768
640
496
560
-288
-528
-96
-1008
-288
16
592
-160
432
352
-1392
-624
-560
-240
-768
-32
-256
-1344
-768
-384
-848
0
208
-704
64
-48
-848
-1440
-400
-176
544
896
960
960
-224
-352
1392
912
448
512
80
-64
192
1344
-640
-672
352
-880
-1152
336
336
496
-592
-192
512
256
-624
-624
-1328
-160
-512
144
464
-384
480
-96
224
544
464
-240
320
32
-480
288
464
-192
-192
-512
-160
-144
-96
16
1008
144
-112
-1232
-176
-112
64
576
528
-960
-256
112
400
-912
-176
832
64
736
1232
-112
-1008
816
32
-1376
-224
-64
-464
1136
272
-944
-656
-1168
-80
-240
640
432
-768
672
592
576
1072
848
1344
880
-768
-960
832
672
1152
880
1312
1312
960
192
-320
32
-304
-1104
336
736
48
-1840
-1936
-464
512
-96
-80
1280
16
-96
896
1168
1072
-32
-176
1072
608
-1056
-48
48
-640
-608
512
128
-80
1280
896
-96
-768
912
544
864
528
80
48
-160
-336
624
960
1168
624
-112
-720
128
672
-144
224
992
320
-240
-1600
-528
-336
-240
272
-48
-368
320
-32
160
528
-112
832
-16
64
1232
928
448
96
-528
-416
-160
-96
-576
-992
400
-80
-496
384
352
-48
-1760
-880
-224
640
624
-272
-1392
304
1328
704
448
608
848
448
-736
-512
800
1120
304
368
-304
-480
-304
-496
-272
-112
-64
-704
80
-144
-368
-256
-48
-800
-1072
320
976
944
1104
-80
-32
752
112
464
-720
144
464
976
624
880
688
448
1376
192
528
992
-496
-944
-160
-1088
0
-304
-624
-1056
-784
-880
-480
-464
-848
-912
-1024
-688
-496
-352
-192
-1008
176
-1232
-1376
144
784
1008
1680
-256
-880
-416
-656
-1024
-928
0
-80
-192
64
832
-1088
80
-352
-608
-1104
-592
96
-320
-96
-672
-352
0
-384
-400
80
-736
-512
-528
-1008
160
0
-288
-256
880
-112
-784
336
-16
384
-16
-960
-144
256
736
640
864
1808
256
-592
-368
-736
-784
720
512
-304
-64
576
-544
-752
448
480
512
-224
-432
256
256
-1072
-880
1312
736
224
-768
-240
400
592
1296
1392
-96
128
640
-720
-400
64
-800
48
240
224
576
688
592
944
48
-128
752
48
128
688
48
48
448
192
-464
-736
-1328
16
-112
-144
-288
-992
-528
-1936
-720
-976
-1664
-672
-32
-144
-240
-960
-1488
-224
-112
-432
-32
528
16
-672
-288
-1408
-1264
960
144
624
-1072
-128
16
-640
-272
-272
-608
0
-720
-816
-784
-1488
-416
-48
48
272
304
288
720
-1424
-1616
-448
864
64
-240
-352
-288
-80
-704
272
-192
1216
1520
2016
-80
-128
-352
1152
736
-80
-208
208
-208
-304
-48
416
-240
128
768
-208
-512
-224
512
-320
480
16
-400
-128
-176
400
560
-512
-224
-192
-160
-192
288
-528
-576
400
336
96
-576
-144
480
1120
1488
720
320
416
1216
1232
528
512
1040
48
112
0
-464
-80
368
1984
1008
1088
432
-720
480
272
208
-928
-192
304
32
0
-192
720
1632
384
-1408
-736
112
368
-128
672
768
-448
-560
-80
400
752
800
288
-560
-256
-496
16
240
800
880
-32
192
-416
-368
576
848
1664
-160
-64
-416
-96
-240
912
-432
-528
144
560
576
112
448
240
-320
-384
-544
-464
-176
512
-48
-992
336
1296
1168
1152
592
-16
640
1056
528
176
1184
912
816
704
448
752
672
592
-48
512
-272
-384
-208
-1248
-1120
144
208
32
480
336
1152
1040
16
208
-1216
-1520
-1328
-176
1136
896
704
96
288
368
416
576
-128
-336
-480
80
320
816
176
-448
816
480
128
-496
-1776
-1488
-624
1616
1072
192
-64
-320
-464
-448
352
-400
224
-640
144
640
192
576
560
336
-928
160
256
112
-336
-128
448
336
-32
-864
-912
-128
-1152
112
-752
-768
80
96
-1264
-1104
112
-480
-448
144
-528
-240
800
-96
-128
-144
-192
816
752
-48
-32
208
496
1040
1344
1360
352
592
1104
288
1296
1680
-976
-288
320
-176
-480
-1024
-1312
-1088
-624
112
-864
-1136
-944
-1040
864
128
-736
-224
288
-656
800
-560
-848
-816
-784
-1296
-416
704
1856
1520
-256
-1536
-1520
-480
-944
-704
256
1088
1008
-800
704
1520
-400
-336
400
704
-848
-16
1472
352
-752
208
-336
288
-512
208
-1008
-704
-1376
-192
800
1264
1856
320
-928
688
1168
784
480
1152
1040
48
-48
-1056
-480
-816
-1360
-64
-432
-816
32
-288
1056
-256
-592
272
304
-272
-368
-400
-912
-704
1264
688
464
-448
96
48
-272
-496
-400
-528
-16
656
-48
-64
-640
-1280
0
32
-1040
-960
-880
-560
224
992
864
608
192
-272
48
1184
336
-1008
-1136
-624
480
496
528
224
-624
-928
368
528
384
32
80
-400
-592
-1120
-1280
-32
448
608
368
640
528
464
-880
48
768
880
880
896
1216
864
480
-16
96
-1152
912
848
-784
-1024
48
48
400
768
1024
160
-128
-656
-1856
-1536
-1008
-368
192
-144
-192
976
800
544
-80
-704
-944
-800
-624
-816
-352
-48
992
880
688
384
880
1616
1056
1072
352
176
160
-32
-384
-1184
-912
16
1296
624
-192
-2048
-352
480
432
-816
-928
-288
-976
-736
-784
832
-224
-480
-864
-16
-352
-384
-560
224
-768
464
800
1248
96
-240
160
640
-560
-304
480
-320
-672
-832
-448
224
768
-320
384
848
448
656
704
400
1008
1616
912
320
1968
192
-1632
-816
208
-400
-432
32
416
1200
96
-192
192
928
1408
880
-560
96
-336
672
1776
1904
1088
656
-432
-112
912
848
528
-752
-608
-464
864
-224
-288
-640
0
-480
-496
480
1296
448
-944
-592
896
112
416
624
352
-224
-656
-1664
-240
-96
192
-832
176
-272
-464
-1040
-928
-1184
-1392
208
192
0
80
640
1360
-80
-1920
-560
-160
-624
-656
-96
-128
320
816
-544
-1200
928
656
-96
-400
-816
-864
64
688
416
544
400
-256
-176
-1504
-768
432
752
896
-832
-592
224
224
128
-1344
-352
256
1040
-160
-336
-336
-944
-32
-592
368
608
640
208
1024
608
-432
-560
-240
80
864
224
-1088
-224
-96
112
1184
1136
1040
-336
-48
1088
-672
-416
-608
624
-320
-960
-608
-240
-176
-912
-1168
-720
-624
368
-720
-480
-912
-752
-912
-912
-1072
656
128
-320
-656
-336
272
128
-80
304
0
-48
960
-160
608
352
784
864
224
16
1280
-96
-784
-336
464
-256
256
176
752
496
1840
1344
1056
240
-416
-544
-128
-1040
-160
96
-464
-448
-736
-368
-1808
-416
-1312
-480
-656
208
1152
384
-1872
64
1840
1232
944
1952
1200
-336
160
-208
736
336
240
96
592
256
1088
480
-864
576
224
16
736
560
-256
-1072
-736
400
-304
-1440
-1280
-144
864
480
-96
672
-320
-64
320
656
576
352
-192
224
160
-208
-208
-1312
-1264
160
-560
-336
-80
-1104
224
-224
-560
1152
464
-880
-416
-176
-512
848
80
368
-352
-1248
336
1504
112
-1120
96
-944
-352
-112
-592
-80
-560
-32
816
256
16
672
1008
1184
48
-784
-112
400
464
-1072
-976
-224
-160
160
256
80
-1408
-1184
-864
-352
864
256
-656
-1296
64
816
-336
-1360
-864
176
-608
0
224
-64
432
672
352
304
-32
-704
-1344
-928
-976
-912
-672
-704
-832
-192
-1040
-1552
-384
0
-112
-336
1248
896
-688
-960
-144
-320
528
288
512
-352
384
176
-16
-672
224
-1040
-1568
-672
400
576
-416
48
272
-544
464
208
-880
-704
416
32
-320
416
-176
448
336
128
-1168
816
688
288
560
-1408
-96
1472
1120
432
-368
-784
-48
-512
-688
-1072
480
512
1056
304
512
-544
-624
16
224
64
752
1104
-16
96
-384
-784
-896
-432
-1168
-1664
-96
800
-432
-864
-384
368
-32
-480
-784
-1104
-1248
-1888
-1216
-448
-176
160
400
64
176
-192
-832
-336
496
64
352
896
1472
352
-400
160
112
-448
-1440
-1984
128
48
-800
352
1168
912
48
-624
-480
-608
944
-160
-80
-672
128
-368
-880
-192
1008
608
-176
496
528
-464
-80
560
432
608
-864
-912
-1872
-640
592
-208
-464
-928
-880
-448
-736
624
976
64
-1152
-1072
-1152
880
-752
-1184
-656
1456
1088
-128
624
288
256
416
-848
-544
-32
-144
-848
-960
-208
-800
-672
-1152
1472
512
-448
-496
-112
176
-1056
384
48
-592
-160
672
304
352
-448
-928
-1168
64
640
1072
192
-512
1104
496
-128
-752
-1216
-32
-896
464
592
48
-112
-656
-352
-704
-768
96
288
-48
16
576
368
-224
112
240
144
-432
-640
-208
208
336
-1168
-928
-1280
-976
-480
336
-432
912
384
-176
640
624
-288
400
928
1184
1456
-240
-1104
-448
-336
-160
-368
-96
48
704
1024
-208
-1040
464
-352
992
-896
-896
-928
208
-288
-288
128
-64
496
224
1184
1376
80
112
-512
-368
512
96
-176
-288
-368
1216
352
672
64
-240
288
-288
-16
832
848
336
-640
-1072
-256
496
560
-1216
-576
-224
-256
-400
832
-304
-1056
-960
-496
-256
1408
1008
0
384
496
1072
1184
-160
-1296
-480
-1360
-1440
-208
656
624
432
0
-1104
-528
-240
688
576
448
-32
1568
512
-688
544
-16
-544
-144
800
832
320
-16
-1040
400
544
1312
464
144
416
-144
-256
768
-32
-400
-48
-688
-240
-784
-640
-256
176
304
-448
752
1984
1376
-80
-736
496
848
-704
1344
720
544
928
416
496
400
224
-208
-656
-208
-976
-800
-272
-96
48
-640
-1072
-1552
48
-368
-208
448
592
-288
-240
-688
528
1072
1872
0
-736
-1088
176
448
144
-224
-144
256
1808
1344
848
-1184
-752
448
-112
-176
-272
-176
-256
-1680
-1008
-704
-240
-656
-64
832
16
-16
208
-1584
-928
176
-528
-336
192
832
1072
1680
1360
336
-1392
-656
-1104
-480
1344
1344
144
-1936
-128
-1408
224
272
368
224
112
-16
192
208
976
-544
-1840
-224
1184
880
944
544
848
-80
32
1312
480
512
-720
-400
-304
144
128
-96
-272
-1008
832
656
560
160
-576
-784
-480
-416
-256
-272
288
816
128
-256
-896
288
1232
144
432
-96
464
928
16
208
416
160
-224
288
128
928
816
736
-80
64
96
-384
192
96
224
848
-64
-992
-192
-576
-1120
-528
-544
-1168
-1104
-720
480
-272
528
1168
336
1440
1360
400
-16
-416
416
672
-1008
416
-608
-752
272
880
672
-16
-32
-1024
-144
528
320
-1360
-368
96
320
560
-320
-1232
-320
256
992
992
-416
128
368
-864
-624
32
80
80
-512
-480
32
-240
-560
448
32
432
944
-544
160
-544
144
-80
48
-64
-576
-704
-1376
384
416
-1248
-1376
-704
-400
-224
-96
-1520
-1952
-1680
-240
-160
-80
-752
-736
-1344
-1168
-480
-1040
224
736
-240
-640
464
320
1040
1344
16
-528
-320
-304
176
224
96
576
1056
1360
1264
80
-656
-528
368
656
-368
-96
-1168
-1280
-704
-448
80
896
1152
592
1392
976
-400
320
656
-704
352
512
64
224
560
-848
-176
736
784
-576
64
816
832
-320
-800
-944
176
-496
96
1104
1040
-240
-1024
320
1104
224
80
0
-288
-208
1616
1408
-128
-1072
128
1184
608
-656
-1264
80
512
208
-96
-768
-480
-224
976
-96
624
1152
224
-1968
-1392
-240
464
912
368
752
-224
-32
240
176
-128
-96
304
-1376
-896
-656
-272
-16
16
-80
640
992
336
224
-1152
-112
-832
-480
-80
384
208
1360
640
-864
-752
1584
1040
592
528
336
-368
48
528
-1328
-1008
-560
-368
-2000
-624
240
-432
1024
736
-400
-208
-672
-1920
-1280
800
-368
-512
-624
-112
288
-1360
-1120
544
1136
304
-1088
624
-48
400
880
-560
-208
128
416
544
16
592
-224
688
-336
-864
32
-80
384
480
912
-352
-1536
-256
-112
464
1072
368
-848
688
464
-224
80
-416
-1296
-272
560
-432
496
1424
528
768
-208
-112
-272
-1344
-992
64
384
-960
-1824
-288
1120
1008
768
544
544
1904
576
-1152
512
1392
912
-416
112
-944
-272
880
1296
768
1120
960
-32
-848
-160
-608
-480
-80
496
656
160
-688
-1056
-656
-1072
768
288
560
-688
-96
560
48
704
1120
-496
-816
32
-288
-640
-416
-272
-1104
-848
-352
304
-1152
-896
-256
-352
-1408
-768
-16
192
320
544
1824
416
64
432
-304
-240
832
816
-352
1040
1696
1200
-256
-848
240
336
720
-656
80
-192
912
64
-192
144
-1008
-480
-144
784
1840
512
592
320
384
-1200
-1424
672
960
1072
-192
-336
-352
-1504
-768
480
-48
-560
-1168
272
272
-1568
-736
-128
-176
80
-400
-320
1424
256
224
960
-160
880
304
-640
-528
1712
112
-736
48
-944
-736
352
560
192
192
-1344
240
1328
720
608
1104
768
480
-240
-336
-368
512
-96
-896
-608
672
1280
-240
192
1472
528
-608
-688
320
208
128
48
-1680
-416
-896
-512
400
-192
-304
96
-512
-960
-768
736
-992
-2016
-112
1152
192
-560
128
176
-48
-464
16
-560
-896
-1408
-624
192
-48
-528
-544
-1600
80
176
416
-320
176
-784
-1136
-944
-432
-112
96
256
-320
448
592
864
48
-1184
-208
-64
-496
304
384
-624
-1248
-32
48
-1040
-384
-32
1360
448
-128
48
32
-368
-864
-224
208
-576
-400
-928
-704
128
-480
-640
-608
1088
-208
-16
464
-592
-336
-304
-176
448
592
1264
-32
-1152
-816
-288
-832
-464
-32
176
-1312
-464
1216
1056
992
832
32
-1248
-960
128
1296
960
656
560
-64
48
336
-880
-656
-816
-640
880
704
-96
-32
320
80
400
1040
640
-336
-1024
-1264
-384
672
592
48
-496
-336
-976
288
480
-64
-128
-528
-112
-864
-1056
64
1504
240
-1888
-1920
-400
304
-48
-1632
560
-784
-1312
-96
-240
656
1136
272
288
224
736
0
576
112
-208
592
624
-272
-592
-784
-576
-1696
-144
608
1088
832
32
784
1200
128
-16
-832
-864
-368
1024
1872
1408
464
560
288
592
288
80
-112
-528
-288
160
784
368
-880
-832
416
-640
192
1232
48
-224
112
-576
-864
-992
-592
368
-80
-1120
-128
-176
32
-560
416
1456
768
416
1312
816
-592
-432
-1072
352
160
240
736
496
384
144
-32
416
656
-432
-1616
-1200
-624
-64
400
208
320
32
704
-48
528
64
-416
-1136
-288
-240
624
-864
0
752
112
-288
-80
-336
112
336
144
-944
240
1664
784
-736
240
1888
560
-16
32
544
64
496
1408
1008
-272
-1280
176
672
-496
-768
-1040
-432
-32
592
1040
1216
-144
192
-304
128
-1248
832
80
-112
96
-624
-1200
-416
-672
192
-208
-576
880
400
800
1456
352
-576
-1120
-704
256
-48
-672
672
720
1360
1536
448
-32
1120
1744
1280
944
-480
112
-1088
-1760
304
32
-1024
-1088
-1104
256
960
1424
-800
-720
-400
416
-336
656
416
704
0
512
736
-208
-384
-912
880
-96
640
-256
496
96
-480
-448
-208
624
32
1360
64
-112
-48
-688
-800
-672
-112
-336
688
1072
672
384
16
848
704
-656
-1424
-464
-1056
-832
-80
-1056
-48
0
1184
480
-176
-688
64
480
-144
-256
496
1488
1600
272
-704
-832
-96
-752
304
384
-688
-688
-832
96
16
944
1008
528
-416
368
512
64
416
-272
48
-720
-288
-32
-272
160
144
64
-192
-176
16
96
336
-528
-240
-864
-1104
224
-160
352
816
0
288
1040
1152
112
240
384
448
768
-336
416
-1312
-656
-32
-448
240
-112
-608
224
-128
544
80
768
0
-96
-272
-256
-288
912
496
-1360
-176
240
-96
-192
608
1232
-240
-720
256
-160
-352
-1696
-1200
512
-16
640
752
-480
-320
224
-1136
768
-112
656
-528
-1840
-304
432
1120
368
-432
-48
-640
-736
-640
-96
32
576
-16
-544
-160
-240
0
-400
-432
-800
0
-160
-304
112
-352
-384
-1056
-1136
-624
496
-1296
-1104
-592
-752
-304
144
336
1008
-240
-304
528
144
816
1120
-1136
-688
352
-864
-304
-336
-640
176
1040
960
-96
-352
0
-224
432
-288
-448
-736
-576
-320
-144
720
224
-656
96
-688
-1088
896
768
352
752
48
272
-816
-528
-1168
800
-16
-1088
-560
-816
352
864
640
1104
368
-288
-224
64
-592
-672
1024
1248
160
-640
-1072
-768
-688
-1632
-1056
352
-704
-800
-272
16
272
832
1200
576
-752
-800
-320
688
928
976
144
272
-592
-864
-848
-1264
-352
288
1360
176
1136
96
-528
-832
80
0
-1120
560
1120
896
688
960
240
432
1536
1616
-16
352
512
1264
48
48
1760
800
-592
-272
480
384
192
784
-32
-64
-64
512
160
-32
-96
512
160
-64
640
384
-208
-528
-640
896
272
-640
144
-560
-528
16
848
560
-416
-832
256
-336
-1792
176
-208
16
-320
400
-544
352
336
16
160
16
-832
-512
384
688
-880
-1312
1264
432
-640
-736
-32
-448
-352
-16
0
-48
-160
112
384
-432
384
736
1216
1552
1104
576
448
1312
1712
816
-512
1744
416
-48
1696
656
-576
-1456
-1168
-944
-656
240
48
416
-944
192
-176
-480
1024
224
448
-416
-1536
-928
-304
320
384
-1104
-112
96
608
-528
-288
400
-544
1024
464
0
544
1376
768
912
-384
-336
896
1072
-288
-320
-672
-768
16
528
-176
-272
-352
-320
-352
-1072
1344
640
1216
160
-416
224
-144
-448
944
688
400
880
864
-48
-832
-496
1696
336
304
1376
720
384
208
464
976
528
-448
-992
176
-144
16
400
-1008
-784
336
-128
320
-224
240
1136
96
-688
-640
-112
1184
-176
-768
-1328
-1104
-1056
912
1264
576
-496
688
1504
720
176
448
-1600
-1456
112
592
464
48
-64
-112
-160
-256
544
1008
272
960
-192
-336
352
96
80
-32
-624
-32
336
96
-144
480
1024
-208
-576
-1088
-736
192
-48
1296
112
16
320
-432
288
-1264
-896
-1088
-224
1136
912
576
368
-528
-80
1072
960
-528
-880
192
-880
192
-576
-736
656
0
688
432
-816
80
1136
992
1056
928
480
-784
-224
-176
176
-448
-272
304
240
-128
-832
-544
544
256
-16
176
-496
-512
-256
-176
944
-320
-976
-1376
-352
-448
848
-48
-16
1184
272
-352
-224
-32
-416
224
-208
-320
-352
-48
144
192
-448
-624
16
160
912
864
-192
512
1648
864
320
256
1024
784
464
336
352
-368
0
-784
-80
64
-1392
-160
-672
-544
-304
336
-160
-352
128
448
288
96
544
-128
-1728
304
704
112
-48
480
-96
112
464
-1120
-1536
-240
-176
-432
-1328
-464
576
-544
-832
528
1104
560
208
-32
320
-464
-800
-1792
-1104
-96
-368
480
656
48
304
176
-608
-992
-1376
-608
-640
0
-224
-624
-112
-1200
-1200
-864
-32
688
-560
-48
1136
80
-704
-384
-912
-80
976
-624
-1072
-80
224
1136
336
-768
592
1312
1408
1152
1328
1504
-192
-1568
-688
16
-208
336
464
288
-192
144
-688
-96
-1168
-1360
-640
992
496
-352
320
-128
-1120
16
416
-704
560
-1568
-720
-1184
672
816
832
736
-480
256
112
496
-368
32
-624
-704
-816
592
112
-896
320
-544
-752
-352
864
576
-592
-112
656
464
1088
992
576
1344
160
-1280
-96
272
-16
-976
-576
544
-544
-80
-1584
-512
-512
400
0
544
-352
224
256
-272
-384
-256
-896
-1856
-224
96
-288
304
-1168
240
688
656
32
-1104
-448
320
-64
-624
144
480
768
-272
752
112
-1216
-736
-336
-368
624
800
-688
-1488
-448
304
640
416
-272
432
-896
-272
-1280
-912
-1072
-64
544
-976
-1200
-496
96
-880
-1344
-416
144
-192
272
304
-1152
-1824
-672
-272
-960
336
848
304
992
-320
128
-576
16
0
-576
-64
-1152
-832
-288
-80
-512
-368
976
-608
-896
-1072
192
-400
-112
-464
48
368
512
-320
-864
-160
144
144
-800
-1024
-1040
-848
-16
96
-1024
-208
-768
-112
-1360
-832
720
896
240
-176
608
112
-480
-64
320
-16
-144
1328
704
-720
-912
-272
480
-80
384
608
-48
16
-416
112
320
320
912
544
-160
1392
688
-464
-336
-448
272
672
880
1120
624
-224
-1088
-464
288
752
32
720
-32
-32
432
48
-64
240
288
-368
416
-560
-608
528
-864
784
288
-992
64
80
-304
624
-48
-320
496
256
832
-48
48
-1152
-1952
-1552
-864
1024
848
-304
-576
-416
752
880
-160
-576
336
-480
-1200
-128
-1152
-1376
-1120
208
1616
736
-1136
-1952
-976
640
-448
576
-256
512
496
-352
112
288
16
-96
-176
-1200
-560
-288
624
-240
-432
-624
-544
-528
1168
784
-192
-16
-112
464
1088
512
608
832
352
0
-384
16
672
1504
944
-192
480
976
-304
-96
-144
-176
688
-272
0
-2016
-1472
-864
-640
352
912
864
-352
-176
848
224
1200
976
528
-528
464
-144
0
-944
-880
1200
1392
336
320
-224
-768
-992
64
-528
-1504
-448
-64
-304
-688
-224
-896
-832
-192
416
-336
448
784
-384
-576
1392
80
-624
-208
624
-96
1120
752
576
80
848
752
-752
-144
336
160
944
96
-336
48
512
688
688
1296
80
272
-96
768
1104
160
-400
304
1360
1424
1168
1408
768
-432
304
1008
1328
80
-480
-864
-32
-48
288
512
656
352
-64
208
1136
640
-256
-320
-592
80
928
1472
736
320
-160
-80
-1312
-1056
-976
-32
1280
96
-352
768
880
448
-224
-128
-112
-400
-624
16
16
-1056
448
-576
-576
-64
-688
160
432
-928
-640
1056
800
1248
-336
-352
-128
704
640
496
-160
112
-336
-112
48
432
704
448
-592
-256
-80
-240
-736
208
672
176
-16
144
-688
-32
640
-224
-1488
160
-1840
-400
-512
-1104
-624
-768
384
928
480
-160
-1232
-304
512
-688
64
-608
-1104
-256
1440
816
512
0
-928
464
224
240
672
320
1184
432
208
-176
-16
32
-496
208
624
1136
0
-736
544
1584
1280
160
112
-352
-224
240
32
-48
688
-1040
-1152
-368
192
192
16
512
928
496
704
928
432
416
800
832
-192
96
480
-288
-32
640
80
1424
1392
208
-416
-384
-352
-512
720
512
224
-1552
-784
896
32
448
-48
-96
-1072
-816
-32
-976
-208
112
368
656
144
144
32
400
320
-1312
-1200
-640
-992
-560
-928
-1376
-704
272
768
-144
144
-208
-1072
-608
320
512
144
-16
-160
1088
384
-144
-48
-688
-448
-16
208
976
-720
96
-224
-672
-1200
-176
800
1760
-80
-592
-272
-640
-1200
-336
240
-608
528
-144
-320
-624
-720
-48
-368
304
896
528
704
-864
-256
1472
320
-976
-1424
-976
-352
336
1104
-16
-1296
1264
752
112
96
-592
-1360
-656
64
640
912
96
-624
-832
272
288
-960
-448
-1536
-48
32
-64
0
-336
80
656
896
-864
592
-320
256
256
-608
624
-64
64
528
-16
-1392
-1392
-672
-48
352
1296
720
224
96
752
80
736
832
752
-704
-848
-544
-176
-768
176
624
336
544
176
-560
-64
-176
-1136
-576
-864
-944
192
1072
-288
-672
544
144
-80
1200
-48
64
64
-656
-736
-400
-320
-816
-496
-112
-208
-176
-640
-768
-752
624
-304
432
1520
944
528
-832
448
1056
0
608
1072
64
336
-592
-992
-208
-768
-704
896
288
704
224
-928
-944
-1104
-288
384
112
-720
-816
16
1104
512
-1200
-384
-352
-560
-720
-768
656
272
-832
-416
176
-432
-480
432
560
96
-176
-368
-768
-208
416
192
720
-704
-1312
-1184
-384
-32
592
-368
-912
-1248
-384
240
1232
32
-400
320
192
400
-864
-448
992
512
208
-560
-1008
576
-816
-16
-464
-240
256
-896
-256
128
448
128
96
816
400
848
-352
64
1056
880
80
-112
384
-848
-896
-80
-288
144
144
-496
-176
-80
-704
-464
464
-272
-224
16
496
-464
-928
128
-96
-80
656
-1248
-432
304
-80
-1024
-960
-320
-1648
-992
-320
544
-48
-1472
-96
544
464
-1296
416
-48
192
-640
-32
-192
-704
-16
-656
-592
-880
-1312
-512
-688
-416
-752
-752
592
-816
256
704
912
160
432
-32
-1072
-688
-1504
-288
-816
-1296
-224
560
160
448
1280
352
-464
-496
112
-336
-896
-736
592
672
1152
400
816
144
-416
-304
-656
-448
400
64
80
-528
-304
-112
-1360
0
-336
-736
-368
-672
-320
-1008
-128
432
-128
-384
-576
-48
-528
-464
-64
-816
-1136
-784
0
-416
0
128
416
-896
208
-48
16
336
992
896
704
-240
-896
352
-16
-416
-240
-1264
-928
144
992
304
-592
880
976
624
272
480
640
1328
-192
-1680
48
512
-240
272
-864
-272
240
544
-608
240
64
-1728
-1216
-816
544
-672
-176
-560
176
-352
288
320
-352
480
1728
976
144
-1200
1088
320
-880
-544
592
1616
-432
-240
192
80
464
1216
688
112
-640
-176
144
48
-736
368
-560
528
-960
-128
-64
-48
128
896
-1392
-320
880
400
176
224
64
-880
816
608
-16
-576
-384
-976
-304
1376
976
-64
-1008
-336
-80
-208
848
-576
224
-352
32
208
-336
-384
-384
528
-480
-288
-384
-528
-32
-912
-768
-336
704
560
-352
320
944
32
624
176
48
-752
-384
-800
-576
-1184
-128
-432
-1280
384
912
944
80
-112
0
960
464
16
272
1056
-336
-352
32
304
512
-480
-144
48
800
96
-464
-1632
-1680
-496
-432
320
-528
-384
368
-480
-1664
-176
656
928
528
-288
-464
560
912
-144
16
-144
560
-112
352
672
-336
-1344
0
-672
-768
-240
1104
1248
976
1104
752
1104
752
-272
-128
-240
48
-368
144
528
-112
-976
-944
-1568
-832
-528
-1312
-304
64
560
-176
-1296
-64
752
288
512
496
816
384
-416
576
464
576
-80
-976
448
864
1008
832
240
-128
-688
-624
352
-560
528
560
-144
-448
-1040
-624
-1040
-1312
-272
32
112
864
384
-224
112
-224
-224
-448
-368
-544
272
-752
80
-976
-176
-784
48
-144
480
624
848
960
-320
-160
-128
-544
-288
96
-624
512
-448
-592
-400
-160
32
-512
-480
-592
-368
-480
368
32
352
496
-368
368
112
192
48
448
1264
144
-384
-48
-512
80
672
656
16
208
-1056
-1280
-1072
208
1872
1936
784
144
32
576
384
400
-976
-400
-304
272
-32
64
128
800
-288
640
144
-848
-528
-256
96
416
800
368
1408
1264
1376
272
-560
-384
640
976
1056
1392
624
80
-528
128
544
144
992
-256
-400
448
-544
-544
-128
608
704
80
144
1616
1536
384
1072
368
-1328
16
1168
832
1072
928
576
720
208
-496
-512
-480
1008
1296
1472
1296
768
1184
400
816
1648
1616
624
48
96
720
704
656
864
864
880
144
496
624
-976
-496
1168
672
560
-720
-1376
-640
-1280
-64
208
640
-784
-720
-496
-128
-80
272
1152
688
-608
-672
-1056
-816
256
-304
-864
144
400
224
-496
-144
-304
-352
512
608
576
896
528
448
-288
368
48
-1056
-1248
-1408
-304
192
64
-128
-864
-896
-304
288
336
16
624
736
-32
1088
-320
-512
464
208
-80
1072
400
800
96
-16
-1440
-528
1248
656
-304
368
-112
-320
-592
352
1088
1120
0
896
832
240
-32
-336
-464
-208
144
-464
240
784
48
48
400
736
224
560
1216
-448
-144
-432
-64
-912
-464
-272
-432
704
384
-816
-512
16
48
-384
-192
400
-336
-800
592
592
1008
720
272
-80
-448
-608
48
-912
-64
-160
-400
-16
-224
-752
-816
272
-832
-848
-304
-272
672
1376
-560
-1232
-400
176
288
-176
-1232
-1024
-1008
-176
432
992
528
400
1056
528
1008
1296
-160
-128
1488
880
224
752
176
928
1280
48
672
-112
96
1440
-80
320
32
160
-96
-656
-1056
256
736
800
1024
-496
112
-848
-288
-208
-1072
480
240
-1072
-624
-992
816
-1200
-1040
768
1088
-560
800
816
320
1088
336
32
1184
960
864
112
544
672
-16
896
336
-560
-464
-592
-1248
-1152
-176
512
-144
-368
352
1552
800
448
176
-496
-528
304
1072
320
-272
-880
144
-176
-256
544
960
-816
0
832
912
704
672
96
16
-176
-336
0
768
-912
-512
336
-176
-1264
-96
-112
144
224
-48
160
304
-1120
-208
-256
-80
304
-688
304
560
-368
192
16
1056
672
224
-288
-528
-656
-976
-400
-1104
496
544
688
320
-432
-704
-1120
592
1168
-448
-352
-1168
-784
-720
144
-416
0
-96
-112
432
-128
-336
912
-112
-2000
576
352
112
-336
-896
352
464
1488
1392
1232
144
800
768
-1424
-304
96
-1536
-1728
352
864
144
-352
-1712
-688
32
0
1184
416
208
-640
-656
-96
656
608
80
848
944
-64
-800
-80
464
-1072
-1168
-448
-560
-1104
256
112
64
-224
112
1520
688
192
-352
-880
752
928
-656
-32
320
-416
432
400
144
-128
-736
-320
336
176
224
80
176
-912
-848
-352
-48
-16
-560
-304
-1552
-1024
-832
-928
-432
-592
48
96
-1120
-832
-784
-576
-1376
608
-592
176
-528
-560
-16
-112
-144
976
560
1520
-592
96
-160
-176
464
336
640
336
1376
112
368
800
1488
720
-1104
-528
512
32
-688
112
832
-512
-96
-768
-672
-352
256
736
0
-176
1552
1696
-32
-1200
448
864
272
288
304
272
560
-144
-400
-64
112
-272
-16
416
560
496
128
80
1184
1200
1056
-352
-800
240
672
512
48
-400
624
1424
-480
-848
-96
320
560
-288
768
-336
-992
-144
128
-272
-464
-592
1216
880
48
-48
848
288
1040
160
-384
-96
112
-704
352
-224
-272
32
1264
1184
-288
-1088
-768
160
176
304
688
496
-432
-1408
304
-448
-128
-464
-144
-592
-192
-464
-288
560
400
304
-176
-176
544
48
-1472
-976
-752
-80
-464
592
-224
784
864
-208
-624
-768
-176
144
48
-1296
-640
-320
592
1008
480
-208
976
-144
-464
-304
448
176
-128
-192
512
384
480
-832
96
592
208
-16
-1200
-144
832
-896
400
1440
592
160
-192
-16
720
112
384
496
-1200
-96
-1360
-400
-1120
-448
-752
800
1184
1056
416
-208
-928
-752
416
1072
656
-464
-1184
-432
176
672
-208
704
-496
-832
-288
-304
-1744
-1392
-448
272
592
1136
592
-368
-688
368
496
320
-128
-112
464
96
32
-144
192
560
-1184
-1104
-512
-608
-1008
-336
-416
144
-192
-544
208
1408
992
-560
496
784
-960
-1152
-784
0
-1536
-1264
-64
-2048
-720
-320
-240
-320
272
-560
-1008
-896
-640
672
960
1296
800
128
-16
-16
928
1680
528
1232
720
128
-208
224
560
576
352
-1120
-1616
-928
-480
192
896
-304
-96
688
128
1088
480
208
384
-800
-1616
-1584
-1008
-288
32
432
672
32
496
-368
-2000
-1504
-1056
304
-352
-1296
64
304
-208
-192
272
-176
-576
-80
-768
224
1376
1088
-1168
-1024
-16
-128
0
144
-240
-944
-96
864
1280
464
336
48
-848
1136
656
208
-896
-496
208
-688
-1600
-352
32
176
48
1168
848
768
1376
-400
-1584
240
880
496
-992
-1632
-896
-384
-624
272
64
-720
1056
896
112
-368
-688
-352
-400
-304
1168
624
-1296
-128
1264
928
576
-496
-400
-304
-736
-112
960
-1152
-448
-96
-144
-208
-656
-512
-464
144
-688
-64
352
704
240
272
448
112
48
944
1824
1264
80
608
-736
688
944
-368
-288
432
-416
-96
-1680
-224
-336
64
1792
1952
784
624
-704
-16
-256
-96
-992
-832
-1104
-816
-1152
-1728
-1040
-992
-560
-848
1280
1216
912
560
448
-128
144
-768
-240
432
-128
-752
80
1392
176
-416
-608
-448
1888
656
224
800
512
112
144
1040
704
-32
-1392
-1472
-160
864
576
896
-32
-208
80
-160
-192
-576
-320
-400
-688
80
-432
-480
752
-368
-288
-864
-928
-1088
-224
-144
-352
480
-752
-352
-880
-640
208
1584
448
176
1040
944
144
-1104
464
-240
656
-96
-720
-1392
-672
144
-896
-880
224
1664
496
-864
-992
-976
512
1216
448
544
256
240
128
-128
16
-272
-368
976
336
-576
-320
224
640
336
-800
288
1200
336
-1152
-688
16
128
0
400
-1072
240
144
-864
128
528
-288
1136
-192
-528
944
448
1232
176
-752
-800
64
-80
544
1504
1712
848
400
-1184
-992
352
-320
-640
-864
-784
-304
-256
-576
-704
-640
-544
-656
-1328
-528
-368
-1072
-896
-464
272
-272
-208
208
-368
-896
-576
-160
256
624
240
-400
-1200
-720
784
352
-16
-1232
-256
832
-896
-576
-640
464
1456
1632
944
-400
96
304
-960
-464
-656
176
160
464
0
288
-480
192
-336
336
384
-240
-112
592
336
80
-608
-304
-992
-576
-384
480
336
144
-144
-112
-176
-704
-192
544
704
976
96
-928
-1552
-608
96
-1328
-1568
-1120
144
-976
-1104
-1072
-176
336
336
1200
-1408
80
-48
-336
192
-576
432
784
320
352
896
1040
1120
912
48
432
-576
-192
0
-32
400
1008
1456
1120
-416
-576
32
-624
-800
576
1552
1456
784
688
912
-128
336
-832
-816
-448
-192
-528
-624
-144
224
112
-576
768
304
1104
544
-624
-352
64
-144
128
784
-304
-880
-96
336
1072
288
224
-224
64
464
-256
-1264
-96
-640
-688
-832
-976
-1536
560
224
1264
1312
-112
-1184
-672
-784
96
496
560
288
80
272
-240
-240
928
1584
576
256
-848
368
288
144
-16
272
544
-192
400
304
416
-1104
-64
1520
1536
1280
704
768
160
368
288
-272
416
1088
1120
560
64
64
48
-576
1168
640
608
-320
-1024
-960
-224
-416
368
560
1184
1696
576
-48
384
1104
640
-512
-720
-1424
-192
-448
32
112
784
912
-384
256
768
720
560
-32
-1200
-1344
-176
256
752
528
16
-208
832
1120
1040
16
-272
-1216
432
16
-400
-48
-1088
-48
1184
-864
-560
512
352
336
672
688
1904
-64
-224
480
864
-400
-1056
-592
-448
-528
-368
-112
384
-576
-976
-880
-704
-544
384
464
-144
32
-1296
-560
656
-32
576
1648
592
-304
-1056
832
-224
816
640
224
768
-352
-2032
-544
-384
-928
-528
464
96
-272
-912
-1040
272
1648
752
-256
-160
-64
368
-96
-512
288
-48
-1376
-240
-1184
-224
-1296
-1712
-800
-992
880
608
320
-80
-736
256
1792
1200
-720
608
1456
496
-1472
432
960
1728
1376
-752
-992
464
-208
-2048
-1520
736
-528
-128
624
-448
176
1984
848
-192
-896
-288
80
-1184
-464
-624
-32
432
-128
-816
176
-672
-864
448
-272
-304
704
0
672
1360
368
-768
-816
-32
-496
288
976
560
1120
400
800
-160
240
1152
1104
1024
704
512
-272
400
464
48
688
288
-96
576
320
912
304
272
-384
-960
-1040
-112
-592
112
-848
-1632
-1168
-624
-704
-672
-1728
-48
448
-176
576
-288
-368
208
-1136
-256
-256
224
-960
-272
112
-768
192
0
304
784
-464
-400
272
-208
-1104
-1552
-560
384
1168
592
-368
-336
112
624
-272
-48
752
-464
-256
1632
784
-208
-144
-176
432
1568
16
-560
-112
912
-256
176
736
1184
1472
400
208
224
1056
-720
-528
-496
656
384
64
96
-1040
944
896
1440
1280
192
624
0
720
-464
-1744
-816
-688
560
880
-912
480
-48
464
528
-528
-960
-48
-944
-176
-624
-496
-256
96
432
192
0
448
-576
-912
-464
-240
-800
1088
512
-176
-528
784
-176
-704
-576
-320
-16
448
896
1568
1360
-384
144
1040
-400
-176
48
512
-304
-368
736
1616
-16
-368
-448
-592
-352
-144
-736
-80
768
1440
80
-1120
-1264
-80
736
-208
-64
192
-1024
-432
592
1280
64
576
944
736
80
-256
-480
224
768
-448
-784
320
496
-1120
-656
736
-480
-1008
352
592
704
416
288
512
336
432
704
416
256
176
848
976
176
-304
-720
-368
272
160
-928
-512
-400
224
752
-240
-720
-160
272
288
-80
352
304
-304
-528
-512
-448
-896
-416
736
112
-112
-928
-992
-816
-1056
-1088
-1296
-1408
-464
448
1040
-336
-1408
-576
176
752
352
1216
1456
160
-336
-1072
-1104
128
368
192
-320
128
-32
656
80
-80
-1744
-352
1024
160
368
608
-768
-624
336
160
992
1008
-448
-1184
-1392
-1344
-64
-528
432
464
64
-144
-112
320
656
480
-608
-384
1376
176
416
176
-112
128
96
-112
160
384
-144
-1024
400
560
512
1456
112
480
-368
-1584
-256
-80
16
-560
-784
-672
-1024
-1184
128
1440
1552
-160
-1024
-64
-576
-560
1184
1216
192
32
-176
-416
928
-16
224
208
-464
-1488
-544
-640
-752
-688
-416
-48
352
-256
160
-480
-64
1184
192
-752
-208
352
976
-352
560
-352
-1200
-624
656
880
-128
176
432
-224
-928
-32
1088
128
-448
-1168
-496
-352
-848
64
0
-992
336
352
864
1200
528
752
-576
-368
-16
224
-736
-800
384
1296
624
-400
-128
1136
976
144
-240
-176
32
800
1008
528
-128
-224
-368
-352
1232
1296
1056
176
-16
1296
1680
656
784
464
112
-112
608
-896
-720
624
80
-96
448
224
-704
160
96
-544
-288
-816
1120
800
-592
-768
-752
80
528
-80
480
112
-96
864
560
480
480
1376
336
160
0
960
544
592
656
-384
-192
464
-912
-288
256
-368
-480
-304
-128
672
-128
-1008
480
352
-240
-480
-304
-368
-1344
1136
304
1008
688
-32
464
-320
-464
-784
48
720
400
-224
-1104
-160
720
-224
-128
512
320
1312
896
-416
272
-336
-992
-704
-704
-1056
272
688
-928
-464
288
-32
-464
240
96
-368
336
816
-176
-1328
224
1232
224
-768
-704
960
256
-448
1184
752
16
1296
880
160
-496
-656
80
432
608
-736
-592
-736
-976
96
736
32
0
-304
256
720
-528
-1424
-192
304
-144
304
1360
144
560
-944
-1920
-64
560
-240
-400
144
0
-624
-80
1264
1424
528
-592
-384
-176
192
352
-896
224
-1488
-1440
336
848
624
320
704
112
-1152
-1632
-400
-64
-128
-832
-224
-1024
-720
-320
800
464
432
-208
-592
-1264
-960
-672
176
-976
-64
-576
-656
944
-560
-1088
192
-208
-656
-128
-176
160
128
576
64
288
-320
208
-400
-1712
-1360
-544
336
-400
-112
-272
800
-272
-80
-112
-672
-544
-592
896
1696
160
368
944
-1232
-336
-256
-1168
-960
-992
16
80
-624
720
496
-16
-944
-64
-336
-1200
-976
-16
-560
-288
224
-160
-224
-96
576
672
448
128
-656
704
736
496
-1696
32
480
-496
720
784
256
-1168
-1168
-1456
-208
416
448
-176
-816
-1232
-1152
-272
-1024
-784
0
656
32
-144
-640
-832
992
1456
-592
224
-128
384
448
-224
-864
320
208
-32
256
464
640
-144
-1040
-240
880
800
-176
-992
-576
912
960
112
-848
16
1168
1248
16
-128
-832
-800
-576
-448
160
-576
112
768
224
32
672
-1552
-112
544
464
160
-336
992
-96
480
-96
-224
48
1296
560
1376
1664
672
-592
-608
-1008
-1136
-816
384
112
352
1088
816
1024
832
960
-32
752
656
-304
-752
416
624
208
560
720
784
288
32
48
-576
-1072
-1456
-752
-560
-176
352
944
-208
-80
-608
-672
480
1424
992
704
1328
336
-624
-624
-448
-160
-96
288
-416
608
960
752
608
752
448
-544
-592
-848
160
-256
816
-224
-1328
-416
496
-64
-1456
-1248
32
-320
-656
-432
272
48
256
-288
240
-400
-912
896
736
16
-64
544
144
576
1008
592
-32
-640
-96
-800
80
-1232
-448
784
512
464
1136
-272
-832
-304
-48
-272
-480
80
368
416
128
240
640
96
-784
-656
528
1104
-528
-48
800
1072
1360
1424
720
1344
384
-384
416
768
160
432
-144
-48
-496
-192
256
672
656
1200
256
1360
480
-656
-400
-272
-272
512
944
-208
-688
-304
-848
320
944
880
736
-32
1360
-144
672
784
1040
592
400
-384
-560
736
1344
416
336
80
-800
656
-320
192
528
160
880
-640
-880
-368
-512
-480
-1216
-240
400
-400
-192
-1312
-496
1008
896
-320
-176
-512
-720
320
496
-240
-336
-336
-960
-560
704
880
64
768
-1296
-80
-240
-32
304
304
544
-96
112
-592
-1728
-928
144
-368
-352
-912
-1280
-1104
-912
-912
-384
-416
720
-336
-1232
752
-1184
-672
-544
-928
-192
-1360
-416
-1024
-128
560
-320
-16
304
112
-896
-304
-288
-80
240
464
-320
-336
80
128
-1392
-1408
48
-496
-576
-400
1152
752
-1360
400
544
-1552
-704
-1376
-608
-32
816
-384
-1248
192
704
976
720
256
864
-320
-160
-544
352
-496
-144
-544
416
864
1024
-528
-288
400
768
704
96
-768
-576
-288
-896
1744
944
320
96
208
240
1056
-112
-144
480
-560
-1168
656
288
-1248
64
224
1104
496
256
-1104
-96
-432
-1328
-1408
448
224
64
160
-352
-800
-64
528
1200
112
-112
-96
-528
-48
-32
320
-240
-1568
-368
272
-608
288
64
-272
224
864
320
400
-208
-656
-480
-16
912
800
1040
16
224
-496
-544
256
160
-352
-1648
-896
-752
-608
-512
-1664
-528
400
80
256
352
48
288
-576
-32
352
688
592
-288
272
-688
688
32
560
224
-848
-224
-32
656
-128
-1056
-128
1104
752
608
272
480
752
304
688
64
-944
-1184
48
352
560
208
-688
-896
-368
368
96
320
832
1088
768
560
-144
224
304
1072
928
752
192
768
208
-1104
-256
800
688
-96
-208
-592
-32
-160
-976
-1152
-1072
-704
-576
288
-176
-656
48
-1200
-1392
608
48
-448
-1136
208
48
-368
-32
-576
-1744
-1232
-336
-464
-1264
-976
928
832
1360
544
1424
1440
160
160
576
848
1776
1312
-448
-272
-1760
-1088
-48
48
128
80
-768
-464
576
496
512
-736
-224
1104
1184
464
272
-336
64
368
1184
-496
-1648
-1424
-864
1472
-192
-1776
-1024
-928
-288
-832
-240
1264
448
-640
-464
-480
112
752
-80
1344
-384
-688
-704
-464
1120
1184
-1248
176
1104
608
496
-288
-96
-928
-656
192
-368
1248
1296
-1216
-1840
-48
-256
-224
-608
0
80
-912
-512
-384
-320
-832
-1040
-672
-48
304
576
-592
528
800
-672
-1104
-800
96
-208
-48
-656
288
1040
16
144
784
1280
688
-400
-608
96
-48
-432
-176
416
208
-832
-1040
368
-288
-1728
-192
-496
-192
-240
-512
-1136
-1104
336
976
1280
576
-32
528
-624
-1152
112
928
-1648
-1120
576
1440
864
176
-160
-32
80
608
272
432
416
-272
-976
-32
-400
336
320
640
-752
-784
-672
-640
592
512
208
640
512
192
-464
656
288
-624
-1136
-304
-48
-320
880
160
-832
-16
-432
-544
848
-496
-928
-32
704
896
640
256
512
-176
176
400
496
320
-160
-672
496
928
-448
-144
-560
-256
-432
-704
-1136
-1792
-768
0
1392
416
-112
-592
320
-1056
-944
304
416
336
80
-1136
-384
-512
368
752
736
-592
-944
-880
-656
-320
-256
176
480
496
-768
-640
-384
288
240
-80
560
480
1040
624
-96
-64
-704
496
64
-736
-752
160
112
48
-944
-640
-640
288
-416
144
304
384
-96
-160
176
112
384
528
208
1328
864
-160
-352
416
80
-720
208
576
16
-1184
-544
144
-1408
-176
112
912
-752
-816
208
848
256
-208
-1056
-1184
656
432
96
-784
208
416
96
-528
32
928
544
160
528
-656
704
912
320
-432
176
-16
544
64
-496
-448
-624
-576
-656
464
128
-592
144
752
1152
1136
-640
-816
-544
-304
176
800
-1328
-496
-96
-208
224
-752
-1408
880
736
-672
-208
448
240
32
-224
-240
-592
-816
-1360
304
944
880
208
1216
1264
-432
-160
-800
96
-992
-192
704
1056
224
544
560
368
-144
1248
912
480
288
96
160
-208
448
544
272
-448
448
1008
336
-304
-96
112
944
1072
608
1952
1136
-944
-1168
-368
-224
656
-176
416
-400
-16
976
848
-1024
-816
-32
-160
-576
-528
1056
1056
-64
400
-224
160
-640
608
704
-1152
-1424
-544
-528
576
592
-144
1056
-800
-1360
-448
1120
592
976
656
1088
528
-160
-144
-240
-1264
-336
1104
-64
-528
-368
-512
-1264
0
0
768
-592
-64
1936
1840
704
352
368
-496
-432
-384
-848
240
-112
-1200
-1376
-1504
-896
-480
608
512
128
1120
-336
736
976
-64
-1408
-176
-704
-96
672
-880
-1712
-64
-736
-96
224
1168
32
-1008
464
624
-320
-1152
-1264
-1296
672
1680
-624
-1072
464
-32
-512
704
784
128
-128
1008
304
704
1216
560
560
-336
-736
256
-912
48
576
432
-208
-736
-848
-944
-960
-640
848
-416
1056
1328
1088
1104
912
-416
32
-544
-1088
-832
192
-16
-1136
-112
-48
-400
-448
544
464
192
864
672
-272
-960
-416
1104
304
528
272
-352
0
-1168
-304
560
-272
944
736
352
576
16
64
-272
-768
160
-1040
-176
1168
-288
-864
-880
-832
592
-848
-944
-384
368
-704
768
144
-160
-544
-704
-1216
-352
0
784
-128
240
1824
400
112
32
-432
-864
16
112
-400
-624
-704
144
-640
592
1328
480
-144
-416
-16
-944
-688
112
144
16
976
1040
736
688
-176
-16
416
896
1344
-16
848
1712
752
-160
496
-496
-208
32
880
-368
208
1136
624
-368
400
96
144
-1184
-416
-176
-352
-864
480
1808
960
112
-272
-880
-720
160
160
-656
-544
848
368
-880
-1760
-1872
-1280
384
1440
-48
-32
1152
928
416
-464
448
352
832
864
0
-288
288
-336
-560
192
-944
-528
192
128
-368
-96
-64
-1376
-320
-768
-816
128
224
-240
800
272
64
240
240
1056
-368
-864
176
1360
1552
368
-640
704
368
-224
624
64
-880
-544
224
336
304
144
0
720
1072
576
544
176
-240
-592
-16
-688
-1024
352
-384
-1152
704
16
192
1264
976
-352
1440
1104
384
528
512
112
416
576
-240
-592
-48
-672
368
688
144
320
-32
0
-32
-640
-832
-160
1056
992
496
-16
16
64
112
720
1552
80
-464
-480
384
-272
-672
-80
288
336
-496
-544
80
336
864
1280
320
576
-192
-304
-592
832
704
32
704
704
-144
192
1760
1216
-992
-512
304
-224
-160
-1184
-336
-752
-1072
1200
1472
192
1184
592
-576
-672
-336
832
-384
-240
784
640
768
-816
240
-960
-416
352
16
-432
-336
-272
-32
-448
-1296
0
-96
-896
-592
-160
1120
1712
640
16
-80
-304
1072
656
-1184
-464
-432
-896
-416
-400
192
-272
-336
-704
-192
672
-64
-176
-912
-176
-976
-304
-384
-128
384
-288
816
208
-64
288
96
144
-368
976
32
1088
288
-128
352
1552
416
-176
304
-384
288
-160
-432
-608
-1024
-608
224
800
1488
1040
256
624
1008
-608
-128
608
-496
-64
-272
-784
-1136
928
432
-608
-1504
-272
80
1488
192
544
512
-256
-608
-304
288
1152
272
-80
624
-1264
-656
-848
96
112
-656
-848
640
992
-576
-656
816
1616
480
672
240
192
-576
-528
-1024
-736
352
-592
112
-64
-656
768
224
-736
-400
144
560
-160
-848
-224
400
-288
-752
160
1584
1088
96
1424
128
-336
-656
-432
-1280
-208
144
-688
-240
432
1104
-16
-848
-848
288
-544
-576
560
-352
720
1312
128
-560
-432
-368
-320
848
1440
336
-32
-432
-128
352
-272
-464
-560
256
784
272
288
544
432
864
240
928
864
336
880
128
224
1280
480
-448
112
480
176
848
-304
-848
-160
688
-496
-912
480
576
176
48
-240
1040
640
-48
-496
-176
-976
560
768
368
1504
560
-1200
-1040
-384
-864
-960
-784
448
16
-304
-208
-384
352
208
320
1120
864
304
-400
-752
-720
-608
-512
-976
448
192
-608
32
448
128
-1088
-1152
528
720
384
16
144
1344
-672
-288
0
-256
128
224
752
976
1056
-288
-1184
-400
-96
352
704
-448
-688
144
1040
-128
112
-64
-528
-1200
-368
1632
1840
992
960
144
-768
-16
-1696
-832
112
672
688
-688
320
-848
-352
48
224
240
768
-144
-1536
-384
-112
-384
-192
-448
-640
80
528
1328
1248
240
704
528
-1184
192
160
-1408
-1408
-352
-480
864
1056
352
-1216
-160
-368
-912
-112
-960
-1440
96
208
432
48
-176
-16
128
32
768
320
464
576
-432
-608
768
288
-256
-80
256
48
336
-176
1072
16
1008
352
368
-256
-800
-480
96
-832
-352
-336
-1744
-1424
-80
912
-592
-720
448
-400
-1024
-928
-608
-80
816
432
0
-272
-624
128
-448
256
288
272
288
-1328
-448
-48
720
400
-32
16
-752
-304
-272
-160
-16
512
176
-1136
-528
-736
-16
-1312
-1184
-800
-608
-848
-784
-784
-144
224
-336
224
128
-432
720
2016
224
112
208
1104
640
1168
752
-576
688
80
-1248
-272
-704
448
1232
288
896
1072
-464
624
-576
-400
128
-416
368
384
-16
-512
1008
-864
-304
32
-976
192
-608
-320
64
-608
-1040
-544
-160
32
1136
736
-96
-112
160
656
32
768
704
80
-672
-448
-784
-528
592
1312
864
160
-608
-80
-160
256
704
704
480
640
-1232
-432
640
-128
112
560
-752
-1072
176
128
672
112
-192
416
160
-832
-704
-752
1168
784
720
864
464
-192
880
512
1200
1040
800
720
736
-960
272
688
-128
496
352
240
-352
336
-608
400
640
1072
800
576
672
512
-736
-768
64
-400
480
384
96
-848
256
-16
-576
-240
1088
-80
-1952
-592
352
432
176
-144
-576
-304
288
-352
0
-576
-480
288
-144
-848
-752
752
672
400
-64
240
432
128
-112
-720
-96
-448
-432
-304
0
-496
16
-400
176
832
368
-176
-560
-1552
-544
320
448
48
672
-752
-880
-512
288
160
608
-320
-912
-816
-656
-16
160
688
-304
208
-80
-144
576
-656
-272
-368
-896
-352
736
-320
-1168
-1072
-560
-1216
-1088
912
336
-176
368
928
496
992
1088
928
-752
-384
-128
496
240
-608
0
592
1872
1840
112
64
672
-128
80
1552
1120
1008
-544
-1296
-656
1024
992
48
-1216
-160
32
704
96
-128
-64
-560
-176
144
176
-944
-64
880
-512
-240
-1088
-576
-1072
-64
592
1888
976
224
-864
-704
816
1648
624
-960
-112
896
-80
-16
160
208
-304
-192
256
-432
-1456
-1760
-304
-704
-768
1072
1360
272
-400
1024
896
-128
384
704
64
-1472
-16
-208
544
-224
-432
896
-192
64
128
256
352
864
128
1312
1136
16
592
-208
-688
496
1424
160
1456
1200
-704
-736
-112
-576
128
-16
32
-48
240
208
688
128
-384
-672
848
608
-864
0
-960
976
816
1024
0
464
128
512
-144
-752
-480
128
48
1952
-64
256
-704
-1248
576
656
-224
-560
-512
-976
-32
-80
-832
-368
-1152
-128
960
-672
-912
-800
800
1552
880
-528
-240
592
1552
576
-528
128
1104
-64
-304
480
-608
448
208
-752
-768
-592
-672
-736
-784
160
-160
-576
832
304
288
208
240
80
-832
-784
16
960
752
-480
-720
-1440
-592
-240
128
-496
-976
640
1088
-720
-560
384
960
16
-400
608
-96
-160
-1024
112
-320
48
-48
368
-416
-816
-1024
-768
544
-176
-576
-224
-256
560
96
-416
176
-1056
-1376
-1200
-736
416
928
-16
688
960
496
-176
-1776
-528
640
288
0
-160
400
0
32
-240
144
-960
-1040
-1136
-288
-80
-384
-64
-384
-96
-208
-1264
368
-640
-656
-688
448
544
48
80
-480
-864
-240
304
176
-448
-672
848
560
-528
-752
-688
448
-400
-752
80
176
416
336
-1088
464
912
592
432
-32
32
144
-1008
-1024
-976
-1376
-512
-272
496
336
1216
496
432
448
-192
1248
544
-1104
-672
-528
-16
-816
-944
-912
-576
-832
144
480
736
-144
-32
-192
-32
208
880
-64
512
240
-160
96
640
1360
1440
-48
256
-1184
-1520
-448
672
-208
272
1008
656
336
-576
-432
-768
-400
-576
-1136
-736
272
1024
880
512
1168
656
-16
160
48
-1216
-1648
-544
128
1024
1120
480
976
832
48
-1088
-1360
-1344
-368
32
448
1008
496
-256
-416
352
496
-688
-80
32
400
1376
832
1808
288
160
784
48
-256
48
448
-320
-656
688
1008
-336
-544
-1632
-272
-1184
224
896
752
48
112
880
176
1328
224
864
176
1040
1376
560
560
272
64
-1024
96
464
96
-368
528
640
656
-32
528
928
1632
-272
-640
-448
0
-224
-592
848
-16
176
304
-1184
640
-496
-544
-336
-16
-512
48
-320
640
512
592
-592
224
-96
-672
-608
-400
64
80
1040
-80
752
144
512
240
176
432
-272
528
1136
1424
1216
1024
1184
1104
800
672
336
-1072
-272
592
1392
976
-400
-1536
-1184
-672
-720
-576
288
-80
656
1424
1936
320
576
208
928
-576
-1184
-1584
-1232
16
48
432
560
-656
-192
-688
-352
-352
-208
-320
336
576
832
464
-128
544
-240
-1760
-864
-1200
-128
-128
-1184
-896
-1088
-768
-1696
-176
992
256
176
-848
-1312
-432
-576
272
16
608
464
96
144
496
240
-160
-368
-128
208
1280
336
224
-464
-288
224
-848
-48
16
1168
640
16
-1072
-96
-256
-272
480
-384
-64
0
-496
96
-112
192
-656
-752
800
1072
-336
-512
-384
-96
-592
-144
560
912
544
512
-384
240
-816
784
-160
800
1008
-80
512
96
-736
480
1232
-80
-128
-176
-992
-176
1424
1200
864
-464
-1200
16
-1360
-912
-224
80
-432
-1248
-480
-448
368
672
-496
400
1312
-272
-1200
-688
304
1392
-512
-464
-96
-48
-336
608
80
0
-1088
240
144
-864
-96
368
-112
-448
-496
-16
-352
-160
640
-224
-976
-224
-912
-1168
-336
-336
-272
160
-240
-368
-304
-752
592
1664
800
-736
-736
-48
-32
-16
-320
224
-512
-16
-784
912
-464
208
-1184
-1104
368
-256
352
752
1504
384
-32
-544
208
-112
-160
432
592
768
1200
720
848
-800
464
64
-224
912
528
208
656
-288
-416
-464
608
80
352
704
-288
-480
-944
-320
272
944
1600
208
-480
-592
96
464
624
-64
864
224
400
-240
-592
320
2032
1360
896
192
128
-608
-736
48
-368
-1072
688
-448
-336
576
1072
624
-352
-448
-528
0
304
-1120
-512
0
-640
-176
-544
384
1632
576
-592
-1776
-1200
-560
256
400
-816
-368
-176
-256
864
1184
-624
240
160
208
368
-1152
-1120
784
-480
-432
752
1232
288
-976
-368
-128
192
128
-576
-224
352
1392
-528
-1040
-208
1568
1600
768
16
-368
-320
464
160
320
352
-384
64
608
-400
-992
-384
-144
320
-192
-1120
-1392
-720
-656
288
-352
-960
-976
-496
-336
544
128
-144
-160
144
0
-288
-208
-400
16
-416
-208
688
-768
-624
240
48
-800
64
16
512
-64
768
1488
784
-976
-192
-64
16
1008
320
128
320
384
-864
128
96
528
1168
736
-384
-272
-352
-1184
-1536
-1056
272
464
784
608
32
-224
144
-208
320
704
800
832
880
304
-448
-464
-528
16
416
560
1632
1904
1152
144
-80
-32
-560
-704
384
112
-160
1104
880
-400
-32
368
608
-608
-592
16
-1168
-784
-1088
624
1088
1008
336
-272
1056
1232
-400
16
-704
-1744
-912
-832
480
-1824
-64
-64
528
224
96
384
-656
-272
976
1232
1776
-128
80
-656
-320
576
272
16
16
-352
784
192
-1088
-240
-1008
-624
-432
64
-560
-512
-336
-480
48
352
-560
-272
-960
-1136
-656
-128
-336
-240
-272
272
672
400
416
1104
944
464
464
448
176
-496
-560
-816
-1056
112
960
912
736
1280
-256
176
0
160
-64
-1664
-720
1040
-368
-928
-480
-752
-208
-96
880
448
368
768
-1392
-1168
-1264
-224
-496
-736
1200
832
-496
-1360
-576
64
48
560
544
704
576
1888
-864
-1152
-800
336
1712
80
1360
1616
480
-464
-256
-400
-1552
-432
-528
64
320
-304
-96
-368
352
-112
16
224
-496
-640
-368
-528
-848
-144
0
192
-592
48
512
48
-336
-480
240
80
-144
96
352
656
-96
-1632
-640
368
-320
1152
624
-64
832
224
-48
496
-720
-1024
560
64
-1056
-208
96
576
144
1168
240
-96
-752
-1280
16
448
752
816
288
32
64
-96
-416
-1184
16
-336
208
256
48
-736
416
272
-800
-304
480
-1088
304
880
-208
-848
496
1136
112
-16
736
-160
-352
-304
-656
-96
-1344
-1104
-544
848
-96
-256
-128
288
-592
-816
96
-720
336
640
368
-128
-32
1008
-576
-464
-544
-96
256
-320
416
912
-592
-800
-608
-2016
-512
192
144
336
432
576
864
-352
-480
-688
432
1008
1424
896
-496
-720
768
16
-160
-272
656
416
-992
96
16
688
96
48
-544
-384
304
816
-368
-1568
-128
-1088
-1232
-96
-80
1136
-320
592
896
64
240
-816
-304
-80
-272
-432
-288
-864
1280
432
-880
-1040
-1024
-336
-448
-160
-352
656
816
-992
-1408
-752
-400
16
-624
-592
-112
160
-1712
-208
288
1216
224
-272
192
80
592
-1248
-208
224
-512
-880
-496
-96
224
352
-16
-608
-272
-464
-368
976
-640
-272
1456
576
80
-432
-512
-736
1152
736
48
80
1392
992
-16
64
-528
-160
-768
-1456
-160
1328
320
-592
-976
352
-128
-80
-480
-1520
176
-960
-912
-208
304
960
720
1056
240
-368
-352
352
-336
-368
-1248
-496
-352
128
464
128
288
1168
640
-32
-1152
-240
-512
-176
-368
112
864
-384
256
-384
-32
1728
192
64
736
832
688
0
32
-1264
-608
80
-496
-1664
-400
848
-80
-160
-608
240
1856
0
528
256
176
1232
240
1216
1440
1024
576
-384
-640
-144
-368
288
-720
592
-352
96
608
-208
224
-16
-528
-1024
-608
-1744
-1968
-400
160
-208
-208
-864
-1024
32
272
-592
-1088
-80
-336
-768
320
64
96
144
-16
1648
640
-928
-960
-1024
656
384
-816
-448
688
512
-304
1008
480
576
-1168
-544
928
272
544
912
624
896
1168
1392
416
-496
624
-576
-1296
304
976
192
48
176
-208
64
416
624
-272
496
-384
-304
768
1248
80
592
48
16
608
-352
160
-32
-128
80
560
768
720
848
400
320
-176
496
-448
256
1200
304
96
-256
-48
-672
-192
-576
-1488
-1808
-1104
-400
-576
-208
-320
-944
0
1152
-1200
112
-304
1184
832
-1520
-608
-960
-464
-80
-192
-400
-288
-1968
-224
960
432
880
208
96
-336
-512
-48
176
80
-48
256
-352
-576
528
1040
1376
800
0
208
160
-896
256
-368
-672
-496
-928
16
-1040
-64
800
512
-480
-352
-384
656
-384
480
384
-1680
-816
256
-240
352
416
368
1008
-608
-352
-560
-80
-1184
-1488
-1120
-704
96
-32
-304
-128
208
-336
-656
-928
-1024
-656
-672
-496
-464
320
-192
208
688
208
448
704
576
640
-704
-1024
-640
-1024
-1776
-768
128
80
-864
-944
-1552
-640
-1120
-288
-640
-320
912
192
-432
-704
336
128
64
-208
-16
-448
-960
944
416
0
112
288
-176
832
-352
80
944
320
336
-528
-1088
-224
-480
0
-416
-160
-736
-1136
208
-944
-1136
-288
-416
-544
-400
-304
-800
-1456
-368
-496
-592
-160
-96
112
-112
688
1008
336
1008
1328
832
896
-576
-64
0
-352
592
688
384
400
1024
112
-1168
-352
-192
-496
-608
-704
-848
-176
1040
960
1120
-128
352
944
496
-992
-1120
-1136
1232
1040
1648
656
608
-560
720
1296
-992
-400
-544
-496
-304
-688
-704
368
-352
-48
800
352
-416
768
768
944
304
528
-992
-1152
144
1248
592
288
736
272
640
960
864
912
-736
-1040
-1008
-976
896
1776
256
-80
608
288
1024
1008
-448
192
1472
928
-96
-336
-816
-1424
-1472
-1616
224
736
112
64
-112
-112
-608
-96
-432
1200
560
-544
192
-736
304
112
576
32
352
608
944
-128
-432
64
-64
320
96
64
304
-784
-608
336
1184
-496
-80
-112
416
816
1616
352
624
-1008
-624
368
-48
-1712
-448
-176
-304
-544
-368
-1264
-1696
-432
96
-432
176
1120
-432
160
368
432
-144
-224
-320
352
736
976
-592
-928
-48
848
544
1792
-192
-944
-688
-1120
-1168
-624
640
1200
1408
512
-1104
-1184
-656
-624
-1808
-592
96
-496
-704
-560
-288
-240
-416
-512
576
208
192
1808
960
720
528
1264
-96
-576
2032
896
64
-608
-736
960
-48
48
-432
-656
-368
400
1392
896
800
512
-608
640
704
1488
864
1376
-192
-464
-560
112
-304
336
976
800
-496
544
-32
112
944
208
592
-288
-304
48
496
-112
-368
512
-624
-512
-224
-704
128
-864
-784
-480
-2000
-944
-768
-720
-64
-480
-704
-288
768
176
-688
-864
-160
-144
640
-256
-672
608
-432
-1056
-272
-240
-128
-80
352
112
160
1504
672
-560
-528
784
-240
-272
-1840
-976
-560
96
32
-464
432
-1264
-1056
192
288
-1504
-720
288
-528
-624
-1472
480
880
-592
-416
768
64
720
464
-384
-1088
80
1264
-544
784
-400
-416
784
1088
1392
1104
-400
-384
-208
96
-464
-1920
-112
2016
1408
1712
368
48
864
208
576
48
-1600
-640
-976
112
-528
-1008
-1536
752
1072
384
528
-576
784
416
512
-1392
-640
1296
1472
304
688
-16
-432
-32
-288
-864
-1136
656
-752
-528
-96
1296
1920
1360
528
-272
-80
-160
-256
352
272
-944
-656
288
0
592
96
160
-368
-944
-512
-96
272
-736
-176
-160
-912
-16
-432
-416
-496
-288
288
-48
-592
-176
-32
480
544
-336
-208
64
80
1120
272
-1472
64
1248
1344
-96
592
320
176
1504
432
-544
576
-464
464
1744
864
-256
-544
-768
-400
-544
-880
-304
176
-208
672
-128
1568
1280
1024
384
784
-528
-192
560
416
-160
144
960
-304
-240
672
-864
-976
-32
400
-16
-688
624
1216
736
-80
656
816
-272
192
192
64
176
-448
-384
-1008
-128
1008
656
-672
-1120
-944
-208
1120
16
-976
-1104
224
544
112
160
80
96
-400
-576
-240
688
-368
-352
448
528
-32
-608
-368
-288
-464
1024
800
288
-896
-48
320
-256
-784
1040
976
944
736
800
176
176
-592
-1952
-896
-1008
-592
560
-112
-1184
-432
400
112
-288
-560
-1920
-832
1216
672
608
352
176
192
-1168
-1952
-224
400
464
-176
80
224
-384
128
144
-192
176
-144
-1216
-1360
-1248
-1952
-784
-544
-656
-224
1456
1344
800
736
688
768
768
-64
768
1200
368
576
304
832
768
64
656
-64
240
816
-192
-208
-848
-752
1200
736
-624
-864
-896
-416
320
-832
-848
-512
464
880
416
960
944
32
288
192
32
-240
288
-160
560
-16
960
1584
-672
-736
-352
48
560
-672
-1600
-848
-288
16
-176
-864
-288
512
464
368
-576
-416
-1968
-816
912
592
320
640
880
864
-832
-192
112
0
192
544
320
48
608
-128
-176
880
0
176
224
-192
112
-416
-1216
-832
-448
48
416
-224
-224
-48
-32
352
-96
-336
-816
160
144
736
0
160
272
64
-160
-16
960
336
-416
848
752
-384
256
-80
1088
-160
-128
-224
816
-16
224
-416
-656
-48
-288
-1120
288
256
192
1056
816
-160
80
928
672
352
-64
576
336
-720
-816
384
1232
128
-48
1472
704
672
256
32
656
704
-96
128
16
352
-448
-656
-624
-16
-800
-320
416
1024
256
272
160
-752
-528
-240
32
624
-160
-288
-496
-1120
-32
640
128
432
544
-176
112
-352
-384
-560
64
-384
1056
528
-128
-336
-128
432
528
-400
-1200
-672
-1616
-1120
-112
160
-352
-640
-208
-656
144
1040
432
-464
-112
-464
-240
512
736
384
304
-720
-528
-16
400
16
-720
-1392
-288
-32
-288
-64
416
160
-1568
-880
224
432
1376
-192
64
288
192
-288
112
992
64
224
-48
-608
96
192
896
1344
528
-1008
-1216
624
1072
1264
624
-32
1552
1120
-224
528
128
816
1344
1504
-176
-48
-192
-1216
192
768
-480
-256
1232
848
-240
224
-768
-432
672
256
864
352
240
-112
192
1024
-528
-1760
-1440
-512
208
-112
-736
-304
304
-592
-352
-416
1280
1216
400
288
512
1072
304
-736
-304
464
-80
608
992
-320
-1440
-2000
-512
-896
-1824
-1040
-576
-400
-736
-112
-96
-256
-64
-912
-144
720
1568
1088
-96
-704
-272
1424
1136
736
448
512
496
-288
544
352
192
-1024
-80
-384
-592
-320
1392
1312
544
1568
-176
-496
-432
640
32
-928
-544
-592
-720
-880
-320
-416
-720
-864
1248
832
0
832
1360
1136
1024
816
128
848
-64
-544
-1536
-992
-272
-368
464
144
-256
736
1488
1232
-320
-176
-576
-576
-1296
528
128
288
-160
-80
64
-976
112
1440
944
-48
-1040
-1456
-864
896
1952
-128
-880
-1024
-272
640
720
128
-288
896
960
-640
-1472
-288
656
-32
-128
-208
144
-176
-288
-832
-480
-800
-1200
-1008
1488
-144
-544
416
32
-320
112
-208
-544
304
480
-720
-512
-1056
-672
592
-544
-464
1280
480
-768
-1184
-272
656
352
-176
1360
1024
800
384
352
-736
-384
-640
-1840
432
1376
32
-800
-64
480
1280
784
144
1104
928
-96
-624
16
-208
368
1008
240
-432
176
-528
-368
352
-48
544
400
368
608
-1520
-576
-64
272
256
160
-480
96
-112
1328
-288
-656
368
736
576
-720
-288
816
-192
688
1264
656
32
-288
-592
-800
-144
496
832
672
272
-752
-864
288
256
-64
-688
1024
864
672
-240
-336
-1024
-1456
-1200
-1680
-640
80
-128
96
496
-256
-960
208
1648
656
0
-496
64
16
368
192
-192
32
0
-816
-1216
1264
1456
512
848
1120
176
-240
-448
-816
-32
64
-400
-336
-192
64
-640
0
48
16
1328
656
-128
672
-288
-384
640
544
224
-144
-608
-640
384
832
-432
960
1440
256
864
1072
304
384
-256
-416
1248
608
-96
-192
672
496
-336
928
-768
-288
864
368
736
2032
1136
512
64
-1264
64
-352
272
944
80
560
32
320
-384
-1280
-16
192
-384
-256
-608
-1760
-160
704
-800
-1712
-784
-960
224
128
16
-48
-848
128
880
-432
-624
-384
128
576
1600
528
-48
416
0
592
-832
-896
-1120
464
1456
432
528
288
-96
-496
-48
336
-112
608
560
-16
-144
96
-512
128
208
-1056
-704
-240
-368
-528
464
-192
-704
-416
416
304
-1792
-976
16
-336
592
-688
-1312
-944
-432
112
224
-160
-1424
-640
-736
928
1056
256
208
912
-896
-2048
576
912
304
800
880
1248
80
-192
656
416
-272
-480
-400
-32
-224
528
32
-608
-400
-416
256
-112
-1520
-624
-144
320
784
-112
288
-400
-1008
-16
-1632
-896
-288
-1584
-1072
-1376
-1184
288
96
-688
-16
368
-528
-1840
-672
-896
-624
-80
384
-992
-1280
-944
-560
-720
-368
64
496
-560
-880
-240
96
-416
64
800
240
352
-480
-480
-192
-656
-176
256
320
320
368
688
-576
-992
-1200
-864
656
160
-352
-896
640
-1136
-816
-128
-944
-416
-976
-208
96
-432
-592
-1184
-144
-704
-704
64
-1216
400
1024
848
-1168
-960
-1024
-272
16
48
-464
-224
336
1040
768
928
64
48
128
-1184
-992
240
640
352
368
-544
-496
592
496
160
-80
-336
-416
272
-336
-1664
-304
1408
336
256
-640
-1040
-416
-368
-656
496
-864
-464
352
400
304
-624
-400
-736
-1152
-176
-144
912
16
928
1488
1168
624
-336
224
1056
480
-1040
-480
-288
-96
-96
-672
-80
-336
-320
448
592
544
304
1056
240
-320
-1136
-800
208
-16
-256
-272
-816
720
-960
-1024
-448
512
528
-432
-1184
-608
-432
-592
-496
960
-192
-352
-736
224
-688
-384
400
144
1312
240
352
-1136
-1344
-352
-784
224
1152
816
272
1056
416
-528
640
-720
-432
336
576
-128
880
768
448
224
-32
-672
-1392
64
-1840
-1472
-1696
-1104
-752
-144
-32
192
720
-800
-720
-560
224
304
1376
480
432
240
-352
-320
1120
-288
496
848
-592
400
-112
128
832
-432
-272
-80
-1408
-1008
-768
-560
-704
-112
528
1264
480
464
224
-624
624
1376
-288
-544
-384
112
1424
192
-560
448
-656
-992
-1184
-624
784
608
320
-336
-384
464
-928
672
1376
-816
-48
-368
-544
256
304
-320
-1168
320
128
1216
-704
-1328
-512
-736
384
-576
-48
-128
1056
448
448
1088
160
432
64
416
144
-80
352
1072
-304
16
-352
80
-16
-560
-176
-816
-64
16
1296
800
-32
0
-688
-192
-1488
-624
-112
-336
-272
-240
-224
32
-640
-912
624
752
-480
-112
-592
1152
1200
-64
-880
-416
592
224
928
-32
128
176
576
1040
240
592
-224
192
400
736
1056
1072
336
-16
800
1008
976
1328
480
-944
-560
-864
-864
48
992
-32
-368
-800
-1072
-64
-768
32
-544
-224
-800
-1584
-1360
-368
848
1200
176
240
1184
-144
-992
560
-16
640
1248
720
512
80
1488
1008
304
64
-80
368
1520
304
-656
1568
1184
208
624
864
144
-640
-736
64
112
384
-720
-416
-32
48
-1840
-1296
528
-384
-384
-80
-96
-1728
-1328
384
464
848
48
-1120
-1360
-720
-320
-720
432
976
256
272
-144
-16
-224
-384
-416
576
304
560
-96
-448
-16
320
448
-992
-1264
640
64
848
-144
-80
512
48
-176
448
464
256
80
320
-96
112
128
960
288
352
528
-784
-448
32
1216
1792
352
-96
592
176
-48
-752
144
176
352
192
-272
-1360
-240
80
-560
-1168
-304
160
640
112
16
1264
1408
960
-352
304
416
448
-1408
-1536
-656
-272
208
800
112
-112
1072
-64
-64
-384
800
176
-128
-704
-880
-240
320
-160
-656
-192
-144
368
1248
1760
688
64
672
-800
-912
1216
512
1040
160
-640
-112
320
144
656
944
272
1360
560
-80
128
896
512
544
256
160
864
848
1104
1200
432
1136
368
-576
-32
832
800
720
-384
288
-160
-48
-656
-688
-976
192
-48
576
80
544
-352
688
592
-464
576
416
112
-112
-224
880
-544
-352
336
-352
-464
-128
-368
-240
-592
592
-112
-1168
-1536
-1392
-1584
-1312
-240
-144
432
-288
-448
-304
-480
-1680
-352
160
-864
-512
-64
816
80
-608
512
1280
1024
288
848
368
0
672
1744
208
240
768
-96
352
400
112
80
-1024
-48
1120
400
-704
-736
800
112
0
-416
-176
-144
144
16
560
608
528
288
-720
-704
560
-720
-2016
528
656
1056
1760
-368
-832
784
208
400
976
1600
1072
272
1088
496
-320
-256
-560
-1168
-976
-720
-1120
256
192
-1648
-1728
64
-912
-144
1744
-576
-1168
-832
-800
-1536
-1392
96
128
-112
-304
-432
1344
-784
-336
80
-112
-1376
-1360
-1008
-784
-1104
-848
48
-288
-240
160
-336
-1152
720
944
-1328
-528
208
80
96
-1360
-176
-384
-960
448
-96
-736
-576
240
560
96
432
912
400
-640
-160
-784
-928
-496
176
80
-192
-384
-336
496
0
-1328
-1168
848
624
96
304
-624
-848
576
304
96
-16
80
-176
592
432
-720
432
-176
-400
496
880
1344
-32
-384
512
912
-192
-1056
-800
-1392
-976
-160
-400
400
176
-960
-160
-464
-96
336
960
512
-656
-592
-320
208
432
-16
240
0
-288
-976
0
-528
-544
32
-1264
-928
-688
-832
-784
-528
-528
336
432
-80
-576
528
-192
-16
80
736
1184
1040
656
384
320
-880
-560
112
1520
288
208
-320
-1056
80
1072
976
-720
-1824
208
352
400
1008
848
720
544
64
560
32
-768
96
320
1136
1216
0
272
432
512
960
288
-32
768
-368
-656
1120
912
-1504
-1008
1296
1056
240
-1360
112
-656
176
-784
-528
-848
-864
448
736
-592
-720
96
-128
352
896
0
816
128
-16
-176
608
16
-608
-672
-624
448
-544
-1312
880
720
-576
-1152
-672
-416
-112
-128
560
1024
672
-176
-992
-1792
-256
688
336
960
464
672
352
464
-176
-1136
-480
256
-880
-1712
-1312
-272
896
464
288
672
-576
416
1328
-144
-176
544
-32
-1616
-48
784
-480
-528
-448
272
624
384
-80
64
-464
368
-176
64
944
592
-144
736
-448
-1664
-640
-1120
-960
384
432
128
-64
-1840
-1776
-320
-192
-496
544
-304
-1520
-832
-1168
-1072
-912
416
432
-144
240
96
-848
624
-208
-704
-544
304
-1328
-432
0
544
1120
976
-704
-944
-224
-752
144
720
880
-640
-272
560
432
-816
-528
864
240
-176
128
400
768
832
144
-1296
-464
-352
224
512
-544
-1712
-720
-240
-368
-272
-336
384
304
-544
464
304
400
-288
-256
-64
-1248
-912
512
48
480
-416
-1088
-1120
64
288
560
144
960
80
144
-80
-1536
368
-576
-896
-480
400
784
1424
1168
-720
-512
240
848
1376
1936
208
-896
-1264
-400
-656
-736
64
144
32
-592
-704
-608
-1920
-96
1440
752
416
560
-496
-272
96
-672
352
320
112
-1136
-768
128
384
736
816
-32
96
-64
576
400
80
240
496
32
-416
-944
-448
112
-320
416
96
-272
-192
-656
-240
704
1136
1376
624
-672
-64
368
-224
272
560
720
0
544
-288
-544
-448
-224
608
-96
-208
-128
-368
-96
-256
-1456
-592
-592
96
-384
-544
304
464
-192
416
384
80
-1024
-640
16
720
-32
-288
112
-128
528
704
-352
-1056
528
896
1120
-240
-496
352
0
-176
208
-1248
-144
368
208
1152
912
1280
1248
400
-384
-560
-416
400
-112
-48
976
736
944
32
896
160
432
352
-480
288
256
608
-1184
-560
-1664
-688
1008
832
224
384
-1200
-640
304
496
1792
-112
-1760
-1536
-32
192
-16
-352
-48
1152
-224
608
880
1248
272
-64
-256
-1136
-1504
-448
336
-32
-928
-656
-16
160
-160
-928
-928
-608
-768
-1568
-896
-1760
-16
528
-32
-944
-480
-1184
-176
352
96
16
-128
176
-816
-416
832
128
816
-96
336
336
-64
320
-1632
-352
48
16
768
304
-128
128
0
672
96
-512
-544
640
-496
-240
-112
240
672
-816
-848
-544
-496
-464
384
736
1280
864
688
352
-176
720
240
-1344
-800
-208
144
-608
-1120
192
304
-240
-464
32
1488
816
1120
672
-96
448
448
704
-304
-32
480
432
-160
272
816
-336
-528
112
512
784
-96
672
1136
-64
-160
-592
-704
912
1040
640
208
1648
-544
-208
-320
1200
352
608
1808
160
1024
608
1504
704
320
512
96
-208
368
-480
-192
-464
464
384
176
-560
-112
160
704
-480
-640
-1456
1008
560
672
128
800
208
528
464
480
288
-64
-1456
-1344
-928
560
512
-1200
-1488
336
400
-432
-1088
-768
336
272
-880
64
480
528
-320
400
240
-672
-720
544
208
208
336
848
-144
-144
128
-128
-144
-128
176
144
1136
912
1168
-176
-416
-528
-800
-128
-1984
-128
80
448
448
112
-128
64
-32
-1360
-608
-592
416
1376
144
-432
-16
-1248
-736
-528
528
-960
-224
736
-64
1168
-576
-544
496
192
-624
-560
-464
-464
912
640
672
-384
0
-224
-272
400
432
688
1808
1072
576
-416
-1408
-32
-288
176
48
-1440
-336
432
-144
192
1024
1456
-464
-1088
48
-912
-864
176
368
-80
-1040
-992
-1280
-96
720
976
736
288
704
32
-448
208
-912
-704
800
928
160
-480
128
1136
1136
528
-480
48
-1136
-512
720
928
1024
784
224
-1088
48
352
560
32
1088
400
960
528
192
-608
464
192
-240
-192
128
-496
480
160
-864
-800
176
-736
-1584
-1248
608
848
416
112
496
528
336
336
400
-224
384
-48
-256
-512
592
192
-768
-80
48
128
-336
-592
-48
1312
784
-928
-960
-48
752
96
-768
-1440
-912
784
416
928
-192
-560
-816
-368
-528
-400
608
1456
1120
-448
320
0
192
112
-656
128
-256
1520
320
624
944
608
1008
352
544
-816
-608
-448
-32
272
-336
800
1568
1264
640
-736
-272
-784
-1008
-496
752
176
-256
-112
-704
64
688
656
-80
-160
-736
528
-384
-192
208
816
960
-224
544
112
-1024
-1440
-608
96
-1328
-496
704
64
208
400
928
832
-208
384
-304
560
720
-608
-992
-448
352
64
-1424
464
928
-256
-304
544
-1104
352
-96
-624
-640
240
160
-80
976
624
144
-176
-80
480
-400
-352
1088
272
848
-496
-592
-528
-608
-352
832
-624
-800
-512
464
-832
1520
704
-32
176
208
-32
-1200
-160
32
-592
-1024
304
1088
464
-240
1136
272
-16
112
944
784
736
752
656
768
48
-1056
-336
-256
-160
-288
512
176
1488
1008
576
80
-720
-608
-320
-320
-992
576
736
-1040
-944
448
208
-576
448
-112
-704
-80
-96
384
864
-336
-336
-304
-336
272
368
608
1152
-800
-912
-1024
-64
-688
-336
432
-384
-400
-96
-32
-624
-896
-1088
-1216
-272
160
928
512
464
1664
1152
-960
-64
560
-336
-848
-48
-112
-720
-320
-128
-864
-192
-832
-1008
416
672
-784
-1456
512
432
-240
-80
-416
-496
544
-1024
-864
448
-112
-608
1376
464
176
592
784
-384
-1024
-1584
352
384
-240
-336
1312
304
-1616
-464
-544
-896
-512
-1040
-496
-1184
-480
-448
256
-80
1104
1456
368
304
128
352
-480
-1952
-1248
-128
-784
688
1008
-480
-800
-784
128
-464
-512
-688
240
1040
128
-176
-208
-96
-16
-928
-160
-480
-1664
-1968
-704
-320
-432
-80
-272
1024
656
-528
-592
-800
624
-240
288
1360
-496
-960
-896
-1344
-176
432
-224
-304
688
480
80
608
-384
-352
-240
-192
32
1040
336
-1088
-464
-496
336
-720
-352
-1808
-784
-416
-208
224
-432
-400
-432
112
-336
-160
464
560
320
192
-16
368
592
672
-192
-304
-320
416
1104
1136
368
-704
-624
-128
-640
-1024
-1152
-1072
-288
-304
144
-160
368
784
-96
192
-112
304
384
-288
-1264
-1072
-736
512
-352
-1248
448
464
512
-64
672
1056
592
208
96
-256
-1280
-1168
-528
224
432
464
48
-2016
128
928
0
-336
-688
-640
144
1088
-496
368
736
240
384
736
-320
-768
16
784
-16
-800
192
448
304
-176
256
64
32
-368
-864
-16
-1040
-304
496
-688
-928
-480
352
768
96
-112
144
912
-80
784
-720
-272
16
384
272
800
640
1072
656
32
80
-304
-304
240
1296
192
240
224
368
-256
96
32
464
448
1488
768
1408
-432
16
-368
704
-240
-896
-736
-80
752
-144
-960
-1120
-624
-1008
-352
272
160
-16
-544
320
144
-1024
-1088
-464
48
-1024
208
224
688
-576
-496
560
1104
-32
-64
-1024
-720
-464
-416
-384
288
656
-1104
64
-512
-512
-224
-768
-832
160
1056
464
144
-64
464
0
1120
800
848
944
656
784
1104
672
304
144
-1008
-144
-400
288
688
-400
-1152
-1792
-752
-80
-272
-80
-96
560
960
-352
320
480
-16
-1280
-16
-240
1040
-704
-272
48
-384
288
640
-304
592
192
-224
320
144
-288
512
-688
-48
576
240
-528
-672
-544
0
-192
-576
-480
-1344
-288
-944
-128
336
816
-64
448
368
-448
-592
-416
16
608
-32
368
496
-576
-544
1040
960
-176
-624
864
800
528
0
-976
-672
-720
608
96
-880
-464
1424
896
112
320
-48
-384
576
256
352
-800
-384
-368
-512
-384
-848
-1856
-1168
352
1472
-336
480
-160
-864
576
-192
16
256
-416
544
-144
-1024
-624
112
-128
-896
-1040
-560
496
160
-288
192
768
1632
-688
-176
304
-224
240
-608
-256
176
640
-304
-496
-400
-96
176
448
928
688
976
-48
432
256
-336
-752
-144
-48
-112
96
1328
-496
-480
-288
-64
832
-256
-528
816
1056
-448
368
272
-384
160
-384
-544
912
1408
736
-16
-992
-288
1184
560
-368
-192
128
-288
192
-160
-32
-1232
320
464
592
-848
-864
-80
-1328
-144
400
-80
-144
-352
240
240
-128
192
640
832
272
48
-416
-224
-336
-784
-192
272
64
-64
1296
-32
-304
704
-464
-1376
-736
512
-464
992
448
-1056
-160
800
624
-272
448
96
208
-816
-1040
752
1280
368
-272
256
304
272
-320
-528
832
480
240
-304
1280
624
736
944
288
-368
-80
304
336
880
624
704
0
-480
-608
192
96
-800
512
144
176
-240
-16
368
368
1152
-80
-176
-368
-224
-272
-816
-864
-560
-1088
320
128
-800
-224
-944
-240
688
-640
944
16
-992
-48
-416
-432
-1184
576
16
256
-576
-704
-1024
-1424
608
640
-144
384
608
-688
-992
-992
-48
16
608
560
480
544
-400
304
608
1184
608
880
512
768
-80
-592
608
1728
432
64
-352
480
-880
-416
400
1024
944
880
928
-96
-1296
-416
608
224
1024
848
400
-816
-1056
416
640
-240
368
736
208
-432
512
1024
1056
576
-256
-976
-704
-528
-1216
-352
624
816
720
752
1392
528
288
0
496
192
1520
928
800
336
208
-624
-64
928
-496
-96
224
-336
-688
304
-352
-560
512
144
1200
480
-1264
224
816
1328
1792
560
1104
640
432
-1232
-1440
400
1632
1168
-64
-704
384
176
320
880
320
-1088
-224
-1312
-1264
-1136
-1488
-624
-224
-592
1200
1136
576
64
-128
1008
128
-656
-560
-224
720
352
720
720
-720
-560
-400
-720
160
-384
-400
288
160
-944
-1472
-1056
-496
-496
-1504
-1344
80
96
-112
496
-352
-272
112
0
400
656
496
256
-304
224
-432
256
528
-848
96
-48
-112
-288
-400
-1056
-32
256
0
-848
-592
240
-1424
-432
-944
-96
-64
1200
1120
512
976
288
432
208
720
448
-16
976
880
656
-32
-144
800
1136
-192
-336
272
-1328
-288
-192
288
80
-1552
-1392
-480
-192
320
-448
-368
-864
-1072
288
992
464
576
1136
112
128
-576
96
-96
-464
-720
-656
-464
416
1216
944
0
-960
176
-64
336
464
-784
-272
224
1136
400
-720
-624
-592
-1088
-1152
-896
-400
-784
-928
-528
-864
912
784
-592
-528
-448
336
1232
-16
0
1408
384
704
384
-544
-1072
-176
-432
-640
-1504
-768
-1472
-224
-96
384
256
-1456
-1024
-1392
-1152
-80
96
336
-64
-368
272
624
-160
80
272
-336
208
-1536
-432
-720
144
656
384
560
768
-576
336
160
-448
-1024
-384
-400
592
144
-832
512
16
816
1920
944
1632
-528
-320
-128
-112
-304
-496
1152
416
960
32
-96
-336
192
1392
208
-688
-672
-1216
-528
-992
48
336
784
-208
128
112
320
-176
-1152
-560
-480
144
-224
864
144
-272
848
912
32
-304
-144
272
352
-912
-880
-208
976
64
-1088
-608
-640
-240
608
736
0
-400
-240
-816
-1904
-720
-96
-240
-656
304
960
768
-464
592
272
848
32
-64
656
0
-1008
-1264
-1296
-1056
-320
-576
-496
672
96
160
704
-880
-960
48
1504
1792
704
-1088
-368
176
-112
480
976
576
560
-16
32
304
-256
96
224
32
784
80
144
-784
496
576
-1488
400
-272
464
1280
816
-560
-368
-1216
-16
480
-1184
-816
-416
-704
80
896
672
-112
16
0
-816
240
640
-224
-1328
528
-112
-960
16
64
-448
176
-1568
-1744
-1216
-1328
-752
-1024
-752
-432
-1072
-544
880
-320
64
576
672
896
640
912
400
592
416
-544
-416
0
-608
32
-176
112
800
992
-752
-560
112
544
-256
80
-432
-16
-464
224
304
-528
992
768
-1040
-560
64
672
448
784
512
400
1328
1808
1936
864
1200
640
320
-32
528
1104
384
80
-208
464
1008
720
272
432
1584
1440
896
768
-656
688
-32
-112
64
352
-896
-912
-464
-608
304
96
288
1088
-1104
-464
-1216
-496
1216
-704
-336
624
-512
-896
-1152
-80
-256
-432
-832
-1472
-912
-320
-96
320
-784
448
592
48
-128
-592
-832
384
-336
976
976
480
-80
768
64
112
48
-32
-80
160
368
-384
496
176
-736
-736
-176
-288
480
-992
-128
80
48
640
320
-32
-16
288
624
528
336
368
-272
-848
-720
-768
16
-752
-320
496
1104
32
-192
32
80
-640
160
1472
352
16
-544
-352
160
1104
192
1072
1632
384
-544
-624
-448
-224
-272
-528
496
1616
336
-1040
-176
-528
-336
528
704
-288
80
-304
-400
-432
848
-288
1632
48
-176
640
-224
-48
688
752
352
-448
736
432
-880
-96
720
192
336
592
416
64
48
32
576
688
1792
256
-48
608
-240
-96
-160
-352
-1472
-1184
-816
-400
-464
-448
656
-192
-944
-1696
-176
1600
192
-1072
-336
384
-112
-944
-128
-160
-1424
256
464
464
-400
-32
-400
128
416
-656
-544
-368
1392
1008
144
-16
-224
880
656
-352
-192
592
912
944
336
816
1648
320
48
736
-352
-1120
-752
896
1264
432
240
192
1072
144
464
-672
272
-1232
-944
480
-720
-608
-448
-80
-96
688
-48
112
432
656
1456
1216
368
-112
-400
320
1200
576
656
1024
128
992
-320
1072
1232
-288
-1024
16
352
592
192
400
352
-64
-208
-288
-1216
-496
128
-992
-1712
-16
544
-32
160
800
944
432
-672
368
-576
-592
-464
320
-320
-368
976
416
528
-720
-1376
-1264
656
-32
16
320
560
1168
-464
160
736
-128
-128
752
176
-464
-416
208
240
336
-512
-704
-368
-544
-352
-848
160
1056
320
-176
160
144
-672
0
1376
80
-1440
240
848
512
832
1664
352
704
1616
800
256
96
-896
32
32
-16
224
272
1088
1008
80
-528
-160
-784
224
352
272
-656
-288
496
-560
736
1136
-1200
-1520
48
352
-1520
-976
48
-656
240
-1040
-928
-320
544
672
-288
-112
-784
-16
464
672
240
-400
-304
-336
-608
-1376
880
720
400
352
704
-48
-32
720
528
304
-432
-944
416
368
128
352
1344
928
752
1888
800
-224
1152
192
704
-1248
-352
736
256
864
1440
1152
288
-256
-1312
-1408
576
816
288
-304
272
-304
-304
-192
-816
-736
-496
528
480
288
-1008
-720
-1280
-1184
-448
-112
-592
-1088
464
416
320
448
224
272
528
-16
416
-544
-32
-64
-336
-416
-704
256
-400
-1328
-416
-800
112
288
-1024
-288
-496
336
912
688
-256
-896
656
176
528
1648
1376
448
288
848
944
-704
-512
-1312
192
528
-432
576
384
-304
-1136
-1024
-848
-288
-1424
-592
-672
-1408
-192
720
544
128
-512
624
384
80
848
672
656
-560
128
192
-48
416
96
-304
288
-1264
-208
672
672
176
384
320
496
-80
-16
-112
704
-256
-352
-368
624
-112
704
784
160
480
-832
-816
368
1760
256
112
-176
-400
-640
-528
-208
16
-384
-992
-464
368
48
-752
464
1136
16
-384
-16
-496
320
-384
-912
-240
816
560
-544
512
64
-416
-384
-384
-608
192
304
-832
0
-240
-400
944
-192
-352
-288
-736
-544
-1408
-1616
-240
1152
768
-1520
-1536
-752
-240
-208
-816
-1440
-128
1408
1248
1424
880
-304
-736
-800
-192
16
-848
-544
352
208
608
80
80
288
16
-416
-448
-704
-880
-608
736
-128
-1296
-320
-1056
224
496
544
-192
944
576
416
464
-304
-208
-720
-704
-992
0
528
-32
-112
416
960
-432
-816
688
-96
-1792
-1552
-1296
-832
176
304
208
1184
768
-240
1184
1136
640
-432
-256
-368
544
960
352
528
880
-64
-320
-608
-704
-1776
-832
-832
-320
768
-656
-96
-992
-816
-336
368
1264
-32
-160
496
-464
-560
-1008
-208
-64
-176
-336
-576
-1120
-304
-112
-432
1264
16
-1232
-1840
-1184
-816
-960
-784
-224
-672
-944
-576
80
-848
688
720
688
-400
-208
304
1376
176
-560
-464
-976
-48
1168
576
-624
-960
976
416
-384
-1344
-160
672
1056
800
800
1296
592
320
-240
-320
816
208
80
-1024
-736
624
48
-816
-160
928
1424
1056
-112
560
240
-1024
-80
32
144
624
-16
-400
-432
-880
-160
448
1424
720
-96
-48
80
976
-1184
-1120
-512
-688
-1056
96
784
1216
112
96
-432
944
640
352
1056
464
416
176
496
-400
-1264
-224
480
-544
-576
-496
-400
-192
480
944
-272
272
544
-624
-1328
-400
544
464
-48
-32
1152
-336
-640
304
-672
-192
-560
-1520
-816
368
496
352
-208
-224
720
688
192
-976
-560
-560
800
720
672
1072
464
256
-1232
-400
-368
-288
0
-848
-96
-320
496
304
-304
-1104
-1088
-288
-1280
-32
288
-704
-448
432
112
416
-544
-272
-736
-128
-336
0
272
-80
368
1504
1424
960
352
-640
-1072
640
1632
704
400
256
-640
352
640
-560
-560
-1104
256
288
-144
192
400
-912
-256
-448
-112
-576
656
400
560
416
-832
-16
-768
-704
-800
-960
-528
608
-848
-96
928
48
-240
96
-1360
-1216
-768
-112
-304
-656
592
160
304
1328
-64
-816
-720
-416
-992
400
720
-192
-688
-576
-384
-176
-528
-928
800
1472
-400
224
272
480
1376
1728
224
-416
-368
992
-672
-160
256
512
416
192
1392
1056
-768
-656
336
832
-176
-928
-672
-192
-368
-368
-1312
-96
-400
-144
-32
160
-272
-480
-144
192
992
304
-784
-1120
-128
-1360
-736
-32
-112
-16
224
128
-48
608
-160
-304
-48
-304
-384
-1024
0
-720
-528
-704
-144
768
-240
528
-448
-128
128
-1024
240
1552
192
384
-528
-384
-112
-752
-624
288
384
-32
-96
-720
112
160
-320
128
240
-1232
-1216
-448
448
-992
-352
96
-480
544
1760
448
-128
272
-224
448
1136
1136
-784
-320
-528
720
-1376
-288
-368
-512
-432
-1600
-480
1344
416
-48
208
64
368
-672
-320
-672
-208
192
992
560
384
288
-544
-432
496
1184
-32
-688
-240
-912
336
864
-352
-1200
-432
32
-400
-928
-144
-96
304
1264
720
-416
-592
720
944
160
-416
-336
752
368
752
-192
-496
-384
352
192
-112
-656
-224
-32
192
-928
-1696
-1008
-560
-1024
-544
80
624
1072
976
784
1600
1056
48
-704
-1200
816
1040
928
112
192
800
352
-1376
-464
96
1408
1728
-224
-624
-1120
-352
96
928
416
-1152
-352
-464
-336
-592
-528
624
336
480
-176
-336
-1312
-464
-240
-1680
-736
-48
-784
-352
-192
176
-240
-704
-1280
-1120
368
400
272
-512
352
176
816
-560
-192
-128
-272
16
704
192
-96
288
752
592
1136
-224
112
752
80
112
-736
32
-496
752
224
1840
128
944
-272
-304
-272
-656
-1104
-1328
-400
512
768
1616
736
736
16
-1024
944
480
96
976
-256
80
288
32
688
1360
544
-224
816
-32
880
736
416
1632
880
-304
-672
-240
-400
400
48
944
592
160
-224
640
1472
784
112
80
384
176
-368
-224
1104
704
-192
128
896
800
496
-80
1088
496
-512
-496
-256
976
160
-96
-640
-1552
-32
1696
1264
96
320
-688
-560
1040
1104
816
-240
-16
192
-64
-704
832
112
-800
256
560
544
-688
-320
-560
592
304
-448
80
-352
240
928
1328
1088
320
-480
256
-1088
-992
192
784
256
528
432
224
-1456
-528
-128
-832
-192
-16
192
240
-1120
-432
-576
-1184
-176
640
256
-880
32
-96
-848
-1216
528
192
160
-400
-336
-720
-192
304
-416
528
336
-224
-656
-640
352
1040
816
-400
16
-96
1168
592
-928
-416
816
-96
112
-544
-352
-1600
-1184
-16
880
-848
960
96
704
864
784
1008
912
640
-1168
-416
1216
208
976
-656
-384
-272
496
224
-544
-64
-384
-800
-48
1216
752
-528
-864
272
-1040
208
208
256
944
672
592
1136
1136
96
224
288
-896
-1664
-1968
-128
-240
-432
-928
272
960
-336
240
-1488
-992
-880
-208
80
352
768
416
32
-944
-448
-192
-592
-1584
-544
320
528
192
-240
-416
448
368
496
224
1168
624
-32
-496
-464
-16
160
-32
256
528
448
976
624
1072
624
720
752
672
96
-64
688
704
1536
1120
1120
1424
64
816
-480
-512
608
-656
-944
-576
-160
2000
-48
-288
-928
-704
-512
-304
400
-320
544
944
416
160
-512
224
960
-544
416
0
-816
-992
-96
-32
736
160
80
-704
-1488
-1648
-784
-256
352
-192
-48
-240
-816
112
-208
-336
-928
-64
-320
-544
112
352
-32
128
-656
-976
-320
-400
-160
736
640
288
-80
48
704
0
384
288
832
224
-1392
-800
-384
-128
320
-560
-1472
-1520
640
944
-176
-1616
-240
-432
-576
-656
-1136
-768
512
1072
112
32
-112
-752
-512
-224
-656
-656
-224
-1232
-112
-128
-1424
240
-96
672
496
-448
-352
-112
192
960
-480
-928
-1488
-208
-1088
-864
32
688
832
-512
-576
-816
240
128
208
-1440
64
0
-800
-1632
-704
208
-176
-208
-96
320
736
1840
-128
-896
-624
-576
-624
-768
256
928
-304
-224
448
1104
1792
-384
-592
-880
256
96
-688
-400
-688
-624
-704
240
256
-48
48
-384
-1136
560
1104
880
-608
-1072
272
-576
-640
-576
736
448
576
64
-592
-896
-1824
-560
-256
-128
-80
384
944
976
-656
-544
1008
-144
-80
-144
-848
-256
-144
-64
-48
-704
-288
160
-336
-272
-1120
-672
-288
-592
1024
-272
464
976
-96
-544
-1696
-288
-1344
-784
128
336
-896
-16
-160
-464
416
144
-464
-16
160
624
-656
-464
160
1392
736
-336
448
128
-320
-384
-240
-80
-1040
-1328
-96
-640
240
704
768
640
736
336
1760
848
-640
320
176
-448
-384
-1040
-240
928
832
1552
1040
32
112
880
-32
992
1072
1040
80
592
96
-480
-80
-512
-464
-640
560
896
992
736
-384
-640
-976
-224
-256
960
832
912
944
480
-656
-624
-1024
-480
-176
512
624
-400
-16
288
192
1888
944
400
-208
-1248
192
1328
-240
336
16
-320
-416
432
1008
-704
-304
-576
928
1168
144
-64
-336
-896
-1024
-1408
-816
-624
-944
-912
1504
368
-144
-400
-480
-432
-464
0
384
-240
-832
-928
-784
-64
-336
-64
1024
1280
480
128
-192
80
-656
0
752
928
-208
-400
528
560
-960
-992
-1072
64
720
160
-608
-336
656
32
1088
880
-512
288
1472
288
-368
-608
160
160
176
-1296
-640
-192
192
-896
-1184
-592
-1536
-640
-80
-992
-768
-336
-64
160
480
544
864
480
80
-240
272
304
464
432
-224
-1184
-400
-112
112
-592
-1312
112
608
-1136
-1248
-1152
-144
-96
-1552
128
-224
-32
-192
-1792
-784
-96
-544
-720
544
320
528
704
1008
352
640
-576
-400
-1312
-912
-48
-144
-800
-1056
496
560
-320
-32
672
1328
1280
1136
368
48
-352
-544
-448
-128
-608
240
384
-624
-592
528
1584
224
16
272
32
288
-48
-336
672
-416
208
816
208
-1200
64
448
-496
48
672
656
944
-368
-96
416
848
624
1360
816
80
1072
-976
-1264
-1088
-96
672
1072
128
-80
160
704
832
-144
208
240
-112
-1216
-496
-336
-1328
-336
880
464
0
256
144
544
-112
224
-768
-32
128
96
-544
96
64
-1200
-1184
912
1600
976
720
352
-64
224
-512
480
-32
144
352
1200
1296
400
32
-320
-304
48
-896
800
224
48
1152
-240
-96
992
64
-352
512
-736
-960
-432
160
-1200
-1600
-1440
-576
768
-240
928
1200
464
1056
720
288
608
-32
-64
-480
-1248
-368
-256
-160
496
112
1264
176
-1376
-128
-880
416
-384
-976
64
576
960
-32
-656
0
-416
-256
-592
-544
64
128
432
-544
-1728
240
544
-448
-800
240
-128
832
-208
-224
-64
304
576
704
-144
-224
992
1072
960
-336
-672
-1056
-944
576
1184
736
-576
-400
160
832
-336
-368
464
640
784
-480
96
320
-208
-1664
-656
544
1472
208
-128
-48
-256
-16
-1072
816
928
192
-480
-336
128
-272
32
-704
-144
384
-384
272
0
512
400
-384
-160
160
80
-224
-240
352
-624
0
-304
-864
-368
-48
368
-176
48
-256
1136
512
496
1392
1024
720
544
80
-432
-304
64
-672
-736
-144
64
400
832
32
-592
-1216
240
1392
1664
960
800
432
240
816
240
128
1200
1680
432
0
-320
656
288
704
-336
-592
352
528
-112
-560
-272
-400
-176
256
16
-384
112
-720
-160
-1216
-1040
-272
512
-144
-1088
-240
-1056
-496
960
0
848
752
192
560
1840
736
-112
512
160
704
256
784
480
-400
480
0
-400
-96
-128
160
1056
528
16
416
-352
400
1312
336
-432
496
32
-96
-464
-128
704
80
-1280
-736
-560
208
-304
-544
-896
160
-352
-160
352
784
352
1376
736
256
-16
496
240
32
64
-320
496
-240
-608
-752
-608
0
448
1136
768
0
160
240
-480
-208
-272
-864
-288
224
-1248
32
-368
-976
-720
-144
1280
416
-352
-848
-1200
-1264
-288
1040
432
-256
368
272
-752
-48
-256
560
960
-224
368
-704
-992
-400
-400
-736
224
448
560
-640
-848
-256
-416
96
384
208
-1008
-384
-848
800
880
800
448
-96
256
960
-752
-528
-192
-256
672
416
320
-176
-592
-432
16
-1040
-288
736
-272
-240
128
-416
-992
-1728
-400
-496
-384
-416
928
560
-864
-16
-256
96
-176
-272
-432
144
-16
-864
-880
-496
560
80
240
208
944
1280
1376
272
-176
-560
-1952
-1184
-128
-1424
-832
-448
-176
-32
-192
608
592
-400
-1280
-1232
-736
16
672
1088
1296
1392
1136
496
896
752
1136
496
-352
-240
-352
-816
-1312
-16
1376
896
720
720
-1648
-1456
272
208
272
-400
48
272
-1936
-880
288
368
-256
-512
-752
48
256
-1136
-1696
-320
-64
32
-1216
-1376
-480
-768
336
-304
-448
32
80
80
-288
-144
304
432
-352
-112
-208
-576
48
-1120
192
352
1376
256
-80
-1312
-368
-48
-144
96
-816
-16
-480
112
-1024
16
160
-752
-96
-48
64
-192
32
304
1168
1376
-112
-736
-64
480
-144
-688
-688
-592
192
1696
384
-544
128
-160
240
816
912
880
400
96
304
-848
752
1504
1296
288
-192
-160
-560
-272
-240
-976
-992
176
-48
416
704
208
-16
192
816
96
-192
-112
752
1440
256
784
288
352
-432
-16
128
464
-32
-384
-1024
-48
1024
992
-496
896
1456
-32
1040
32
-896
-192
288
-944
-816
-480
-144
-16
-64
1136
-640
832
-928
-176
-1152
32
224
192
96
208
1088
784
-720
96
256
848
144
1120
720
-384
272
-272
-640
-496
-832
512
1344
1632
752
-448
272
320
304
528
-224
-80
1392
112
-352
320
1248
1616
2016
928
-160
-1072
-1312
-800
320
352
1344
1296
576
720
976
576
208
608
336
-1696
-1440
-624
-512
-416
-352
32
-96
-1152
-32
976
432
-192
-208
320
-400
544
832
1408
592
640
-112
784
1136
896
352
912
1440
1232
304
-1024
-448
48
-704
-1168
-64
720
-368
672
576
816
-336
-880
-560
672
752
-416
160
832
864
816
256
-1040
-864
-544
288
16
-208
-1456
-800
-976
-176
-592
-272
-496
864
384
560
1888
608
-272
-288
1152
-240
-384
-1264
1024
1360
752
496
608
816
336
192
1184
768
944
-320
-96
240
1408
704
-352
288
352
672
1408
-560
176
416
208
-528
-656
624
864
576
-816
-1504
416
336
-144
272
96
-240
-480
512
-48
-176
-16
-752
112
-352
768
-16
192
-1168
-176
1072
-1280
-1728
-224
-1776
-464
112
-352
-416
-688
-288
944
992
-208
-48
176
656
80
256
304
-800
-336
32
-944
-496
-560
240
352
672
-176
320
-400
-112
-1072
-1248
-128
256
-576
-528
-224
-624
-1200
-496
992
752
0
-160
-752
-608
-1200
-32
-1184
-1280
-784
144
1232
-208
128
624
528
320
576
32
448
832
576
944
1232
304
-480
-432
-80
1040
-432
688
144
64
-304
-896
-256
688
480
-880
-416
-704
208
992
896
592
48
816
-368
-944
-752
192
-768
128
-64
864
400
-416
-1152
-1216
-976
-16
-1168
-736
432
640
-432
544
240
304
368
304
464
1104
480
1312
1008
736
432
-288
-608
-544
-432
-624
-384
16
144
-272
-96
-656
208
176
-656
-1392
-320
-240
800
-64
176
400
272
192
560
240
464
160
192
-1168
-976
112
1312
1600
-496
-96
1376
496
64
-272
-1584
144
-64
32
1120
688
480
400
32
-592
48
-1392
-784
-656
-144
-576
-304
112
448
-1232
-784
-672
416
-400
272
192
160
32
-560
736
-416
-1088
-912
-1184
-400
208
-96
-32
-64
432
-1088
320
1568
1040
-464
-96
256
576
1472
0
-304
-144
-528
-80
-128
704
896
1008
736
1504
1728
1072
176
-400
-32
-16
-256
352
-304
-448
-1216
-80
1056
1136
32
-848
-16
-880
-688
-48
816
352
-80
352
-496
-160
-1616
-448
256
464
208
-1056
160
-288
16
-416
16
768
-272
-1056
-960
-944
-592
-128
560
1152
1488
544
-80
80
-16
688
-416
608
-944
-528
-480
-720
-384
-464
288
1328
304
-160
-208
-384
-496
-1088
-272
48
-384
624
352
-304
1104
1648
-448
368
976
416
-416
-704
-496
-1024
384
-528
-1312
-256
-256
-16
1216
992
-112
-336
-880
-416
-416
240
560
-608
864
576
144
-480
-752
-608
672
-304
-1184
-1200
-736
-800
544
1280
-32
-688
-1168
-64
-752
-1600
-864
288
816
576
416
944
-624
-752
416
-496
-496
16
-32
-480
-304
-112
-688
-1008
-192
-96
0
80
-336
-880
-928
48
0
-624
32
-160
-576
-624
-960
544
352
-192
-144
464
-752
-384
208
-16
800
960
-896
0
288
-576
416
544
144
320
400
272
112
208
656
352
-144
848
320
320
528
-336
-144
1040
-464
-512
320
1200
1408
496
224
-256
160
-32
432
-64
-320
-544
-624
896
1024
-176
448
320
-1024
656
480
352
-304
240
-96
-256
-640
-112
-272
-976
400
1312
-16
208
-976
-32
240
-48
672
336
384
224
48
16
-176
640
640
560
0
-368
224
560
432
240
768
448
-352
-592
-192
-80
-688
288
592
176
912
1456
928
704
144
-320
-80
560
144
-32
-1232
0
624
-480
-96
-1552
-2032
-1040
-288
-576
-512
400
0
-64
-784
-224
320
-560
-480
-1840
-1360
480
496
-320
-592
-208
-640
464
528
944
720
-944
-224
832
928
784
736
640
-352
-224
-160
-928
1088
1088
-272
-1104
416
-432
-32
704
-320
-832
560
64
-1072
-240
352
0
400
-96
32
-192
-1248
-176
640
656
160
-432
-256
48
-336
-1552
192
544
912
592
1248
-1264
-848
-752
80
352
-768
-112
96
-400
48
512
480
-32
768
-352
-480
256
-656
400
880
-80
-1552
-880
-1952
32
832
176
736
688
352
544
-16
-352
32
688
304
-512
-688
-384
-96
480
720
848
896
192
-272
560
1264
48
-1408
-1584
240
-672
-992
-1104
-704
-736
64
128
-432
176
-80
704
832
688
256
544
112
-1120
864
-208
-192
432
560
1024
2032
816
240
-816
-1264
176
-304
-320
32
288
-192
-320
-864
224
416
-400
-816
-352
-1056
592
80
-448
-544
816
1072
-64
288
-576
416
608
80
-784
-1616
-48
272
-16
240
-416
112
1152
1680
1392
-704
-976
-864
-176
384
784
1136
464
-272
-176
560
336
-960
-608
-928
400
880
-960
-592
-400
-496
-384
-976
-992
848
816
-944
-656
-720
-1184
32
960
-288
-608
928
240
672
-976
-672
160
-80
-816
-928
928
1232
288
416
64
224
400
48
-208
-1264
-1360
288
672
-880
-1664
-624
-64
96
48
192
-512
-512
-544
-704
-784
-784
144
192
1312
640
-208
800
736
-832
-288
304
-688
-848
-928
-32
224
-208
-496
-1200
-544
-320
-496
192
576
-528
1328
400
-176
112
1200
976
448
720
-464
-48
-768
-704
576
720
288
144
-112
-256
528
128
416
-416
144
-144
304
-384
-992
-160
-992
-640
96
784
-288
-128
1056
-304
-992
-1264
784
-96
-576
-544
96
992
64
-128
-432
-1456
-96
96
640
1872
1024
128
-672
-704
-880
-256
48
752
1072
1216
944
176
-112
-576
-784
224
-352
-800
-896
-240
-944
16
-80
208
576
144
-432
1120
1824
736
656
288
272
-480
0
-224
-1536
-432
752
704
-528
352
176
1120
352
1264
464
1088
1120
656
-1344
-1200
176
1104
400
496
-1520
-2032
-320
608
-192
-1072
-720
-272
-304
704
-208
-368
-64
-1040
-800
-608
352
-144
-288
240
512
224
352
-320
368
-352
-592
-544
-736
1440
1072
-400
-48
-656
-80
160
480
-64
-240
1552
1328
-224
-32
1200
1248
176
-32
-320
736
-432
-400
208
-720
-1344
544
640
128
16
-544
-432
160
-768
304
416
672
1152
384
64
640
368
-1040
32
-144
768
-1168
-672
368
528
928
1568
1216
960
-160
-272
656
128
-528
-144
304
352
224
-1264
-896
-1104
48
320
368
0
192
96
-48
-960
592
864
-864
-80
752
-288
-80
64
-592
128
208
656
960
1376
-1120
-1008
-1616
-304
576
272
256
-240
-1024
464
80
768
944
560
720
112
-576
-368
64
1248
784
272
-544
416
480
-96
-176
64
160
336
752
-128
224
928
-608
-496
1088
336
-704
-128
-656
240
224
-96
-800
-800
-1120
-992
336
592
-208
-336
128
-112
0
-1568
-640
480
624
-912
-752
880
1216
-160
304
-128
352
1104
528
352
-576
288
-720
336
144
1312
192
-288
208
144
512
576
1312
-224
656
96
-688
-720
-112
-144
352
400
-64
-496
128
704
944
-592
80
144
-784
-864
-944
1728
1232
768
1216
160
-272
-416
1040
-624
-976
-512
192
-480
-640
928
1056
-688
-560
688
1488
544
112
96
1040
816
912
-160
-384
-160
240
48
-1280
-1520
-752
-144
-608
-1376
736
272
-336
64
288
-192
-1104
-928
240
-176
32
480
928
-560
-768
-512
0
288
512
464
-16
576
112
-896
304
208
-272
-32
64
-592
-400
-160
240
1360
736
1408
-64
-144
-528
624
256
-208
-224
-496
16
-160
-400
-224
-1776
-1520
-944
-432
-480
784
880
208
928
160
-144
944
672
-48
-448
288
-1040
-1344
240
-624
400
848
208
-176
400
-704
-1168
-32
1456
-240
-528
-1904
-1056
-496
304
16
0
-352
-960
-896
-704
624
-272
-304
-784
-640
1264
640
496
464
-192
976
336
-624
-112
240
-432
-400
-144
-272
-768
-1056
-336
240
-224
-1056
-96
80
-512
896
768
0
64
224
640
912
1312
1008
-976
-1264
192
-368
-1040
-208
-704
-912
-432
-592
-1200
736
-272
-496
-176
480
128
224
480
992
864
832
672
576
976
400
336
32
-1280
-944
704
400
-368
-320
-288
0
-928
-704
144
624
32
-560
-208
-736
-16
192
368
720
496
272
-1312
-64
-752
-1488
-1488
-896
-896
-160
304
80
-224
864
400
-608
-928
608
448
-32
720
720
160
-624
-384
-176
-256
144
-752
-336
16
848
736
960
176
-64
-208
560
1040
688
-32
368
768
-976
-272
208
448
288
-624
640
736
208
976
592
-448
864
1280
960
-96
352
-128
592
688
-400
-992
448
288
-384
-160
-1376
-640
176
368
1328
32
-144
-512
272
608
-432
-688
-544
-208
528
656
144
-80
48
240
752
-48
-224
448
-368
-736
176
544
560
816
-256
96
-624
-1184
-688
-208
1056
624
-288
-240
-160
-32
-128
-256
-384
592
832
928
752
384
192
320
-240
320
-672
-1024
-320
-256
-896
-832
128
-272
-80
144
-544
-576
1296
784
-1728
-848
96
224
-512
-912
-112
-864
-1104
-560
-320
560
-224
288
-272
-512
-1216
608
336
-528
-272
-544
-416
464
1872
640
1568
1056
704
736
128
688
384
480
-256
-208
496
1408
400
-192
496
400
432
864
640
-320
1008
624
96
1472
-128
-416
-64
368
688
208
608
352
288
800
976
1152
608
-192
-640
-480
-976
-224
-512
-240
544
832
544
896
-976
736
640
608
416
0
-480
0
560
784
528
1264
-176
-224
-784
176
1200
1120
-208
-240
1040
896
272
1376
1520
-208
-480
-1328
0
112
1072
-416
-384
-256
736
1552
640
304
-656
-496
1248
272
-640
-768
464
-192
-1328
-400
-912
-1376
-704
-736
-432
-304
1024
880
-96
-288
16
-368
640
256
-352
-752
-816
-1456
368
784
288
432
448
1120
1024
1248
672
-496
-384
-1024
-1280
-432
-128
-496
-144
-624
480
-864
368
992
-560
240
-768
-544
-512
480
384
-288
-464
-560
-496
-1040
224
-384
-784
-432
-1088
-608
736
800
64
176
1216
-912
-1008
-1120
-1200
-848
-128
-272
-448
32
-448
-400
-1104
-352
816
800
288
784
176
-704
1104
48
-480
992
224
-640
-208
0
400
288
432
-592
-1024
-800
-1104
-1424
-1248
-48
-1088
176
-16
-304
-528
160
976
-48
-48
16
-544
-896
80
528
192
-864
-496
-752
-192
224
880
-16
-432
112
288
-608
-1520
-1072
-1424
-192
-832
-1040
-16
304
224
128
-320
-400
-1312
-992
-880
-832
-576
-448
-128
-336
-704
-16
1088
64
-144
208
-1184
-1376
-1264
-960
336
1328
272
-896
-368
-464
192
-784
256
784
528
-208
96
288
1344
1024
-80
672
496
-912
-944
-64
464
-592
-976
400
1056
592
-512
-304
848
704
-416
320
64
-736
672
-864
176
32
-256
528
1520
736
-528
-704
-560
-368
1312
-736
-384
640
864
-192
-256
400
992
-240
-416
-912
336
-288
-16
-144
-912
-1712
-1072
-672
-1488
-480
544
-448
528
1328
640
-32
512
-784
-144
112
-848
-976
-656
-352
-656
-736
176
496
384
432
-544
1456
176
-512
-1168
-32
-128
16
-400
-208
-64
192
-288
-1104
208
1536
336
528
-112
80
800
480
0
0
208
896
-272
208
480
-752
-192
-16
-1008
-1376
-80
832
-496
48
400
352
-752
208
224
-192
-224
-464
-832
-720
-752
-1072
-480
288
224
-208
96
512
-736
-880
0
32
-784
-512
368
96
432
544
-288
-112
992
1824
1200
-144
-1120
-384
912
400
144
-96
-1120
-976
-432
-80
-16
128
-704
16
176
144
272
64
-1024
-96
432
512
352
-512
-432
-208
-416
-32
-96
336
480
-1088
-1360
-48
-1616
512
592
1024
544
368
-944
-1072
-144
320
672
784
560
592
-16
80
16
-768
-208
-208
-928
-784
32
-1152
-512
-656
-1696
-32
736
608
400
-320
-400
80
112
-592
-1024
-80
240
-816
-768
272
-496
880
304
-640
96
-464
-304
-608
704
384
-496
544
864
496
-800
576
528
-304
32
-704
-400
96
208
640
-512
-80
-1440
-1040
-960
368
-48
304
-64
-192
-448
-640
336
928
656
-624
64
240
-528
-816
336
656
-48
-96
-80
-1136
32
-128
-368
576
-480
304
640
-176
528
816
752
-864
-2048
-672
576
544
928
864
-144
256
928
352
672
320
560
656
-592
-1152
-1808
-1184
-784
-1216
-272
192
368
96
720
464
-112
-800
-336
400
912
192
736
1456
304
720
320
-1296
-976
