-368
-416
-368
-784
-320
192
1136
272
-1632
-2032
416
896
80
32
-496
-784
-32
-256
-992
-96
-576
320
1248
1232
1072
160
320
976
1408
-464
432
-768
-1312
-816
-208
-464
-768
-512
1248
1888
1680
-288
144
1200
608
1392
192
-1392
-80
1008
656
-528
-160
-448
-832
-1520
-720
-896
544
-896
-1168
160
-896
912
-912
-1472
-368
704
-96
-1328
336
-1136
320
-1872
-1712
-1088
-1040
-1712
-1856
-1504
-1472
-1392
96
976
-944
-688
-640
1200
800
368
272
64
464
480
1088
704
-800
-1136
-592
208
96
960
0
-512
1392
-160
272
448
-240
-592
-1088
272
-1216
-336
528
1296
576
704
512
-784
1120
-256
-544
96
160
1440
-448
144
-112
624
624
1120
-208
-1760
-880
144
-272
928
656
1424
-160
1216
-544
-496
608
208
432
-1168
-736
-528
-560
48
288
1728
480
256
1936
-816
-256
784
-1200
-784
608
832
-160
1264
576
192
-1328
-1296
-480
-400
-1232
-864
-1184
-160
-864
-1728
-1472
-912
1056
496
384
320
1200
1024
1088
624
512
240
1088
-208
272
-944
-416
-1200
192
304
-464
-736
-1072
-432
-1008
-96
-480
-864
-1072
-176
-48
-656
-720
-1712
-912
-144
-64
-256
-864
-736
-992
-1888
-1584
-1056
144
-528
-1472
-560
480
864
496
-1808
-1424
368
480
784
1504
1760
1328
96
1424
1472
80
-496
1104
-336
720
224
-1408
960
-304
784
352
-384
224
-80
176
-656
-816
1920
-272
-96
-1312
-976
-656
192
864
1712
448
1392
-176
-112
544
672
-416
-1440
-1744
-1552
-864
-1472
944
1632
16
-80
-464
-288
96
-1504
-1632
-1168
-336
-2032
480
1680
848
928
16
448
48
-272
112
-128
176
-160
880
-336
1328
384
-1344
-752
-1120
-1248
-736
224
800
560
1296
1344
1152
1552
336
80
1440
1632
272
-704
-912
-2000
-1120
1232
1536
1520
144
400
-128
-1584
-1472
-1344
-1152
-400
16
-464
-592
272
240
-656
-1312
-880
-1664
-1696
1360
1760
-304
1696
640
368
304
1280
-240
1328
512
-480
336
192
-1696
-848
80
304
1104
848
-1072
-128
1136
432
640
368
720
336
464
-912
-320
-1392
528
192
496
-1072
-1616
-848
176
1936
992
-1536
-1104
-1648
592
304
-32
-704
208
-368
144
1728
720
-1504
288
1584
-1072
272
144
-112
-1504
720
1808
624
-256
-496
-784
-416
-48
-592
1616
1104
-1328
-544
-576
160
592
-656
-240
-1568
-240
928
896
-1152
-560
-1136
-1616
752
144
-1328
-1280
624
-1184
-1040
-448
1280
752
160
-16
-816
992
176
-304
-688
160
224
-704
752
512
1408
-240
1088
1296
928
96
-576
80
800
-192
352
-544
-16
-688
-1168
-224
-64
448
-1136
112
-1088
-1376
-1600
-912
-304
304
-208
-304
1424
736
192
112
1248
272
-768
-720
-496
-928
-16
-336
2000
1648
784
976
176
896
-352
944
1616
464
-1312
-1728
592
-592
-416
1968
1456
176
64
-240
208
448
1888
1152
-496
704
752
1488
-432
-720
-464
-96
1808
544
-896
80
-688
-272
352
-848
-64
-1040
-432
-1616
1584
1072
160
544
1408
-480
-832
-64
992
176
-1184
-848
1168
-304
-1120
2000
272
-656
-832
64
-640
448
448
-1904
-1088
-784
-528
-432
-560
-448
16
816
-624
-1232
-368
-1392
928
1456
1616
1472
176
-1632
976
32
-1280
688
672
-144
-576
1488
160
1648
288
800
-128
-336
-416
880
1248
2032
1472
128
-128
-352
-928
-880
-160
-496
-96
432
-480
-368
1168
560
480
-1872
-1536
1328
1200
-832
-1840
-48
-656
-592
480
-96
-736
1776
576
1216
1024
672
912
-1216
384
592
480
448
240
-352
-1632
144
96
-320
736
128
528
384
1056
656
656
-352
-1936
-784
-832
-1456
192
-1920
-720
-1600
-416
176
-1488
-688
-1200
768
832
-960
-816
-336
-192
-688
-64
736
-480
496
-704
-400
-1088
768
688
336
-144
-448
-1728
-400
48
336
80
-80
-48
-704
-160
896
992
-464
-368
-352
336
256
-112
224
-1472
-16
-480
736
1952
432
448
272
-80
480
-1904
-208
1360
752
-576
-48
352
544
1424
352
1312
672
-240
-672
-1184
-848
16
288
-176
288
640
-736
-288
864
144
-656
-1152
-1152
-128
-192
496
320
768
-1200
-944
-208
-1168
-960
-1296
-1248
256
720
960
-528
-1984
736
848
-1312
-1568
-272
656
1712
1200
384
-1136
-384
-944
-1472
656
-1088
-1888
16
-944
320
64
1408
-464
512
688
96
-80
-240
1472
896
320
592
-928
-1472
-2000
-336
-128
-704
80
-880
80
1312
1376
224
384
-1776
-1600
-768
368
544
352
48
368
-1232
-1872
304
880
-32
-416
-976
-32
752
752
-1552
544
1760
368
992
1248
96
-1040
-560
-1728
-208
-1216
96
640
-592
-640
-976
336
-112
32
-480
-1232
-992
-672
-448
-432
-592
-2032
-800
-512
-224
480
1136
144
-880
-192
1024
480
1040
560
-528
-80
32
-720
-1392
-736
-1008
-1376
1360
960
224
1664
176
-256
-352
656
-816
-112
208
304
-32
-96
-688
-480
-896
-1072
-64
-560
-1344
-1520
-112
736
-944
560
1312
1408
1760
1872
64
-1664
-448
-64
128
352
576
1440
-272
-704
800
320
976
1360
1360
176
-544
-528
-928
608
-128
112
-32
128
-160
544
-1232
-1120
-144
-288
-224
304
1104
1280
-32
-1120
-16
16
-704
-704
1280
1056
-432
-1376
-176
-1600
-528
-416
-160
448
1040
640
432
-672
-256
128
1200
1008
1376
-576
-1120
1696
784
-880
-1216
16
160
320
560
544
32
656
256
-96
1376
288
-1312
-112
1024
1712
-1712
-208
208
128
384
832
720
288
272
1200
1680
672
-768
-368
1312
976
96
-1104
320
784
656
1184
1520
896
256
80
1568
-608
-544
784
-624
544
1584
800
-1232
-1152
704
1488
-560
-928
-384
-704
144
-560
-624
-1120
-656
-320
80
-960
384
0
944
1440
1664
608
2016
816
-432
784
16
-704
592
-944
-144
848
-832
560
-784
192
-640
-400
-272
-576
-672
576
192
-864
816
352
-1296
-1392
-1312
-416
1168
512
-1120
-1792
608
64
80
192
688
1504
-1264
-2000
-368
496
-1056
-976
-448
-1120
-656
-320
0
80
768
48
-704
640
160
128
688
1824
32
544
416
800
736
800
-608
-1472
-1504
352
1008
448
960
1920
1248
-1264
-1264
-288
-1648
-496
144
384
32
64
-1056
1072
432
-1232
-736
624
960
-80
-1584
-384
240
320
416
-416
-1168
-2016
-992
-1248
480
1296
800
-1440
224
-480
608
880
-608
-1072
208
1680
-608
-944
-1504
-384
-48
-656
-544
-2048
-1440
-688
-1088
592
-496
1056
1264
-1088
-1216
-1056
112
-1328
-1648
-928
-1632
-832
-1152
-16
1776
352
-1232
-528
-96
-1856
-384
432
-128
-352
-112
1008
1040
1584
2016
592
-304
-688
-672
672
-272
-208
-720
-160
544
416
576
-880
-272
528
-1168
-624
-752
160
-544
1072
-896
-992
-960
416
192
672
-992
-304
368
1088
-112
1696
736
-480
256
0
880
272
864
-480
-144
128
800
208
176
1136
1088
1952
144
832
-656
1056
0
-1920
-208
1168
992
-224
-160
-272
-1520
-464
672
752
-1104
384
864
1360
1008
-656
512
96
-480
-400
1552
432
144
-464
560
1088
816
48
-560
-1168
-128
640
0
-1552
-384
-560
-1792
-1184
1056
1488
-912
-656
1184
224
112
-432
1584
1216
368
-208
-288
-112
256
496
-64
736
160
-704
-240
-432
-1040
-208
-976
-992
-672
-128
-304
-688
320
-192
-48
400
544
-1648
-1264
-576
1344
368
1152
256
720
1424
-720
-96
992
-720
-1104
-880
432
960
288
-864
-1936
-256
144
-368
-896
112
-832
-32
800
352
-240
800
1440
480
1520
1280
-928
176
320
-128
-432
-624
-128
112
448
-976
-560
736
368
752
272
96
-720
1680
1520
-816
-560
-1056
-416
768
1872
1056
192
1408
32
976
-144
-1536
448
160
-672
-256
-208
640
-960
160
608
-304
1760
1488
832
480
1312
-1648
-1152
-304
-320
288
432
416
-528
-1248
-1392
-848
-880
-608
-240
560
256
80
-1472
-1360
-1120
-144
1200
144
-1760
-640
-544
-128
-656
272
-80
-288
-432
1216
-416
-1136
-672
-1360
-1440
-816
512
1536
256
1200
1520
416
1008
448
-672
240
656
-576
-768
-208
1232
1872
768
-112
-304
-800
-816
-1008
-1440
-256
-976
-320
976
704
1856
176
-1296
-1648
-544
512
-992
-1536
-944
-976
-192
112
496
128
-128
1376
1280
464
1600
1664
736
-432
960
-144
224
960
1472
1776
16
480
544
-16
64
352
-992
-1328
-368
-1536
-768
-624
688
320
-512
1248
-416
-480
336
1472
128
992
-240
1504
432
-128
1056
1776
1104
320
-416
-352
-1648
672
1600
0
272
512
-448
592
976
256
-96
144
-480
-624
-832
-976
976
816
48
-480
160
1216
912
-400
-704
416
1216
1216
-80
336
-48
-992
-1296
-832
624
800
1168
928
-448
-1776
-1728
160
736
912
976
256
1392
1792
1120
-16
864
-416
-1312
-352
368
416
-496
800
912
-448
-1328
-1744
-832
816
144
-1024
-736
-1056
-1008
960
976
240
1088
-176
-1776
304
-144
-48
-1104
-704
-1392
256
-32
-1488
-1936
-1328
-256
-32
448
528
864
384
368
-624
-656
-704
-1216
-1008
-1040
-560
-1184
-1136
-944
-272
352
-2000
128
608
-560
-112
384
160
-640
448
1216
-240
-64
128
-16
96
1264
16
1904
944
544
880
-816
32
-80
720
16
-240
576
-160
512
416
224
1136
16
1536
128
1472
144
1024
1040
112
-1024
1072
880
752
-64
-928
48
-1792
-960
-304
992
-240
-512
64
176
-640
64
912
-64
-384
-304
-16
-384
848
896
-784
-576
-1120
-1008
144
400
1152
-144
-1280
32
-1040
-1216
320
752
-1168
1136
16
-752
832
1296
704
-448
1120
-384
-1824
-48
832
-912
-768
912
-400
-1440
-64
-832
-496
1440
1568
1744
0
624
1136
1264
1328
1248
688
-64
-1248
-320
-848
-304
-1168
-992
-80
1664
960
896
1648
-944
-1680
-1248
-656
1520
1616
656
-640
-1376
-176
224
-368
-1536
-1120
-560
624
-752
-384
-1456
-896
-944
-432
-784
-352
1104
480
-176
-1472
-288
-544
-1056
-128
-800
-432
-1472
576
640
1568
1056
800
16
48
32
784
112
1456
-1472
-1440
112
-864
-16
400
-352
16
464
-192
816
480
-1936
-816
848
208
528
1824
1456
1456
-848
-640
-320
-1536
-896
-784
-1680
-416
752
-336
-864
-384
416
-272
-192
-1264
-16
-96
352
960
736
-96
432
320
544
304
1008
1456
1728
1248
352
-208
432
-1360
-1248
256
272
400
768
-544
-752
608
912
560
1184
-80
-704
336
-720
-144
1664
1872
1648
192
-1888
-560
528
-560
-640
944
2016
704
688
-816
-208
-64
304
928
832
-480
912
1040
432
1504
368
880
592
608
-208
-992
-704
-864
48
1424
784
960
1360
-144
-608
608
-736
592
-1344
-1776
-1856
-512
48
1904
-400
-656
304
-656
-160
-96
592
544
160
240
144
-224
1040
864
-1424
-32
-1296
-2032
-512
-1008
464
368
-208
-544
1456
1952
-48
1344
96
-144
-672
-896
-1376
560
1472
-576
-96
-544
-1088
-512
-864
-96
1760
48
-208
-672
-1360
-1232
-1456
-928
-48
-256
-688
-720
304
-608
-1248
176
624
784
-1168
-1088
-176
-1392
80
-1584
-176
464
608
-480
-288
-1024
560
416
800
-32
336
-1072
-400
-80
-720
448
624
-736
-352
1248
576
320
-1120
-336
1472
512
-784
-880
-1280
-1072
-704
-384
128
-368
208
96
1488
784
512
-208
-624
-576
-384
-320
-848
0
976
1072
-256
752
800
-832
-304
240
1616
-480
16
-1152
-1456
-80
432
336
272
-1312
-400
-64
608
1104
-48
-928
928
336
1984
-656
-192
-560
1248
1920
-304
-64
-224
-1456
-304
-576
0
992
-1200
-1200
-32
192
-336
-416
1856
1408
-448
464
832
528
-816
-1008
-1056
-1392
-64
176
512
432
976
576
-912
-464
784
784
-832
432
240
-688
800
1264
576
176
-800
-1312
816
336
-1104
-1008
-1424
-1232
-720
-336
304
-416
-576
-384
128
-240
-240
576
-384
-32
-416
-272
-1152
368
1248
304
752
-368
32
1152
-560
-192
-1520
432
-1872
-1536
-896
0
1504
304
384
720
272
464
384
-160
592
-704
944
32
-32
64
-752
-896
576
1392
-368
-656
-1312
-640
384
1504
16
-1360
-528
352
1024
-192
432
-1088
-1440
-800
-1168
-1504
-80
-208
-1216
-1104
-144
768
2000
-48
-336
-432
-896
560
-832
-1584
-576
80
-512
-448
-304
-32
-64
272
176
1360
112
-960
-128
624
336
-1280
-560
608
128
-1696
-304
-64
-848
-848
864
720
992
-688
-1792
128
-816
432
336
1424
1904
944
-112
-288
1680
224
912
-256
-336
-2000
1040
-400
-784
-928
-1312
-704
48
-1936
-1040
64
-208
-128
-1040
-528
-1168
-384
-1712
688
-208
-80
960
-800
-768
-416
128
-112
560
-816
-1920
-1632
-240
-1232
-704
800
1120
1248
-64
-320
848
1312
-1040
-592
896
544
-1920
-96
1312
288
-512
432
736
-560
320
-656
-224
-144
-432
-128
1824
1296
-240
96
1488
-288
304
432
-976
-1504
-272
976
48
1376
1520
-304
736
192
-896
224
880
624
-784
128
-1056
704
-272
-592
-1568
-1024
-192
-240
1920
1024
-768
-1344
-1520
-1664
-1184
-1008
-752
-272
1824
1728
-528
-816
-1376
-192
352
2016
1456
-704
64
880
1776
592
-672
-1440
-16
672
-144
1152
-1760
-960
-544
-384
1312
1184
-416
-96
1312
848
1104
-720
-1024
320
-176
-656
-48
-1024
1792
176
2000
1408
80
0
-1504
-608
-176
-752
-672
-320
432
272
-368
192
-1952
-304
352
-672
-1024
736
-64
16
256
-624
944
1056
656
-416
1696
1456
-304
-224
320
624
224
-176
-464
1008
32
-128
-1392
-224
-464
-560
-272
896
1264
576
-1792
-1872
-864
-480
256
1392
944
240
-496
-1472
-1888
-2016
-1008
272
-80
-752
80
960
400
64
192
1104
112
-832
48
-1920
-1488
144
1968
-464
0
-304
-16
-1136
-1264
160
512
-832
-2000
-1248
624
240
-1520
304
528
448
1376
1184
-368
320
592
-240
-1024
-336
1312
1904
-864
-336
-1104
304
896
144
304
480
1760
1152
48
-1024
720
32
656
224
1024
848
992
80
880
224
-1504
48
784
256
448
1040
-416
-1424
-16
640
224
-528
448
432
-336
-16
544
-384
192
1520
1920
-16
-880
192
352
-976
-608
-992
-400
640
-1008
592
-16
-384
-160
-1984
-64
48
-512
224
240
0
-784
832
-48
-1424
464
-1136
-992
-1120
176
-320
144
1008
288
-1856
192
816
224
-1408
-576
1824
-416
592
416
336
-288
1264
256
-1600
64
-720
208
-384
-912
-1344
-848
-272
-1376
-736
176
400
112
496
-144
560
-816
-144
1888
1264
1440
1568
352
-720
-272
80
-128
-16
1552
-208
384
688
-1280
-1424
-496
176
1120
-96
144
-256
896
480
-144
464
-240
224
144
368
1040
-208
112
-1392
160
224
576
-976
-1024
-1824
-880
336
-192
-64
-48
1232
240
-288
-64
896
96
544
-640
-1520
-368
-1328
-272
-1344
-1424
0
640
1904
-544
-1552
272
288
-848
-1120
-448
-1840
-1360
352
1792
-256
-864
-1328
464
32
944
-448
1024
224
-576
-1008
352
-1264
-1056
528
1328
176
-1136
-1312
-976
-544
-576
432
-960
-992
576
-480
-832
-992
-752
1152
-144
592
240
-256
0
320
752
-720
-1376
-1696
-1568
-1680
384
144
-1328
656
1136
496
1120
1072
-208
-720
720
-144
64
1264
528
176
-80
-800
-752
512
928
1968
-128
-544
-784
-16
32
-832
-64
864
704
96
-1344
1040
576
-304
976
1232
416
736
896
32
-544
-1056
-1968
-1728
-144
192
-816
-1664
496
1792
928
-1216
-128
-704
-928
656
1632
1936
1888
-224
-880
-560
-288
784
-224
-448
-832
96
-976
384
-176
512
-352
-1552
208
144
-464
416
624
-64
880
608
-1856
-976
0
-1360
688
-1312
1248
480
1136
704
-672
176
512
800
352
912
-304
-1120
-16
2000
1664
1552
192
784
1920
1520
-400
-1536
-624
352
-384
-688
272
976
944
1408
816
336
976
-288
-992
-960
480
-384
176
-336
-1440
-448
96
-192
-1024
272
960
1792
-832
-1712
-864
-128
-1024
-1296
592
-272
-80
-1680
1312
1472
1056
432
-432
-768
1152
1248
-1440
-16
320
272
-128
-1680
-304
-544
-1008
-1504
64
1984
592
-448
800
1024
704
-736
-832
-1984
-1440
-1200
1552
400
-304
-800
-1408
-192
1632
768
768
-736
-240
336
-912
-192
1264
560
-432
-336
-352
-1568
-1152
0
768
112
-352
-1152
-1008
-1120
-1600
-672
-96
-208
1536
-80
-2048
176
192
-320
-368
-464
272
-592
-464
208
1232
1712
32
304
720
-128
-880
-608
128
-976
-1920
-448
272
-592
-384
512
-928
-720
-576
544
704
-784
608
1056
-336
656
-96
848
544
1392
688
-592
864
656
720
1984
688
816
128
-96
-384
688
1040
32
704
-96
-992
64
768
928
1312
1168
0
1968
1344
544
16
592
736
128
224
-240
-384
192
1488
-448
-400
-80
-640
-1104
1536
-1408
-1104
-416
896
1296
-416
-96
1296
16
-1568
-1360
-768
-1296
-1024
144
-416
-832
-336
240
-256
48
-1184
-128
-1584
-1568
-912
448
736
-160
-896
880
288
-1200
-1840
-1248
-208
608
928
-176
192
-688
-1344
-1920
16
1168
1520
544
-144
768
-592
400
224
0
1936
704
1392
-240
-544
-1024
-784
1040
-208
-240
512
-288
880
1184
1632
-448
-416
1056
1120
768
-1248
-480
-416
-928
-480
1040
1920
560
-944
-176
-672
336
-288
-112
-1360
-624
-1248
-544
464
544
-1088
-576
-1072
-1136
-688
-64
304
-208
-736
320
-288
-1232
-1248
608
-128
336
-720
208
1040
592
1408
1344
1872
1920
448
592
-688
688
-512
-336
544
-240
0
208
544
16
288
688
304
-448
224
336
-1616
-288
64
-224
-256
-352
32
-192
1680
1856
848
-720
1152
1792
1648
672
688
768
704
144
720
1920
-64
-240
-336
-1152
880
-80
-464
1600
-1056
-480
448
800
-336
-464
-368
-384
-240
400
-160
-1056
-816
-736
-1968
-944
-528
544
480
-512
-96
-928
-1584
288
1360
1728
832
-1168
752
-1312
1728
48
1536
784
-736
-1472
256
1056
1216
-32
1120
-336
-1536
-1888
352
-368
-784
1568
-368
1232
-80
-144
800
-864
-1648
-272
160
256
304
464
-592
-48
-1248
-624
400
448
-240
1072
1168
144
-1072
-1344
-1312
-368
1312
-1040
-224
336
1200
1680
880
-432
-720
-672
-736
-1072
-592
1312
-144
-48
-352
-432
-32
-576
288
-208
736
544
272
896
1920
1456
320
-1008
-1440
-1072
-368
448
528
-512
128
576
880
880
-272
-768
1024
624
-544
-544
640
1872
160
768
48
800
-848
-1136
368
864
-544
96
-976
-496
-48
160
-192
96
432
-32
432
576
-1296
112
640
624
-432
-1104
-1952
-480
48
-64
608
1152
544
-608
-1616
640
848
768
656
-1136
240
-240
-704
-928
-352
-560
-640
-1056
-1392
528
224
896
1488
304
48
896
48
-144
-688
112
-800
-1904
-2032
816
240
-304
1200
560
448
-992
336
32
1056
-176
-1648
-128
-272
1184
-624
-1072
-1168
-1376
-240
1664
416
-1488
-384
160
320
-704
1072
528
-224
672
-1216
-896
-1472
-1968
0
1520
272
336
-448
288
880
-288
-128
1088
336
-144
208
1712
640
864
-384
-16
-32
1120
-96
-32
-592
-1440
-992
-272
-1680
-1328
-288
-816
-176
-880
-336
-1056
-640
1584
1520
-512
-1824
-1056
-1072
-752
-96
-1344
-1280
1264
752
-176
-288
864
960
1456
16
1200
1648
1072
800
960
1040
608
-624
-1424
-1328
-144
640
-352
-192
-224
336
1152
496
416
208
272
-48
224
-496
-1392
848
1728
1440
336
912
160
768
-336
320
192
336
1632
-1104
64
816
-864
-272
960
656
-784
-1760
976
752
-560
-1712
112
-1136
-1008
-32
1232
-912
-1648
0
-448
-480
-1360
-416
-320
-688
48
-1152
-1328
-688
-1888
-256
256
1088
-1248
-368
-208
-432
-304
-1424
-960
-1248
-1696
-1808
-1008
-80
-416
928
-224
656
1440
768
64
272
816
272
-1680
-832
-912
-544
-2016
-1920
16
-64
592
-96
160
-272
-832
-240
-128
-1056
640
1456
960
1984
-1088
-1232
-528
-192
-1568
-768
-272
-912
-80
-464
-672
-496
-512
-368
320
784
-624
720
688
448
1312
448
1152
864
48
192
-544
-1600
128
880
832
336
128
-560
-160
-176
336
1520
960
-272
32
-496
1168
1360
128
-912
208
-1664
48
1376
288
512
-1216
-928
-1040
-1968
-576
576
-448
608
1808
512
-880
-1712
928
1808
1072
1120
-320
-192
-384
-224
1552
-480
-1504
-496
-1168
-96
-16
-1344
-928
512
1296
432
304
1040
720
784
1728
-160
-624
288
720
-192
736
736
-672
-224
-224
144
64
-432
208
-1056
-1056
976
928
-320
-192
-160
96
304
-320
-752
-592
736
-912
96
160
-160
64
-1152
-208
64
1312
1200
16
-592
128
784
944
-928
240
1760
576
-1200
736
1488
384
-176
-880
-352
560
464
1712
608
160
-768
-1136
-80
48
336
-480
-144
1280
-80
-960
304
192
512
272
320
-704
-240
-896
-176
-1312
-1216
208
480
1856
640
320
1056
640
-688
-208
1056
-1312
-896
-176
528
688
96
192
1648
-1328
112
992
240
112
-64
720
192
1360
96
-1040
-128
-816
-224
80
1040
1728
-336
-656
-528
-464
144
-832
-688
128
768
368
-960
-1808
-1552
-704
496
960
336
2000
512
192
256
-1552
-1568
-256
-416
-928
816
-416
368
48
-1216
256
288
-752
96
416
1712
1424
272
224
-64
-352
-32
672
-352
416
-1504
-1328
608
640
1088
-1312
-1312
512
32
-96
1712
208
-1632
-544
-128
1264
1184
-64
-1184
-720
-400
432
-688
-320
160
-80
-1088
-1184
-592
-800
-1328
-864
-432
1760
1680
-640
-576
-1232
416
304
-544
1008
784
112
480
960
1200
624
-992
-1088
928
-1136
400
-16
32
592
-416
-720
-1168
240
816
1952
-512
-528
-1840
-352
-1008
-576
80
560
1056
784
-176
144
384
368
-128
-864
592
-480
1520
-896
864
528
304
16
-240
-800
272
-800
-1408
-176
368
672
1296
304
512
480
-1696
1824
368
-416
704
112
-1136
112
1232
16
240
1824
1552
-288
352
-352
-1024
-96
-944
-640
992
528
-64
-816
-272
816
512
-1456
112
592
704
576
576
560
-336
-672
-1280
-1664
-912
688
-32
-256
-1664
-1120
128
-384
720
688
432
-448
-768
-160
192
-352
656
-896
-1456
432
1072
1888
960
-80
-288
-624
-736
1488
-832
-592
-400
-1200
-1120
-32
640
64
-1152
624
1104
160
352
864
352
-48
1216
-992
432
-912
-240
256
704
64
-1312
-1680
-496
-128
832
-352
-1136
48
-64
-1152
-400
432
880
1088
-240
-1248
-288
16
-960
-1440
-464
-432
-336
-480
-160
-1120
1456
-560
-112
640
-992
-1440
448
1072
1280
880
1648
-336
512
-848
-368
656
384
128
-496
592
1584
1968
1728
448
-1568
-1840
-1232
-112
784
240
624
1184
656
560
-816
-416
-1440
-2016
-976
16
448
-416
-1280
-1392
-384
672
-832
-512
320
112
-832
-880
304
2032
560
448
768
1056
-688
-656
-1104
496
-32
128
240
-80
1264
1216
768
304
1200
1408
1056
-96
-864
1088
-288
-1456
848
1904
-1184
-1072
768
-128
96
784
480
992
624
-896
688
1568
1440
640
912
512
-128
-496
1104
880
1120
1104
1488
1632
176
2032
-272
-432
608
1744
-224
128
-1024
80
512
-1072
0
192
992
1488
1424
576
-1280
-944
1408
1328
1312
-720
-784
-672
480
16
-1360
-448
1824
736
-432
-1568
560
832
-192
-192
384
144
-1328
400
352
-256
-1584
352
1488
832
288
752
112
736
-912
368
-64
224
-416
-944
1120
-160
-960
-1488
-1200
-16
-1248
1312
160
-192
-336
-896
-1328
-1568
-112
1680
320
1360
576
0
1088
896
-800
-1200
480
496
-912
-1056
-672
-1072
-16
-288
-176
-368
-1904
-1472
1520
-1392
-1584
80
432
-1488
-1136
-1312
208
464
-160
48
0
-144
656
512
400
368
-48
-400
-512
-176
1328
528
-1008
-1888
-848
-624
-1008
720
416
1168
1648
-160
-1120
-304
1328
1040
-1664
-512
-656
-688
672
1440
528
-1312
1024
1488
368
-480
-1200
-1408
-1728
-1552
-96
96
416
704
32
-1008
-736
-1680
-1296
-464
576
208
640
-816
-960
-336
352
-704
-1168
-544
-1424
-1776
-864
416
-672
-1248
-368
-336
480
624
832
1520
592
880
-1136
464
32
-768
-784
-240
1088
-128
496
32
544
1664
1376
2032
-96
-304
-1120
-1376
-1776
832
480
864
112
512
1696
1040
1840
48
1392
1648
48
-480
-192
-1024
-160
-112
-848
688
1008
96
-1232
-1472
-1584
-1040
-576
1392
1792
1056
240
448
1328
464
-544
320
928
-624
352
64
608
1264
32
688
368
-544
-1424
-1248
448
-656
400
432
-1040
592
800
-1328
-560
640
-304
688
32
128
800
-208
-288
368
-848
-112
896
96
-1904
-608
400
-400
-1424
1344
2000
624
1600
2032
992
-240
-1872
-1056
1344
1968
752
-112
-336
912
128
352
160
-192
-400
-144
1344
1760
576
-896
-976
-816
0
880
1152
-576
-1568
-624
160
-784
-320
544
720
-640
-672
-80
1888
176
-1648
-112
480
480
-624
144
288
-352
-656
240
-512
64
-80
-592
-96
-144
-448
-1040
-544
368
96
-112
-304
928
896
-800
144
1216
16
-528
976
848
400
1072
464
-48
160
-368
-1024
-768
64
-64
512
-48
-160
464
-1536
-1088
96
1488
368
-496
144
80
320
448
816
1232
48
80
976
608
896
1296
128
576
-288
896
144
-320
-368
-224
-912
1424
768
-336
576
816
-608
80
1184
848
400
-1152
240
-48
-784
-944
1696
704
-1392
512
320
-400
1376
864
1520
-480
-608
-384
-576
-1072
400
288
80
976
-656
1248
784
1856
2016
832
-1248
-448
880
1360
192
-1120
-1488
1168
992
-352
-1216
-544
-528
-128
1232
-192
688
-736
-1168
-1136
-32
-704
-1376
-464
-1264
-128
-1376
-1440
-192
-304
-800
-1344
48
-480
-928
-832
-1568
-688
-320
336
1264
-592
-1264
-1760
-864
64
352
-656
464
800
-608
-720
-848
512
-208
1248
960
-240
-720
848
240
-1104
-320
-752
832
48
48
416
-160
704
1248
1552
-1200
-1248
880
-1408
-448
-400
-1328
496
-368
-1600
-1520
-368
320
176
480
-336
-400
720
-208
-560
-96
128
-608
-1504
384
48
80
-48
-304
880
624
-16
496
-560
-976
-1760
-1168
272
144
-592
656
-1200
-736
-720
-48
-1232
-336
-864
-144
-224
-16
608
-128
-80
-1168
-1216
-16
-1376
800
1424
448
416
592
880
-256
-1424
560
1136
416
64
-16
64
1456
192
1472
752
400
1184
736
-48
480
928
944
1072
-496
-320
-1792
-1136
1792
608
-544
-128
384
96
704
816
-832
-1632
-1888
48
592
2016
1504
0
1072
1824
400
-1376
-528
800
-64
144
-512
-256
224
-1280
-1408
544
1584
-368
144
832
-1648
-1136
-1312
-16
128
672
-1072
-1728
-480
1392
0
-1344
-1904
160
1760
288
-576
-704
128
-992
1296
1136
-1392
-816
0
384
-176
416
1408
480
-1008
-800
1424
1072
208
-1136
-944
336
1888
1024
-48
-1280
-1936
-720
-48
560
1264
256
-816
-1664
-2032
-1088
1136
160
-768
1376
416
-384
704
1456
736
560
496
576
560
656
-272
-480
0
-1088
-160
896
384
352
128
480
-864
784
288
-624
-1536
-480
-1456
-1584
-944
320
1488
80
-1168
-1584
-1104
-704
96
-1120
-1456
-80
-1584
-1776
-992
208
-720
288
192
-1344
-1824
-1664
-736
0
-64
816
1008
208
-608
-592
-1120
-192
-560
1200
160
-1024
-80
-1152
-1664
-160
1664
432
-528
-1264
128
-224
464
-112
1040
1552
-352
-336
-720
-896
-1072
-1088
592
1568
1808
944
-992
-128
1584
528
1424
-608
-80
800
-480
-176
1200
528
-496
-64
320
-80
224
-1760
-272
64
224
-336
-16
864
1392
-752
208
1728
-384
112
512
-384
-1232
112
-1344
160
256
-496
1920
992
640
480
0
432
-1120
-1920
-784
-672
16
-288
752
928
1168
768
320
1616
656
-16
-544
1168
1824
48
-2016
-448
512
-336
656
272
-32
-128
32
1168
1440
-80
-368
144
-400
416
1120
576
-432
-176
32
-496
-1408
-48
848
-160
-160
-1376
-464
448
496
1104
1472
192
-304
-624
-160
384
-256
944
544
1664
-224
144
-832
-1696
48
768
-368
-1520
-944
-960
-1504
-1616
-432
448
-336
-368
48
-800
-1952
224
-1440
16
-16
-320
640
1104
1648
-560
-816
1616
1248
64
192
1136
896
176
-480
-1920
-656
-528
-864
1280
2032
224
-880
-320
-528
48
288
240
-160
-160
0
304
1168
640
96
1520
48
-160
608
800
-1568
-1280
-576
-832
704
-368
-416
128
480
256
-192
-352
32
208
-1120
0
-240
32
928
-512
-176
-240
-272
-480
-1632
-208
1568
-32
336
-1280
-800
1296
-112
-80
-1280
-400
-128
-1504
-576
512
-480
-224
896
688
1152
448
1024
-1616
-176
-928
992
1872
384
112
176
-880
-1952
-1344
-432
736
912
1808
704
-176
16
-208
1296
0
-480
-256
-800
240
-304
-832
-1008
-1168
-112
464
304
-176
-1840
-832
400
-656
-736
928
-480
256
-784
400
960
1600
736
464
1216
1232
208
-1104
-48
-896
-816
-1536
-816
1104
-144
-832
-192
-928
-864
-64
976
144
-1536
368
-256
-1168
1136
1488
-560
48
192
112
-64
240
1088
464
1472
-864
-1568
-192
368
-976
864
-720
-1072
-1968
-224
-1136
-544
-704
576
400
-1232
-864
-288
0
144
-1216
-80
800
-64
-1504
-944
144
704
1536
288
-128
848
720
-64
128
432
528
-400
944
624
272
336
976
-352
80
-1600
-400
96
-320
-640
-1264
1504
1008
736
1312
64
1056
1264
-560
-1328
-128
-496
288
1536
-608
96
880
-1040
752
400
-576
1040
416
-576
656
1088
512
-160
-672
832
1024
416
-848
-1184
16
336
-176
640
144
1344
960
-880
-1120
-160
-1952
208
1072
144
544
-864
-992
1840
208
-256
-896
-1296
-1136
-160
-608
-592
352
-1328
400
384
-1344
-576
1184
336
720
432
-576
-1792
-528
320
96
144
640
-896
-128
-176
-1616
-128
416
-1424
-1984
-1888
-1888
-2048
624
704
-80
-752
-384
-464
-400
-1264
-16
752
784
976
-1472
496
928
-80
1088
-448
-784
-1520
656
288
624
560
-800
-464
560
-112
1872
1344
112
-816
640
512
1360
-1792
-688
160
1168
768
-1088
-1248
-640
-720
-384
-1504
-1824
-1984
-368
784
976
96
-768
608
-16
832
32
-1456
-656
208
624
1712
-80
-768
-2000
784
1040
192
224
112
1456
144
1056
384
-816
-656
1040
-560
384
-1840
608
1168
240
800
224
416
-1328
1088
-112
432
-352
1120
416
640
896
16
320
1152
976
-112
-256
560
-16
-672
-368
112
768
1104
-160
-496
-1008
-1376
-1408
-112
-1360
-192
256
1984
720
-576
-1472
960
288
-256
-224
-1136
-528
-1072
-384
-368
192
496
-944
1552
1072
736
32
-704
288
608
-288
-768
-176
144
448
1264
320
-96
-1008
-240
-560
-528
-688
-832
-1520
-512
-160
560
-336
-640
-144
400
176
928
432
1664
-272
-2032
-496
624
288
-208
-1568
-1664
-544
-1040
-992
144
752
1728
1824
-32
-704
560
-416
-880
1920
1280
1616
-1712
-816
-64
-1120
-576
-384
1232
-1040
480
1888
-352
-192
-688
0
464
-48
1248
688
-976
-1344
624
864
-608
-1440
-32
368
480
-464
-1312
-288
-336
112
-1152
32
288
-16
-1152
-752
416
1520
80
-704
-352
-976
-640
176
592
-416
-240
-848
-656
-992
-432
-880
-1680
-880
640
-160
-160
-32
112
1696
704
16
-192
-608
656
304
-112
944
1072
992
1024
576
32
-624
-688
-720
944
-464
-528
-992
576
96
-320
-464
-512
160
320
-608
192
272
112
-1120
-464
80
-1040
-1008
-48
80
-80
-368
-944
0
224
480
1328
-1552
-1536
896
-272
-848
-816
-1200
-1520
1024
-1424
144
1744
624
976
1040
1120
1248
928
-656
-96
160
-144
-912
-848
-720
-1968
-1312
-560
128
896
128
-1264
96
336
944
448
-736
-1232
-80
256
-1200
48
-1552
-1504
-960
-576
-304
1024
576
1424
832
-880
-432
-384
96
816
112
912
1168
1184
912
64
-928
1600
240
768
-224
512
32
576
1344
-384
-1952
-624
-176
0
-736
528
608
816
368
-416
-1408
-960
-192
416
-448
848
240
-992
416
784
912
1328
224
-416
832
592
1936
384
1296
784
1008
544
-480
1664
1376
1104
496
-48
176
1744
1824
16
1328
1360
1056
32
-944
-80
704
-800
1568
464
-160
-928
-880
-144
-672
-672
-1360
-368
-1056
-1776
-432
-80
-272
-240
-1536
-1184
-912
912
-416
-704
192
-768
464
1328
608
672
1408
-368
-784
512
928
1136
1984
-208
496
-1088
-736
-864
-2016
-976
-1728
-160
1104
-256
-624
816
-304
-1312
-1328
-928
-256
-176
-1040
-1120
928
896
720
1200
992
1280
-112
-192
320
560
1328
896
-384
64
1024
208
-544
-528
48
-912
-176
32
544
1520
288
-624
-1136
32
224
-304
-1632
-1776
1504
720
-304
-608
288
656
-1280
304
512
832
816
-320
-496
624
672
512
-16
1184
288
1472
-832
16
1248
544
-224
656
1504
720
672
-1120
-1488
-32
704
832
624
1056
1488
928
352
-2048
-512
1312
1440
-304
-736
-336
752
272
-144
944
240
-528
-16
1024
-624
-800
96
640
-160
-336
-352
880
48
-144
-1360
-864
-688
-144
240
1280
224
-928
1280
1344
-1344
-1680
-1104
-352
-144
-416
-560
-272
208
512
-416
400
208
1904
-848
-1952
272
1216
1136
1760
16
1312
1680
1360
-480
848
848
432
-816
-656
1488
896
-1248
-896
-480
240
-784
880
80
-352
-288
304
-512
256
640
1840
448
-624
736
-384
-1184
-608
-1952
-1456
176
96
576
656
464
-464
688
1936
944
-160
-160
336
-448
304
1968
400
304
-608
1568
640
-32
-544
-976
-1088
-144
1040
352
-1760
-976
-1344
-704
80
752
-368
64
1552
-32
-1328
528
-624
-1568
896
192
1712
864
864
-528
-784
-1616
-912
-160
-464
-16
-704
-1504
944
240
784
832
304
608
1008
352
1168
1120
-96
-1056
-1392
320
-1248
976
352
32
1872
368
928
-1520
-736
1904
912
-672
496
-128
-736
880
-320
640
1296
304
-1568
-1088
-704
-464
-672
-848
-1184
672
1008
-48
-160
-1536
-1632
-1408
-832
-688
-944
-336
-352
-448
544
-848
-16
160
-624
-416
160
992
1040
1216
864
-624
-304
-688
-576
-992
-32
-1040
-624
1984
272
-1904
-624
160
-1520
720
208
-1296
-1104
-640
-80
976
64
-32
-1008
-816
928
336
-80
1856
2000
1024
-80
640
544
-1168
-1408
-192
-160
-224
-976
128
-320
1968
1056
512
-32
640
1536
224
-864
-208
-512
512
944
416
1376
1680
528
80
160
896
160
-1312
-544
752
1808
608
-16
-528
0
-80
-2032
-832
976
1760
1040
592
-768
-192
-64
16
-1696
-1504
-256
-160
-224
1808
1680
-928
64
-112
-528
432
1008
1152
48
-208
32
-832
832
864
912
592
1120
-752
-1136
-640
608
-480
192
1408
-560
704
816
-1152
-1584
128
1360
-656
-1136
-1344
-816
48
-832
1024
640
992
272
-272
976
1248
1200
1264
960
-1552
-496
-816
-256
1200
-592
-1776
-112
-1200
992
1184
-288
944
816
224
-384
-1024
-768
-896
-1072
-1168
-672
-176
-64
-448
80
1136
1088
-1040
688
-208
704
80
-1328
384
-960
-928
-1200
-432
-944
-768
1008
928
1600
976
1792
1040
-944
-2032
-1424
-1760
752
176
-1312
752
-1968
-400
-1616
-1232
-816
-48
-256
-880
-368
-1632
-48
336
-1488
-656
-432
-1024
464
-96
1952
1520
544
352
208
656
80
592
-192
1568
368
832
320
-384
-176
-144
-32
-656
1024
848
-704
-544
-896
-576
448
624
-32
-864
192
176
352
960
336
-896
64
-112
-704
176
1472
1312
224
-112
320
368
160
-224
672
0
-64
32
400
960
1600
-528
-176
-1008
-112
528
352
112
1264
1088
-928
-304
608
-1632
-640
208
400
-336
-368
32
800
-1680
-112
688
-160
-1472
-960
-160
-1600
-1760
-256
560
1072
0
528
672
192
-32
-1376
-1152
-1120
-112
1376
0
-1184
-592
224
-48
-1424
-272
1600
304
-928
-1712
-736
-240
240
-1488
-1728
-272
-240
-960
-1456
-192
-608
896
1792
304
-80
448
1040
-368
-32
576
1472
-368
-400
192
-1040
-704
288
-256
-1216
-208
-1760
-1136
144
-448
-176
-272
1680
16
-480
864
-1344
-864
-1744
336
448
368
736
-192
16
1696
-416
-368
-384
-1504
352
688
272
592
-992
-1664
832
560
736
304
144
240
-400
1088
-112
448
192
-528
448
-16
-480
-448
-1632
-656
368
800
448
960
624
-528
-16
-496
832
560
-368
1040
2032
672
128
-192
-464
464
240
688
592
-832
1200
208
224
544
464
-240
-336
-192
1312
-288
496
-256
-1504
-480
912
1456
-1440
-432
-1696
-784
80
-112
1424
1440
304
-1712
-624
-1376
-352
-544
592
112
64
80
-128
16
-1232
-720
432
1280
1280
-1056
-1392
-144
-720
1200
576
-752
0
-592
-592
-208
1552
624
304
384
-112
160
432
416
1168
-480
192
688
-1392
-1888
-1920
-48
-16
512
1152
-416
-1072
32
-96
-80
592
-624
-1264
-160
-1040
-1168
-432
-384
800
528
-528
1040
160
880
1728
-912
-1520
-96
-624
-736
-384
560
528
416
-176
768
-1376
-272
1120
1040
208
-560
640
1984
1488
544
-1024
-80
208
1248
400
-432
272
-688
-128
448
-240
1360
1888
400
384
-624
608
-656
-1024
1840
800
192
784
-1136
-176
-1120
-304
512
432
-464
-912
-1344
-1248
336
1232
720
-608
-176
1840
1920
-96
16
192
224
192
-928
-112
-880
-1056
-1248
-592
-352
1072
32
-192
848
-592
-400
-608
-992
752
-48
1680
1344
1408
1744
1568
336
832
1184
1920
-448
848
-16
128
352
-1872
-960
-128
-816
-1520
-1056
-144
-1264
-80
-1696
-160
128
400
320
-1024
-912
720
1248
-544
-528
368
288
-496
-384
-704
272
1248
560
768
1312
896
144
848
1472
-672
-272
-1744
192
-2032
-1968
-1296
-320
-1344
-672
-16
-1440
-1696
-1264
1040
288
-1520
-1984
-528
768
-432
-864
-64
-176
-976
-544
-1280
-48
-32
-368
-1280
-336
-32
320
848
-672
-1104
736
400
-64
64
-272
688
-192
-1936
-816
32
-640
-144
544
272
-480
-32
1408
-800
768
1008
704
-16
144
1520
32
-64
-1536
-944
208
368
448
1296
448
176
-208
1008
1280
-304
-880
112
192
-880
-768
-576
-416
-560
912
1024
240
800
1920
752
1664
-448
-288
544
1264
736
-912
368
-192
-976
1376
144
560
-96
464
992
672
-320
-992
-528
-2032
624
304
-1488
-1744
-720
224
-496
176
1984
432
-336
-272
-32
368
320
1440
-336
-1008
-112
48
496
720
-352
-1040
-2048
-672
-240
-1824
-560
-592
672
176
-464
-1440
-704
-176
-1184
-272
-480
-944
96
1376
592
240
-560
224
-1376
368
256
-368
1472
672
-784
-32
176
96
-912
-1488
1664
1440
656
240
704
-288
1408
1696
784
208
-736
960
512
-992
-32
-816
-1488
256
1552
624
208
-816
-1520
-16
-1152
464
1600
112
-384
-912
-48
-544
528
1968
-80
752
208
-784
-992
720
-64
-96
944
512
368
1728
624
2000
-304
-512
-784
240
704
-64
416
1024
1376
2000
1360
-64
448
-624
-1936
-528
224
272
768
112
-1968
160
1008
-16
-112
352
1008
928
1568
1648
592
-128
-80
736
1152
-112
352
-1968
-32
-1616
368
-144
272
-352
-448
-48
-1456
-1664
-1440
272
880
-1440
-528
-768
272
224
-1600
-192
128
-1264
-368
-400
-1856
224
1040
944
1328
960
1328
608
800
512
624
1024
-608
-400
-672
240
1696
848
-832
-272
-704
0
-608
-128
272
1584
-1360
-1456
-464
560
-256
-16
-144
-608
928
240
-1040
-368
-64
1152
1968
-384
-976
-560
-1552
-192
80
-512
-624
-304
-992
-224
1136
144
-480
1056
128
832
1136
848
208
480
-1440
-1136
-112
-336
112
480
720
1744
-1328
96
1760
80
608
224
768
-864
-80
1632
-256
160
944
1552
-528
-1584
336
1232
1088
-1072
400
624
-1776
-1952
-1104
-64
-128
-1168
-416
-1904
-208
-944
-112
-560
1136
384
784
816
1376
-160
-448
-112
-1664
912
736
-240
-736
144
1056
768
-192
-544
240
640
-960
-912
-176
320
944
528
480
160
-160
144
-128
-416
752
752
-768
192
-416
-1008
1552
560
848
48
304
208
-208
-208
1136
768
128
-16
544
-1968
-816
1792
1152
-224
-320
-288
-1744
704
736
544
480
448
528
592
1168
1072
16
688
704
-416
1104
592
-784
480
1296
-1136
-336
-1856
-656
416
896
-144
672
-1424
-1456
-1824
560
224
1264
-496
752
-400
-1024
-1584
-704
-560
400
672
528
-928
-96
-768
720
464
-240
-1456
-512
256
-960
688
-320
-464
784
432
-912
-16
-960
-304
480
160
1264
-80
-688
672
288
1520
672
-544
96
352
336
32
-128
-1184
1696
-32
-192
-944
-400
544
-1200
-400
-160
-960
224
-336
-1904
-1552
224
832
1504
768
656
112
-960
-1200
-688
-752
1440
1136
384
-32
768
-112
-384
-256
-176
320
-816
-352
16
1024
-816
-896
272
-240
-560
-896
656
720
-160
-896
-368
-960
928
976
-576
1296
816
576
1184
1104
304
1504
928
1216
1776
1056
-1760
-288
80
-384
2016
-128
176
1056
208
640
464
-256
-944
-1984
-576
-288
-1280
-1344
416
400
-1312
-1520
160
304
-1168
-1728
-304
832
672
928
-736
-1728
-1392
-1600
-544
-672
1600
320
-1744
368
1104
1872
912
-1328
-1552
-960
368
960
448
-720
-992
-16
-1280
-912
848
48
-688
-112
-912
-848
-528
32
-544
-224
400
384
224
-992
80
528
-976
96
864
96
-272
-848
-176
-112
-336
176
-528
160
-272
-432
480
-144
-944
-320
-912
784
64
352
576
-576
528
416
1776
624
176
624
96
704
-1184
144
224
-1088
-1248
-416
-688
352
-1840
-1120
-1504
-784
944
288
32
-1136
-288
-256
-1536
-1584
-1408
-272
-1360
-1424
-704
320
704
1056
624
-416
-1104
-64
1472
-992
-624
976
1232
640
0
-784
576
1264
1088
304
736
-112
-1296
-544
-560
-288
1968
1136
368
576
-592
-1072
-1344
-1856
-720
1520
208
-464
-320
704
-720
32
-1136
-1872
-1168
-1104
-576
304
1088
16
48
144
80
-1440
-1056
-608
-80
1952
-752
-496
-672
-496
1200
656
528
160
512
-896
848
0
880
160
-1088
-1296
-448
496
352
-1040
-272
-272
656
384
-160
-832
-1152
-288
-368
-1376
-736
-1248
-224
-48
480
848
1264
-416
624
-304
144
-688
864
272
1376
1648
-496
-128
-192
1312
448
-784
-688
-1008
1168
-192
-32
-496
704
-304
-1712
-528
-16
-1152
-224
1856
1040
704
1008
-112
64
-800
-400
1168
272
1136
496
-1664
-624
-480
576
544
-608
416
-416
-1280
1728
-1328
-368
48
-144
1248
-288
-784
512
-464
768
96
160
416
320
2032
-160
-48
1248
256
-432
624
544
-912
-944
208
16
800
400
-752
0
-1456
-1856
-1584
-1680
-240
-320
-240
-672
-944
192
-432
-1040
336
-320
-464
-1312
1168
1088
-128
384
1008
544
736
-48
-1696
-1360
496
688
240
-1168
496
896
1424
128
1632
1168
-32
-208
1056
-128
800
224
1072
-400
944
1664
496
1088
-928
-864
-496
0
416
-304
-304
-512
-1888
96
1408
1584
656
-384
-528
1264
-80
-208
-320
992
-128
-784
-160
-560
1392
256
416
-992
-176
656
448
784
880
272
128
-816
928
976
832
640
-1664
-304
992
848
896
-800
-928
-192
1680
0
-464
-944
-208
-720
-896
160
-240
256
640
144
-1520
32
-624
-1360
-544
80
832
1616
400
-144
144
-480
-64
-304
592
112
-992
656
-416
-160
-192
-912
-32
-800
1344
-624
-1296
656
224
176
496
-400
-256
1072
1136
-400
48
912
96
320
-16
-416
-976
1184
768
1520
272
1088
16
-1360
-96
-544
-912
-560
-1024
-432
672
-1248
-368
1248
-416
160
816
1200
-720
-368
912
1376
48
-416
512
1248
704
-656
-896
-96
368
-1712
-1264
-1280
-1184
1152
1184
832
-400
-496
-896
64
1232
1008
656
240
-320
496
624
448
560
448
480
-640
-544
1136
1520
288
144
144
-224
-1616
304
896
512
1152
960
1152
656
1072
-336
-608
1120
-528
1088
-16
1040
528
336
80
1088
-384
-528
880
80
-368
-272
-720
320
800
848
1056
-1024
-1168
-752
608
32
96
-880
-656
-1200
-1392
-208
-1776
-160
896
352
-1024
-656
-688
-672
1248
1008
-304
-80
-848
1344
672
704
-960
512
1280
-384
-912
-1088
-192
-560
208
48
48
1376
-1072
-752
-816
-1088
-352
-336
-80
-320
-1424
-464
688
528
1040
96
-960
416
512
48
-496
432
1328
256
800
1408
-224
-368
1472
1120
1696
48
176
480
-736
-368
1280
912
224
384
64
416
1248
-1536
-704
0
1872
-336
-896
-1520
-32
-432
-1392
144
32
-944
-512
384
608
1088
736
1200
832
960
1152
-704
-208
656
-432
-416
1136
64
-1248
-240
1392
1088
736
80
-912
80
-368
-768
-48
-800
-272
1632
1328
912
-1392
-352
-208
-336
-80
1584
784
-864
-1504
816
32
-1376
400
-560
-144
-368
1168
1936
1648
-32
-96
-144
976
-688
240
-960
-768
-1008
-272
-1808
-560
384
-560
-464
1536
-320
704
1920
1056
32
-384
224
880
464
928
-720
-752
-1328
-832
704
192
0
352
384
-1008
1072
448
368
1520
272
496
128
304
656
272
1040
560
720
160
-1616
-1664
368
-640
-576
-352
976
1520
272
-1008
-992
-1904
-544
912
1376
1744
576
-928
-336
-848
-1232
-2016
-768
-912
16
192
32
784
416
-2032
-1760
-880
-1056
352
-976
688
1728
192
1216
32
1776
1168
-544
592
320
272
544
1264
-336
1072
416
-48
-112
-688
-160
-656
384
1536
96
1024
688
544
160
-1232
-1184
-48
256
-816
1232
1152
800
-688
-864
-272
-960
-144
32
-480
-1552
-480
576
-512
944
1088
992
32
-1312
928
1232
320
-256
304
1280
-368
1072
928
-592
-592
-480
-288
336
448
960
-192
176
1056
-1280
-416
1088
1552
176
368
544
1008
-944
-160
-480
-144
1472
-384
480
1728
-144
224
-736
352
1424
-320
1200
192
-512
32
624
1248
1296
704
-640
592
592
848
-96
-832
624
528
336
1616
-256
-240
-176
-544
-48
1248
-640
-16
80
-928
-432
368
-624
96
736
288
1600
1392
-608
-1904
-144
432
480
-96
832
720
416
-1440
-64
-192
144
-1136
-1136
-112
-1408
-1328
-672
1600
64
256
-560
256
144
-832
784
-992
1392
1760
208
1136
-736
32
624
-176
1440
1040
-352
-1968
-432
-816
-1520
-752
-528
-1152
48
1424
1632
816
368
752
-416
768
-1024
1248
240
864
-1280
-496
-432
-656
128
-1232
32
-208
1216
-576
464
432
1328
-336
-1392
-1440
448
-192
160
400
-1168
512
1136
608
304
-1984
-1264
-512
96
1696
240
480
1360
400
416
672
304
-176
-1472
-672
-336
-16
-1312
-928
832
-672
-112
1264
-592
80
304
-416
-784
-816
-704
-1200
-672
-1152
-1488
-1680
-1152
80
304
-480
496
-1088
-1056
448
-832
528
-368
-256
688
1968
1728
1264
80
-720
128
128
-1088
16
-560
-1200
-1712
-336
-1296
-496
112
1104
-832
-976
-128
-896
-576
-336
-256
-384
-1456
896
1888
672
-480
-48
544
480
-320
896
-320
-336
-1488
-736
1344
-128
-864
-784
656
208
1088
-160
-1904
-416
-1232
-368
624
1360
128
-352
128
416
-352
-176
-1760
-1088
832
1376
608
128
832
1712
672
512
1392
672
-80
-608
-528
-576
-2016
-1744
-416
-176
-1360
-1536
400
1152
288
-624
-80
-64
112
528
-1200
-1056
-288
-432
-720
-1536
208
928
-976
-608
896
-992
-416
1440
848
880
672
-176
1296
-1376
-720
-448
-560
-480
-64
1328
-976
-1776
-48
96
-784
112
544
-240
-96
-1056
480
1568
1728
48
176
1904
592
-1280
208
-80
1216
1088
864
672
-1232
-800
-880
384
-144
-448
-80
-320
-1120
1680
1616
64
-528
1008
1984
816
-80
-1456
688
1536
416
48
-928
400
1200
-288
352
-592
-432
496
80
176
880
-944
-1072
192
272
-1872
-1136
-688
-16
-720
16
480
240
-1360
-384
800
800
-1440
-1024
144
224
208
-432
1168
1392
-1232
-800
48
-64
-288
-112
464
80
192
-592
-1056
592
896
-704
-816
-128
-256
-992
-784
80
1008
1376
544
1776
1136
80
80
464
32
-1360
-560
-1312
1312
960
176
-1120
192
-688
1008
16
-1456
-304
944
432
448
-240
-848
528
1424
-912
672
432
-880
-224
224
816
496
-560
-896
-752
-880
-1520
112
192
144
0
-1488
416
1936
1056
608
-208
1584
1856
1072
1008
1008
-160
-784
-816
-16
-160
-528
272
-944
-112
1232
-896
-240
272
-1680
-752
320
-592
192
64
-448
624
1552
-1328
1264
1120
-288
608
832
1328
336
672
1840
256
0
-864
-592
-64
944
-96
-256
-464
-1872
352
1616
672
-912
-896
80
-304
-832
-128
96
-1376
-160
-784
-992
432
432
736
1744
1840
1024
160
608
-736
208
176
-416
-64
864
992
-208
1648
480
-944
-384
1296
528
-992
-272
736
816
224
256
-432
192
1424
320
608
-352
-128
-272
-128
1024
0
624
1952
576
-1216
-912
-816
-1008
96
-496
-1008
-1760
-624
-800
-256
512
-48
928
32
1072
304
-2048
-1888
-272
-352
32
-1136
-928
-48
336
1264
-592
112
672
16
-1536
288
1216
1328
1232
640
1216
-64
-624
416
208
-128
1552
1472
224
-144
-368
256
976
1584
288
656
1344
160
-656
-256
-112
320
-320
-1104
-1424
-512
912
-832
-432
512
1312
992
-112
368
-1360
-448
-1056
-544
16
192
-752
368
720
432
624
-832
96
-1120
704
-720
160
240
-128
16
752
1712
1984
320
-1056
-144
128
-1552
-1648
-176
928
176
-992
208
800
208
-736
128
1296
48
1072
-752
-384
352
32
-672
-944
-400
-224
-896
-1552
-928
-624
1472
1424
16
-960
-1344
-1088
-496
-1344
-1408
-1616
-1808
-400
-896
1488
784
-464
-144
0
224
-192
-1232
448
1184
-288
-928
-112
-288
-304
1184
-560
-688
1312
1664
512
496
368
112
-1344
960
704
208
-1104
-880
288
992
480
272
1168
-784
-944
16
112
-416
256
288
-256
-176
-1552
-1376
-896
-16
-192
1536
1584
-176
224
-320
1104
1792
1168
-1888
-512
-816
512
1040
-560
-416
800
944
224
416
-880
-1216
-784
-608
-1424
-512
-496
-2032
192
1600
-1200
-1424
-784
-256
-256
128
352
736
464
-512
-320
-1184
16
1376
-336
-432
-240
-816
112
1184
-16
528
1152
704
1168
192
-16
1152
1536
304
-64
1024
1328
752
-896
-1920
-1472
784
32
-608
1232
752
-256
-1264
32
272
-192
-800
464
576
672
544
-336
-384
-944
-832
-992
1024
384
192
-208
832
-48
-400
-1280
976
128
-160
-1136
-1920
-416
176
-448
-1536
144
-1392
-1600
-1440
-1408
-608
592
272
1632
896
384
-272
672
-624
400
-480
-96
-912
-400
-32
608
1680
-928
304
1088
80
1488
1568
-16
672
736
-592
-1568
224
1856
176
80
-896
-864
-640
64
752
1264
-512
-752
1568
544
-1312
-1456
-192
1376
368
1008
144
96
192
-896
-64
-144
-2016
32
-1456
-368
-1440
272
-176
-816
-944
-160
1040
-528
-1264
-48
384
-16
-2048
-512
352
-816
896
1952
1904
128
160
624
-608
-1056
-176
-304
-288
-400
96
-688
576
176
-320
64
-320
880
-16
-800
-304
-816
-1200
-1248
-1008
960
320
1968
1408
816
-1920
-208
-1568
-1440
-432
-1280
640
-720
-528
-304
880
1712
304
-480
-144
-208
320
-784
-624
64
1712
-176
-240
624
1344
-736
720
688
-1120
-1344
160
-400
-1296
-1392
-448
-1424
-1776
-160
32
-48
-480
-528
-688
-752
368
704
640
-736
624
-304
128
0
528
-480
-192
-656
144
-1680
-224
-720
-592
272
160
-1952
-1040
-912
-528
1200
1024
128
128
1568
1760
32
-1120
-176
160
-1136
-992
-144
0
-480
176
1232
-352
128
-64
-656
-576
480
1648
-256
-560
-2048
-272
0
592
-1024
-864
-144
1264
400
848
1200
-80
-1616
-560
1568
800
-672
-528
128
-176
-864
128
-480
560
-112
-528
-832
288
16
-432
-608
-800
-208
-736
1056
912
912
848
48
336
688
640
256
1456
1824
240
-1296
1120
-1952
-288
-64
-1744
-160
1664
-944
-816
80
-1376
-1376
-256
-848
-1104
-384
416
928
304
-1280
-304
-1392
752
1152
-1984
-80
-48
-816
-48
-96
368
1216
-256
-2000
-1488
-1280
1376
1520
1168
64
16
816
192
704
336
-160
320
-352
1072
0
-448
-400
832
64
-688
592
-1328
1488
736
1552
224
672
992
-160
-1168
-1712
-912
-352
80
1728
224
-688
-944
-976
-880
48
96
-336
-1872
-1344
128
608
688
-1024
-176
1104
-560
-928
976
-1440
-208
160
768
96
1056
-1664
-1056
208
-1024
688
1168
560
384
-1312
496
288
432
1136
736
1104
-80
-1456
-544
672
-1392
-224
-608
-288
352
48
144
1264
-480
-592
-176
-512
496
-576
400
560
-16
816
1440
32
-336
336
288
-288
448
480
-1648
-544
-1072
-1168
-1504
-432
752
-1536
-464
-208
-528
-800
-288
-576
-224
-1360
-496
784
944
-352
-736
1024
1488
-864
-1680
-16
192
400
-912
-1376
240
336
1136
1536
416
432
1568
-240
-368
1632
240
592
944
1696
800
656
80
1440
544
-512
-1200
-944
-400
112
-96
384
304
784
-112
-832
-448
-432
-1120
-576
-880
-464
-128
1760
1216
-576
-32
-592
-1232
1632
528
912
240
-496
1184
-736
-1344
16
-1184
-576
1344
-1280
-1840
-320
288
736
352
-416
608
-832
528
1136
-256
-1360
-1088
-304
992
928
1072
144
48
896
1360
1056
-416
352
736
1264
-192
-1120
-176
-432
-560
192
-336
-1616
-1872
-1056
608
-560
0
448
112
304
-336
-640
-640
-912
1504
1216
128
-1232
-1728
-640
-208
240
352
432
656
1488
656
-1104
-1888
-848
-688
-1152
-1456
-656
16
-320
736
112
1008
112
1248
944
-960
-224
-288
-1712
-1808
-1040
-1184
816
-304
-304
-1648
-800
-128
32
-1328
-1088
160
-640
-1136
-1120
-672
-784
608
-784
-1216
608
480
368
-544
-272
464
912
-448
-80
-1376
-912
-544
-640
208
608
672
432
544
720
-784
-64
928
736
-176
0
-48
-1088
-720
144
608
944
-480
80
1040
-1040
-720
-1296
-1040
-720
-480
608
992
-704
640
-400
576
-144
-880
352
-320
-1696
-1408
-1664
-784
80
1936
832
-64
416
-112
1600
1680
176
-496
128
32
-480
-272
-592
-1392
-880
320
-832
-80
512
-432
-144
-624
1376
112
-160
-688
-1136
-912
720
512
2000
-224
-1040
1104
1424
112
816
-544
-48
976
-16
-864
96
1296
592
32
-928
112
272
-144
576
-576
-832
0
1280
-480
-1024
192
-576
-272
-1168
-1136
-304
112
0
736
-288
-480
-96
-1376
-656
-208
-704
1168
624
1120
704
288
656
64
944
48
736
736
128
-848
-1520
1344
304
-288
656
1168
-608
384
-384
-1280
416
352
1120
544
0
304
-496
-256
928
576
-992
-432
-896
-784
-656
-816
-32
1744
848
-464
528
-96
-160
-48
-256
-640
0
1392
1280
928
1168
864
-272
-432
-672
48
320
-1056
-1152
-1232
-1584
16
688
496
-112
64
-320
-1344
192
32
1136
1408
-752
-576
-32
432
448
112
768
1760
1744
-768
-1168
-928
-592
-432
-672
352
1248
1152
64
-1728
-432
1584
1168
1568
1072
-560
-1104
-496
80
592
-784
-96
-576
784
48
512
-48
-16
-656
624
1136
80
1424
1664
1632
-576
1328
640
-768
-992
-1328
240
32
-192
624
1408
1136
1056
576
-496
-1504
-800
-224
-704
304
640
-1344
144
544
96
-1520
-256
-544
-608
-208
-704
-720
368
1856
304
-352
-480
-1280
-976
-112
-688
736
-144
-544
-960
864
64
1984
208
960
624
464
752
-320
-784
-736
768
1392
592
-384
-96
256
336
-192
-288
-1136
592
1136
-624
-1008
-112
-896
-1056
-416
-688
-624
-128
128
-1488
-48
1520
272
-1808
-1376
752
-80
-1408
-1664
-464
384
336
-32
-832
-1376
-848
736
560
-608
-448
144
1776
320
1008
1104
608
-176
-208
496
1616
224
-176
-96
304
320
-816
416
240
-1120
-304
224
240
-16
400
912
-1376
-944
208
576
1184
-688
16
-1008
-176
1136
208
592
1456
768
176
-784
-880
-704
-320
-544
-848
496
16
144
704
448
240
784
80
592
-880
-1936
-1248
112
224
1120
464
256
-128
-880
-1568
-1088
-960
1104
1536
-416
-1184
352
368
-32
144
64
-1584
1344
144
-656
-1600
-1216
-1632
-432
368
-32
-400
-1136
-1280
-1520
-2000
-1760
-688
-672
688
592
816
1312
1152
416
912
-816
-912
-640
624
96
-1344
-96
-784
944
1376
96
-448
-608
-1280
1424
1728
720
32
1104
-96
880
336
800
688
-96
-1040
1872
448
-976
512
1136
-240
496
16
880
-288
-896
-640
-528
192
496
64
64
1776
1232
384
944
-336
-848
16
464
-1344
-1296
-1184
-1344
-416
1904
16
496
-368
-368
1024
672
768
-208
1040
1584
-304
-1760
112
160
496
1296
320
-576
448
592
1920
464
544
1136
976
464
-96
-1120
624
928
1712
832
-64
336
-288
-720
1072
-928
-1056
-192
-400
-1168
-1536
432
432
-368
-224
864
-160
-800
976
-304
-464
-304
-64
464
1632
272
480
-64
-1616
352
-512
0
992
880
-192
1024
-112
784
528
-304
1248
-320
-160
496
-480
752
1936
368
0
496
880
1488
560
864
1088
688
1696
752
1776
-672
64
-1200
-1472
-1584
-1136
-464
-1712
-416
1472
-640
-384
192
-672
176
368
1776
1088
-1040
-352
0
-1280
-1008
-1296
-48
880
208
-16
912
1728
1184
432
192
-480
-1136
848
1232
-560
-1184
-1328
-32
1136
-208
288
-1632
240
176
-576
-1280
-1984
16
1632
-32
-720
-496
-640
-368
-704
-528
-432
-400
976
-1664
-992
432
-272
-1232
-656
-128
-656
320
480
1520
-1104
-960
448
-608
-16
-1936
784
544
1680
848
-1264
256
1728
-528
-1504
-704
0
-784
192
544
1920
144
-1648
-736
1152
272
1424
-1248
-400
-800
-448
-432
-144
1136
2016
528
-944
-1840
-912
-784
-304
976
1088
880
720
-592
-800
-912
-1120
-880
-112
-768
-528
912
784
-768
-656
416
0
-384
176
64
272
-544
-848
224
-832
-656
-496
272
1376
1104
368
1488
1232
576
816
144
-272
1328
-896
-1120
-1232
-288
-496
752
1072
1040
1872
1104
720
1616
448
-432
144
1488
1200
1248
448
-224
384
-576
-96
1024
672
-192
-448
-1664
112
560
320
-112
528
-976
896
-608
208
304
448
544
-464
768
1120
1440
320
176
-224
464
848
672
416
1728
-48
-688
-784
848
-112
-32
-1056
-912
384
480
320
976
320
208
816
1024
-1728
-832
-752
-1504
-1184
-1840
-496
224
2000
1888
464
1040
896
784
-560
-1088
128
864
1424
912
560
-1344
-1536
912
816
-352
-288
-1008
-976
112
-416
496
-1248
-336
608
352
640
-912
-768
288
1952
912
-1360
48
-304
-320
1376
-368
-720
-768
432
-496
-256
144
448
368
-896
-32
-1680
96
176
-320
-1072
-544
-1488
-1456
-1840
-32
416
-448
-592
-352
1440
448
-816
848
1200
672
256
720
176
1520
208
656
-1232
688
432
-960
-1424
-608
-656
432
1040
864
400
-368
160
-1472
-384
240
-240
-976
224
640
240
528
-112
-112
128
752
-736
224
-704
-592
-1344
-1280
640
32
272
592
-560
800
1760
1232
-272
-336
-544
752
-192
64
80
-1632
-1264
656
1536
32
-1680
-112
-1712
-784
208
-688
-1136
160
-1216
1536
1184
1120
608
-208
-928
176
-576
-544
-144
-224
-336
-288
352
-128
-1104
144
512
1360
544
-368
-736
-224
-672
-400
1424
1312
176
-1184
448
-480
640
-528
-640
-592
1264
592
-864
-496
592
960
96
-1232
-928
-720
-544
-736
1472
1776
-1264
-512
464
-1392
-336
976
1456
416
-432
16
496
304
-1696
-16
-64
-1648
64
-1008
-224
528
-1088
-656
-160
-1712
-624
1360
-720
-896
-512
-1360
752
1728
1584
-880
-112
1056
336
-1584
-1104
-736
1264
1136
288
-96
-336
480
-224
-752
192
1296
-432
896
1552
1248
-192
96
320
912
944
-1888
-1200
-512
-304
32
1248
1568
1488
-864
1024
1056
-1328
704
160
-672
96
976
640
992
640
-704
-928
-784
-192
720
-1328
608
160
656
80
1744
96
-16
16
944
768
-576
-80
144
-528
-288
1600
256
1216
1488
112
256
-128
1168
1952
1552
528
-224
464
-464
-1008
-224
1088
1216
1536
192
1280
544
-464
-416
1072
32
-1360
-144
-2000
-1040
-1744
-656
-288
784
-208
-992
-1984
416
-576
-1408
-1216
-1600
-1312
-544
-576
208
816
-176
256
480
-240
-432
-928
-1072
80
-1040
-176
144
896
512
640
528
-608
880
16
784
304
-1216
-1520
1056
976
1440
-976
-416
-608
-768
-48
992
400
208
832
256
1184
432
-1072
-1296
-864
-80
-528
-944
704
928
832
384
240
1840
1280
-752
-1264
-112
-1088
-192
-560
352
848
-496
-752
304
16
544
1728
336
528
320
480
1360
-544
-944
-80
-832
-336
160
-608
224
800
-656
-432
992
-496
96
768
-976
-384
-160
-1248
-1600
128
2016
1392
-480
-1552
480
-160
-176
336
368
864
1552
656
-560
-64
-1872
-1904
576
-48
-912
512
416
-1168
-112
400
368
1824
1008
-304
784
1056
-512
704
-96
-1200
-960
-576
-288
-736
-496
320
352
112
608
896
1072
864
240
-1280
-992
1920
1344
-48
-880
-1232
-112
720
464
-816
-464
-432
-848
-1040
848
960
144
304
640
368
1392
-208
-1040
-928
-464
544
-256
-560
736
688
320
96
-1712
-640
-64
-352
304
528
192
-48
-1792
-256
-832
-1104
-720
416
-80
-960
336
672
672
288
-672
-384
-592
-48
-224
-544
496
512
864
-352
-112
-320
720
2016
816
-224
-1200
-1168
-320
400
944
1056
1040
-912
-1200
-1888
384
992
-496
-1280
-832
-336
544
-64
-1120
-288
-688
-128
-832
-816
-1168
-1040
352
368
-976
-1520
-1856
-1376
496
1424
1552
1408
992
-368
-144
-160
-784
-1296
-1456
-640
64
1344
320
1232
736
-832
-1936
-1216
384
2032
1376
272
-464
-784
-1376
432
304
432
592
-1248
192
-1808
-688
1008
1136
1392
480
80
352
-1584
-960
704
656
656
160
-480
-64
544
192
400
608
-688
-1552
464
-64
-880
16
-1552
32
800
704
416
-256
-960
-720
-832
-96
-1136
-224
-848
576
-256
-800
-48
-976
-1984
464
1872
704
-800
-432
-592
-336
-112
-256
512
-64
1792
1904
672
480
96
528
-832
-368
864
896
-480
-432
-880
-608
1152
-208
-480
640
16
-32
48
1680
-1136
-736
-528
-1264
0
0
1040
832
-160
-1472
-1328
-1568
-352
-1280
-1424
-144
-1344
-384
240
1856
288
-464
-1056
688
64
464
-928
-704
-528
-544
-1824
-720
64
464
-416
-208
320
224
-64
-528
352
624
-80
-432
-544
-1216
-1504
-832
1136
480
-624
176
448
416
208
-64
-944
-448
-752
-816
-720
-1328
832
1728
704
592
-1984
-704
624
-656
-304
1136
-560
-80
208
-240
-800
-320
-32
656
-240
-1696
-448
480
-992
-48
128
960
-80
-864
-304
-416
-1056
-1392
-384
80
1824
1584
304
864
-272
944
720
-528
1024
0
-496
560
272
-1296
-848
1664
1904
608
272
656
-688
-144
-880
-208
-1136
608
1152
-640
-608
64
240
80
576
-368
672
1440
-96
-1088
-512
160
288
-16
1696
1616
768
224
1472
-192
640
-64
1408
208
1200
-512
-320
-720
864
64
480
-480
176
528
352
768
688
496
1040
-320
-448
-928
1024
656
496
1584
1376
-896
-224
976
1248
1376
624
-704
-1888
-832
-1664
1152
288
-112
-784
-656
-1136
-336
-880
-896
-416
-368
-288
-656
-1536
-96
928
320
400
-736
304
368
-800
416
304
752
-864
-1392
-768
-576
-752
-96
-1280
-992
1488
-144
-656
-288
224
384
1856
816
1712
-288
-464
160
976
32
352
1632
1904
176
112
608
-32
736
704
1168
464
-336
384
1104
640
1040
672
1536
256
-96
-1072
-208
640
-272
576
352
-16
-832
-896
-288
-96
1504
832
-544
672
208
1200
880
1712
1440
1568
1168
-688
1152
1856
0
944
1280
-240
720
368
784
1360
144
688
-1248
-304
608
1504
-1424
-1136
112
-1424
1024
-768
-496
-160
672
176
-1296
-496
0
448
-1232
-208
592
-304
288
-64
432
-416
-1424
416
448
208
416
272
1232
896
176
224
-560
288
-608
-304
1744
928
464
-864
816
1376
-176
-240
-80
64
-1008
704
592
-112
-256
-1088
-528
-928
-16
0
-272
368
800
208
-912
1008
672
1248
-224
848
-160
-816
-400
1696
1072
192
688
16
-576
-400
112
-416
-1344
-784
0
512
464
-112
-592
-800
-1888
-1040
-208
1984
896
384
-640
-544
-1376
-368
448
176
-1056
496
128
2016
288
-1040
-544
-1072
-896
-704
-608
-1792
-448
-144
-128
-1152
-1072
-32
-928
224
16
-752
-1312
-816
-1744
-512
352
64
1024
1040
448
-1520
-144
-128
736
1104
-272
0
752
-800
-1440
528
1728
-624
-1504
-736
-144
400
64
512
-1136
-96
-192
640
-832
-720
400
-240
-448
976
912
-1904
-1664
-512
816
752
-704
-1184
256
1824
64
-704
272
-112
-1712
-1872
-1776
-1072
-352
-544
640
-176
-576
-608
1376
1264
-208
-704
-16
944
288
-736
-416
-240
-144
1888
1056
-544
-1744
400
-416
1312
48
-1184
816
928
-432
-240
304
1312
384
352
-544
-112
1136
1424
592
2000
1664
736
672
-688
-544
-544
-448
-432
1040
1120
800
128
-1616
-912
96
-1120
-624
-128
1456
480
976
1056
-896
-1088
-368
-16
432
-32
1568
-800
-224
-480
-1248
144
-176
1664
576
-64
1104
32
0
384
-448
1504
1776
432
-416
-1184
-592
128
1056
816
288
320
-432
-448
-128
-992
-784
1120
176
80
-1024
528
1248
160
-1424
-416
-80
1792
1024
-1392
1648
1680
-336
624
-96
-592
336
-1520
1136
-960
-1600
-1008
480
144
80
144
704
592
656
160
-304
-1152
-1072
-96
1984
864
-464
416
128
-656
992
864
592
-688
-1808
-1776
-848
-688
352
-112
1408
1408
1824
352
-80
112
-176
1200
432
-96
-800
-304
-1424
-1712
-384
-928
-768
-336
1280
320
-736
-336
448
864
960
-1568
-176
-576
224
-624
-336
1168
1680
960
1280
272
432
1136
-1776
336
448
-208
48
-912
-1328
592
32
-544
336
32
0
48
-928
176
480
912
-208
-64
544
1264
-32
320
688
-1136
-1808
176
-496
-1232
288
-720
544
1472
1360
-1056
-416
-784
-544
144
-624
912
384
-144
1040
1840
1728
-1392
-80
-896
240
944
1296
512
-672
928
-944
832
1200
-176
-560
-1600
-112
-64
-1120
-1728
912
1312
32
1408
1104
1216
80
-352
-64
672
1856
-352
192
-912
-944
80
-512
-848
-1200
-1408
368
-1168
-128
-368
-720
-288
-1104
-1888
-752
1264
-976
240
192
976
-496
-128
1072
-432
-1232
320
2000
960
-96
480
496
-848
1296
1248
176
336
-352
1872
400
176
-416
-912
-384
-832
-896
48
512
1520
960
1120
-512
96
-528
-1936
-1520
-624
-32
64
-1440
-1808
320
-1056
416
192
1376
-864
-208
-1136
624
16
-432
-112
192
128
-1248
-32
-752
672
-464
-288
-608
-160
288
624
-336
1168
1232
576
-576
16
592
-448
-592
-688
-1376
320
1056
1152
1632
1440
768
512
-192
256
16
544
-256
-608
800
368
-48
208
800
1792
1456
-1168
-160
672
1424
1808
496
1472
1360
-608
-1200
-928
-1584
-112
112
320
1600
-160
-1088
-608
992
1280
-320
-1168
-1408
-272
-304
-400
416
-256
-16
800
752
304
0
-832
-960
-288
-1056
-160
-224
-256
1008
0
1328
224
800
112
992
800
-288
576
-912
528
1920
-816
-976
-16
752
160
-144
1312
16
-288
-32
512
752
-528
-1312
-1632
256
480
-592
-384
-880
-1760
800
560
128
112
1216
1264
-464
-1360
80
-1744
-432
-192
1056
-144
1504
1264
-208
-304
-1552
1392
640
608
384
-144
-656
1264
1664
-576
432
1104
-64
-400
-544
-496
144
576
-1696
-1232
-448
912
160
-1232
-128
96
512
-1168
-1104
-1904
-1600
-304
-544
-1184
224
800
608
-240
-1168
-496
-976
-1104
-720
1280
336
-560
32
96
288
-96
-1664
-912
176
1104
432
-784
1488
-464
-1264
-240
-640
-1168
-1408
-464
-816
-64
-16
688
-1616
-864
0
720
1680
1808
2000
112
-208
944
1424
688
-960
-496
-64
560
128
-816
-208
640
608
720
1376
1424
480
384
-80
-688
688
1984
800
544
-528
-192
-432
1440
-32
-112
240
576
896
-160
16
-272
464
320
-1040
-768
-160
752
1088
-1872
-1488
-1776
-1312
-192
-912
-1008
-160
1248
1200
1120
1328
1264
896
512
1632
64
656
-784
64
1504
1056
1360
848
400
496
464
672
-512
272
928
848
-80
48
-1024
784
816
-1344
704
480
816
144
-16
-384
-1520
560
1232
1360
704
368
-672
304
-784
-160
688
-592
-496
-1776
64
528
784
-1328
-64
-112
-128
432
240
1360
0
928
128
672
-832
-32
-304
448
704
-192
-1136
-32
-800
944
1488
-608
-64
-848
688
480
-1968
-656
624
-128
-144
544
-640
-720
-752
-480
0
512
0
-320
-1792
80
160
-1360
-752
-1472
-960
320
1904
-304
-848
-368
-224
-208
-864
176
-240
-1952
112
128
848
1152
-448
464
-736
-1504
-1072
-144
-304
608
800
1056
-672
480
1936
1008
-672
-832
480
1392
464
-1008
256
1360
-144
1072
1008
1632
1296
-192
-640
-752
608
-16
112
96
432
1472
912
384
-448
176
2032
1072
352
1536
576
1072
736
1952
1072
384
-1216
-608
-768
-528
-1648
0
64
-800
-192
1776
32
1808
128
-112
-608
-864
96
-1264
176
-560
608
1072
-832
-192
-1968
-672
-1680
-1248
816
496
-368
-1632
-1296
-1696
-1888
-688
-1184
-896
-1040
-1120
1312
688
-1344
-48
-1408
448
-752
1072
144
-1072
-592
-960
-816
-1440
144
-864
-1680
-528
-1088
192
-80
256
896
-624
336
-1440
-512
-288
1696
592
-112
-1088
-336
-208
-1696
-464
64
-1344
-1328
384
544
-1632
560
96
592
688
1392
-48
-1232
-2016
-1328
-976
-304
1808
-32
16
800
848
-464
-544
784
864
-1184
-256
-1024
-1456
-272
-240
-784
656
1088
-1440
-144
832
-688
-1728
-1952
-1088
-1344
64
-688
608
1520
272
112
784
1072
1376
1328
688
-880
432
816
-928
800
736
720
416
592
1088
-336
-304
992
992
-48
-1376
-640
800
-768
-224
752
912
-272
480
-528
128
-992
-1856
-1104
-896
-1488
-496
-960
400
640
672
864
288
-160
-944
128
112
912
-816
-1120
-576
-416
-1136
-1376
224
368
-416
-96
1536
448
1952
1440
-1232
-1408
48
784
304
-448
128
1056
960
-192
-112
336
-384
-688
592
0
624
1296
-880
-656
-2048
-160
-880
-336
-304
-32
-704
-688
-240
368
208
-752
-128
-1072
-560
192
-32
1984
96
1232
-160
464
464
592
1232
416
-1360
32
1312
416
-240
1040
1056
448
64
-832
-864
-608
-432
-1264
336
-1328
-64
-768
416
1392
224
-256
-96
-992
-208
-576
-480
-288
-1632
-144
1008
1872
304
1216
112
80
-256
-1360
-1088
-944
368
576
576
-672
-752
-736
-1456
-752
-352
-192
976
704
736
768
992
784
416
304
-1584
1136
-432
-1904
1008
304
1872
-48
-1312
-1024
-512
-1232
-400
-1344
-128
1104
-32
-304
432
720
640
-960
-512
-1456
-1104
-256
1120
160
-400
240
1264
-464
-1072
928
-240
608
608
384
-1472
-208
48
160
-704
-944
384
208
480
-176
-528
832
192
32
336
-16
-272
-1152
-1952
592
-1904
-1792
-256
-928
0
512
-480
1024
-80
-1184
1712
656
1328
944
784
736
-128
544
1824
672
-992
-720
-512
0
-784
352
256
832
112
-496
-48
192
1456
-288
848
848
192
-1360
896
720
1392
576
-1680
-960
16
64
688
-112
-1088
800
576
-720
448
144
0
320
-448
-1136
-336
-832
208
-240
-1040
-928
-320
-96
256
512
1712
992
160
1808
-1664
-1952
-1088
-1184
320
-1456
-1168
-1120
-624
32
1360
1072
944
-288
-368
-736
-688
672
304
928
1664
176
16
1616
-32
-544
96
-832
928
1008
656
768
-912
720
224
-496
-608
-1040
-352
576
208
-96
-656
-320
-1264
-1776
1168
1728
480
-1040
1248
1440
1232
192
-1152
-208
144
80
768
-1552
-416
752
48
832
-1024
-976
-160
-736
64
-1296
432
-576
-1856
-752
-640
-1040
-736
-720
-560
-928
624
320
-1696
-928
-368
-1968
-688
-784
-656
1040
944
384
672
1088
128
-1520
256
912
-160
576
496
-976
176
-128
1120
224
528
-960
-768
-1568
-960
-480
960
1152
-288
-816
-336
1648
-864
-496
768
1056
-32
-2048
-304
-176
-672
1248
1312
-224
-1344
64
-800
688
416
688
432
-1040
1584
1648
-256
1440
1104
-1040
-1216
-1264
-240
1008
-304
-736
-544
1264
1056
-944
-448
224
352
464
-832
-1776
-224
752
-1328
144
1344
1840
160
-960
-2048
-1584
688
416
-384
-800
704
144
-720
480
1920
32
-320
-528
-752
-592
-160
-512
-208
-368
576
1344
848
512
736
-1376
-16
-688
64
1232
704
912
1312
560
-1056
848
-16
928
-112
1568
352
-1280
-864
144
-576
-1008
-736
16
976
-928
-176
-384
576
720
-1856
-96
32
288
-1392
-1008
-752
976
416
-1456
-992
-928
720
208
1904
576
-144
-384
-1616
-480
-1184
-1040
96
-16
-752
-272
-560
-128
464
-784
512
32
-1264
-1008
256
-1392
-32
-80
-352
48
176
1600
-720
-816
-1456
-1600
928
144
320
64
-928
-1264
832
576
48
112
448
-576
16
-16
80
208
1200
1616
1440
800
1520
544
-688
304
368
32
-1024
176
-736
1088
1248
448
880
1056
1264
-176
1152
448
-704
320
240
-224
-144
704
-272
-816
-944
480
-32
752
-448
1136
368
560
1168
1408
-1680
-64
-1168
-496
-448
-1056
352
512
704
-1760
-480
-912
-112
992
-672
-672
816
1696
-192
-1248
304
1216
1120
832
-1536
-896
496
368
-784
-1728
832
976
-224
-384
160
32
624
-1552
-224
944
-528
1088
704
-1216
-1200
-128
-1504
-1248
1072
992
240
784
768
-560
-1168
176
272
-544
-768
-1056
0
-688
1120
960
32
-240
-128
-576
624
1888
1232
576
144
304
-96
-128
-224
-1792
-400
-432
-992
1216
1888
-16
128
416
1632
-864
-784
1216
-416
-448
-1472
-80
-320
-912
-832
-1632
-1216
176
-1216
-720
960
608
-576
768
720
-816
-1472
1456
624
-1024
560
720
480
224
304
272
-320
-1344
512
1440
288
-224
80
1712
1552
944
1840
736
-432
-144
-464
-496
1040
544
0
-1184
896
2016
400
848
64
-1184
688
1104
1216
1392
1232
864
1152
64
800
400
1056
400
-1280
384
80
464
384
256
160
-640
-144
1488
-1216
-1136
-1232
544
336
-16
-256
-416
48
-400
576
272
-1136
-1616
-752
-592
576
-432
-160
144
144
-288
-224
-176
-832
208
-768
576
352
-176
688
272
-1312
-336
1712
192
-1776
-1168
224
544
-496
-272
-1264
96
1136
-352
96
-864
-864
-432
-1056
-240
672
16
304
1536
1888
128
448
496
192
-384
624
32
-448
-432
1072
1232
1440
-688
-176
336
832
1024
816
-320
-992
-48
-432
96
560
224
704
544
240
-1840
432
1808
1632
896
-1728
-128
160
-288
-432
864
-512
-1152
736
-496
-80
-48
320
608
-80
816
-160
-1136
896
736
-16
144
336
-1920
-1008
-176
1712
1584
-256
-1456
-192
-176
-1888
-320
640
944
1520
1120
-160
112
1152
-176
336
1392
512
-384
176
208
-768
592
592
1104
592
208
304
-672
-1936
-352
864
480
-1776
496
432
448
720
-928
736
832
-240
-2016
-1536
144
1280
1456
208
-1360
-1360
-1520
-160
-128
1536
560
352
352
464
336
976
1136
656
896
-16
-1296
-1920
-1552
-1344
-1008
-784
-1136
464
608
-880
368
-368
192
-1264
464
544
32
1536
352
-800
-752
-1344
-384
64
864
1792
240
752
1056
144
608
1504
1360
432
-992
-1872
-1456
-1264
-2000
-576
864
688
528
-416
-672
224
-544
-320
-368
-528
752
1584
-640
-496
1392
32
-1600
464
1520
304
1152
576
912
1024
1616
1824
16
144
1232
496
-720
-48
-1376
704
-1728
-288
-736
-896
-2032
1280
544
-128
-1200
-784
-1472
-1584
-96
-1664
-1696
-816
688
-896
-64
1056
-752
-2000
-1424
32
-544
-1344
-48
208
416
-128
-768
48
896
96
-464
736
144
640
1296
560
496
256
-336
-1040
1920
-928
0
336
16
-480
1520
-240
288
352
256
-240
-752
-1872
176
272
-1216
-1088
-1104
-544
352
208
288
1488
2016
624
-976
288
-240
-512
624
-736
-320
672
512
960
752
1280
1056
1088
512
1216
112
-1120
-160
-1104
-624
-656
544
320
80
-304
-448
-464
272
-1248
-1312
-1456
320
-384
-544
-400
1792
1552
640
-1104
-704
-80
-432
544
256
-144
-848
-880
464
-240
-1136
-608
464
1328
1296
192
1792
1632
128
944
1136
-1008
-784
-1264
128
144
112
-128
-1760
-560
160
-208
2032
1888
-304
512
-384
-864
928
32
-208
1168
-80
688
1360
1024
-304
-1680
-432
736
880
256
736
1216
624
1040
-656
-848
-384
-496
192
-208
-192
432
32
-784
-560
288
-688
-1264
-256
416
96
-1824
-1888
-1712
-400
-512
-2000
0
1872
400
-1008
656
-1696
-1136
528
-48
720
736
-64
880
-1104
-512
688
880
944
-432
-1136
0
-144
-1344
-816
816
400
1536
656
528
-1120
-624
272
1024
-352
0
-864
-320
1232
1296
1056
32
-320
-160
320
-288
-640
1136
464
-640
256
-352
464
1104
96
-1568
-656
-1120
-896
-1392
-1648
608
-480
416
608
-112
-320
-336
-368
-352
-1088
-736
560
480
400
-960
-256
784
528
960
80
240
160
16
-768
336
96
1248
288
-208
880
1008
-368
-144
624
48
-16
1072
992
-1296
-1072
-240
752
1856
1536
32
720
192
-272
160
1328
320
-64
-304
-592
-144
896
-496
-848
-800
-160
-928
1056
1504
320
-544
-768
-1376
-1520
-272
-256
-896
-1728
-96
912
224
800
-16
-816
-144
-672
-976
-1840
-1072
-1504
-1936
-784
912
608
352
368
-1424
-1456
-208
160
688
-368
-128
16
1984
304
-1456
-128
-608
-592
-400
-160
816
1072
-352
-576
-864
1200
720
-672
-432
256
592
-768
-336
1312
-208
-752
-432
960
-640
-1616
-2000
128
-752
112
-240
-976
-1392
-48
288
-464
-352
800
-320
496
32
1152
560
192
592
-160
-1296
-496
96
-864
-832
128
-784
-784
208
-160
848
144
352
848
-160
1072
320
880
400
-224
1088
576
576
528
1440
592
-336
208
0
-1168
-1584
-1664
-96
1440
-352
-784
112
1184
1200
224
-1424
1040
368
144
-528
624
448
192
-1232
-592
-64
496
1424
-368
-992
80
-1280
-816
240
-1472
32
208
896
576
848
960
-672
-768
-800
480
1040
384
80
160
896
736
-240
-1936
-288
928
512
944
688
-800
192
-240
816
368
-48
912
928
-448
112
-448
608
1376
240
-544
1760
1392
-384
-1312
-320
-1056
-1520
1072
1120
-96
-336
-1136
-1248
864
1104
1040
-944
192
-1376
-896
704
464
1072
-480
336
480
128
-672
1392
656
-816
-1216
1936
1664
-1200
-640
-1312
144
-288
-1200
-1696
-960
-48
-656
944
320
1248
-144
-1264
160
-464
-512
480
-496
832
80
-224
1552
1200
-768
-1232
448
1504
1728
-400
656
1056
-592
-1664
112
-464
864
976
1392
1456
368
1040
-960
-976
1024
128
592
-224
-768
-112
-384
-624
-560
-1520
-1104
-1552
-1232
-1232
-272
-912
-768
976
1408
1568
656
-896
208
1024
-304
-784
-144
-400
-784
-1264
-704
-1104
-464
432
1584
-864
-640
432
544
-656
-144
592
0
-400
-720
-1408
144
336
96
-928
1728
1712
-64
-1488
1248
656
-112
-528
-1088
-1008
352
-928
1008
112
-720
-1568
-256
240
-992
-752
-560
-656
544
624
96
112
-1168
-416
1296
752
-832
16
816
-1760
416
-96
-784
-480
1824
80
688
480
96
-1952
-64
-224
80
528
512
-608
-944
-1296
784
1200
1552
1152
-496
-1232
-912
160
368
736
-192
-704
-448
48
-304
-208
-16
-1184
-32
-1152
-1968
-1264
-768
-16
912
-496
880
352
912
896
336
288
-288
-1504
-256
-1552
-1360
-752
-352
-1408
800
-640
-976
-48
720
496
368
400
-352
-1200
-64
-480
736
976
1920
-304
1296
144
0
608
-1872
-880
-112
-176
112
640
1200
1568
-464
0
-80
-832
-576
1024
-80
688
1008
608
-816
-1296
-48
1440
992
-32
-720
320
-208
752
-896
-912
-992
-176
16
-976
-512
1104
1024
352
-416
384
272
-160
-320
576
640
512
832
-416
16
1520
1392
-864
-1504
-864
-256
1168
384
-592
-800
-1360
-304
1008
208
-160
1696
880
48
1056
-528
240
0
-1296
-880
720
1216
-496
-624
-432
-96
1040
992
144
-16
-1264
-256
-240
-128
-320
880
-240
-656
-496
880
-160
592
544
768
240
1552
-448
-416
208
-496
-1792
-976
-912
288
-272
-272
16
-656
384
384
464
688
400
-368
224
1840
-832
-48
-1504
-48
304
-480
784
1584
1120
352
752
-528
128
-1200
-1568
-80
-160
-1568
96
1328
1776
1456
-560
1056
592
-1232
496
-368
-1024
-800
704
1632
1344
-1040
-1424
112
512
-1120
-128
112
1200
848
64
304
-1216
-1952
-1472
-176
-1312
-528
96
224
-512
400
752
-1120
-1744
-944
160
112
1712
176
480
-48
-16
1568
1360
608
-272
-1296
-752
768
-304
-1712
-1984
-1568
848
-896
-16
320
-416
-256
176
-400
448
1152
-496
752
736
1104
-304
928
640
1408
-64
-1616
96
704
-1872
-800
720
400
960
-368
304
416
512
-96
1456
816
1248
-528
0
240
-512
224
-656
112
592
-368
-1632
-576
-336
672
-688
880
1328
368
1200
-400
-1568
-944
960
-912
-1376
128
-432
-1488
-1168
-1392
-1104
-1280
-176
1872
720
-96
-448
-128
-112
336
-480
-128
880
-192
-64
-464
1296
336
288
656
64
-432
-304
976
1376
480
544
-368
-144
976
-544
-304
-1104
-736
-1680
-112
-592
-832
-272
720
800
608
-320
-992
-720
-560
-1456
-1680
-1728
-768
1072
-672
400
1856
16
144
-688
1552
64
1696
80
-2048
96
1264
48
16
-336
336
-816
-1168
-1296
608
-176
-1392
640
208
-240
-1280
528
1360
1248
608
-1632
-384
976
-480
-1424
-1152
-1200
288
320
1088
-144
-336
-1328
224
288
-224
-352
-1744
272
-800
-656
-1040
-736
448
272
-1920
1456
336
832
-672
1536
-192
384
0
-48
1776
-64
-1488
1728
256
912
1104
640
-496
-608
-208
432
1488
880
1232
80
-128
-256
720
864
608
1712
912
656
352
-1952
-368
-1248
-416
432
1712
352
160
-64
656
-528
-112
-672
272
1760
-336
-160
720
576
384
-1712
-1968
-64
1184
304
-144
-592
240
-1344
-896
-1648
-800
848
624
304
-1584
-800
-256
1520
-272
80
1056
1360
1472
-1376
-1888
-640
-384
-208
1216
832
640
-1536
-192
320
1392
1424
-128
-928
-192
1088
-80
-736
448
-432
-976
-1312
-224
-144
96
-1264
-1024
-1136
-432
496
-272
720
464
384
1232
1520
544
208
784
896
592
-608
-1296
-864
1584
352
448
-784
-640
-832
-96
-96
16
1392
1472
1360
96
96
1264
96
-160
80
1248
320
-1856
-1136
544
608
1328
1728
560
448
992
1968
1360
1056
-480
48
1936
704
1376
608
-496
352
-336
-944
1600
384
-1536
304
256
-528
288
864
-1616
-112
1136
1376
1152
-416
-320
896
-1072
-1120
-1024
-976
-48
432
-896
496
704
-256
-768
-688
1344
1856
1776
112
-240
-416
-688
-640
624
-304
528
-224
-432
-224
-640
-912
-64
576
608
-1488
224
1120
448
272
-1472
656
800
624
1008
-416
-1760
-2048
-896
1264
1472
1184
-400
1184
528
64
336
128
1008
-528
-480
-416
496
1632
336
-48
32
-944
1296
1776
544
-1568
-1648
-416
864
416
240
176
-1696
-1280
-896
-464
-400
-496
144
512
1680
640
160
112
0
336
848
496
1136
-1376
-320
-352
368
544
-576
-864
-48
-2048
-1136
160
224
-912
304
864
208
-64
-1632
-1552
-32
160
1184
112
-720
-608
-1920
-784
960
-16
32
16
1536
32
784
112
-1248
400
304
-736
-1008
-1280
-112
-1584
288
928
320
1296
-496
336
48
1840
640
896
-400
-1680
-1728
-1520
-1216
-1168
-1680
-496
-304
-256
-1360
-1328
160
1136
1056
48
1280
512
640
864
-112
1136
48
-784
-1904
-304
-1360
-384
1440
-816
912
912
1280
-224
-752
208
-224
224
-1616
-128
-624
560
208
144
-32
-560
432
-96
-448
-1520
-1920
720
656
-176
272
416
656
-32
-1216
160
752
336
-368
-944
-688
-320
928
-208
-912
-560
-864
1520
1152
-560
256
-784
-1760
752
1056
0
944
960
-560
-272
1984
800
-336
-1280
-1840
-320
-48
-128
-208
1536
304
64
64
-480
-768
-992
-576
-1008
-704
-1488
-560
1024
1744
176
720
208
912
1520
736
-240
1536
1312
1696
320
1376
624
-864
-912
-32
-1904
-544
736
1424
1040
96
624
432
1008
112
-1072
-32
512
304
-1024
-400
-560
-464
512
1168
800
368
2032
816
-1072
-1056
-1248
288
320
-336
-64
-1200
-864
416
-1520
-1344
368
512
-1072
944
-912
-352
-1744
-1312
384
864
1952
912
-1200
-384
976
-32
128
-960
-1104
-16
-512
1472
1088
1632
528
1616
1072
1184
-688
896
-1328
-1024
-960
-1584
336
-400
-912
304
0
1424
1648
528
-896
1328
1792
1776
144
1600
304
-1088
48
-1152
-336
1376
1168
1584
-1152
-1760
-1552
-1104
368
624
-512
400
80
-1344
-48
-112
-1168
-896
-112
592
336
448
432
160
-208
16
-656
-208
-336
560
1328
704
-1616
-1792
-1424
-480
1488
976
1520
1360
432
-1136
-416
256
1248
688
1472
1488
1856
880
560
-1664
-336
512
-704
-1344
-960
-336
448
-400
-1456
-752
-288
64
784
0
784
-448
-416
-544
1888
256
-832
-592
176
-1072
-1568
-480
-528
-768
80
400
944
-464
1008
16
-208
-1600
-1408
-1616
1472
1952
-688
960
1648
208
-160
-880
656
480
352
-80
-1504
784
1024
-1328
-720
-256
288
-400
-1296
-1952
-256
-656
-160
-992
400
-128
-400
-208
-800
208
-1280
-816
-432
-688
352
576
1888
1296
704
464
-272
32
608
1248
1104
96
-512
1328
272
784
1056
1104
1328
1696
-48
-672
-272
-816
-1840
-1392
-416
448
1424
-448
1072
-240
272
-112
-1392
-1088
-784
-944
112
-368
-624
-160
-848
-1424
-768
592
400
560
-272
-1120
-1008
1664
1680
448
-720
-688
-1248
-1200
-1568
-624
-240
320
560
1344
-672
-400
1520
1168
240
-864
-752
-272
-256
-416
-96
-128
-1472
560
-352
-416
656
-1472
336
1344
0
1664
1376
368
-544
-80
-1040
-1136
-880
-768
-240
-1584
-1168
752
64
496
32
-736
-640
-656
624
720
-1120
-1552
-432
-1024
160
2000
-1280
-576
864
1168
1696
1296
-416
1152
-384
-608
944
1008
1168
192
704
240
80
128
-272
-1376
128
416
80
128
128
480
672
624
768
1408
1840
592
-864
224
800
752
-816
-512
-144
176
80
-32
-1040
-1376
528
208
-1136
224
720
-288
-1072
-224
-320
-1280
576
-768
-1936
-1200
-528
304
992
288
-832
-112
-672
272
336
-1488
-768
96
-944
-272
1312
992
656
816
688
192
1136
-112
-304
800
672
-1312
-16
-608
-144
656
-208
0
-784
224
800
-192
-528
-560
-256
1840
-640
-944
-832
-768
64
800
1792
-1728
-912
1072
112
80
-1328
-448
512
-864
-720
-208
-64
-720
-1664
-928
1184
1456
-752
-912
-176
-320
-208
1328
-480
-1664
-528
1920
-192
-1152
-1648
-1248
-1296
-864
-896
752
1120
1568
64
-1040
-272
1584
432
-640
-624
-1696
-736
-1344
16
208
544
784
672
1312
1888
-896
736
1184
-1360
-896
-1200
512
1856
224
272
-1360
-560
-1456
-1472
-848
1312
-192
256
1712
336
-32
48
864
544
864
112
-2000
144
1648
928
-352
-800
-768
-288
240
-528
32
784
48
496
-384
-64
-416
-1584
176
1296
1088
288
1696
848
-480
1104
1728
-752
-480
-1248
-336
240
-880
576
-336
-608
816
1424
1808
1568
-880
-2016
80
1216
608
944
208
-224
656
-1424
-1232
48
544
352
-528
576
-592
-1344
-288
-1344
-112
-96
-768
-192
1728
1136
880
96
816
1248
656
1216
1200
1216
-304
-1488
-1056
-288
336
704
160
1440
1584
320
-1888
-112
32
-560
1072
1536
32
992
-544
-672
240
1024
112
656
864
-176
528
240
1568
2016
1024
432
224
-112
-752
256
-560
-368
416
352
448
-32
592
-128
-560
688
192
-16
416
832
192
-496
-208
48
384
624
-368
-1280
-1344
192
-864
-768
-400
-592
512
-608
304
608
-1488
-1296
-1120
-272
-48
320
1040
16
-96
576
-624
-704
160
1328
1360
2032
1072
368
-800
-1552
-1120
-272
400
-368
-272
-560
-704
-1680
-240
288
1264
1072
1008
112
928
1408
-848
-992
-496
-320
-1680
-1824
-752
-1120
-640
-768
1184
656
928
272
1376
256
848
-912
-592
800
-496
80
1392
912
1072
576
144
-1168
-1584
512
592
-528
96
-400
80
640
1664
784
624
-80
736
1024
1472
-496
-640
-352
-512
-208
160
-704
-1456
-272
672
640
752
-784
64
-48
-896
-240
-1488
-1856
-1184
688
-288
-1376
-1504
-1024
480
-976
544
0
-928
-1056
-848
512
-112
-656
192
-528
-1440
-1728
480
-96
-736
-176
1888
-112
-1744
-464
-1984
-304
-272
-1360
-1088
-176
160
-704
-1024
368
-48
688
-1024
160
-208
-416
672
672
880
208
1040
432
-1024
-272
-1424
144
1200
736
-1536
960
2016
1488
1008
160
-576
848
176
32
656
896
912
1728
-592
-976
896
-48
-1488
528
1248
816
-848
-656
-1424
-1648
-576
-1104
1264
688
-560
-592
-880
-336
432
48
-240
-992
-864
848
-96
-128
1088
-224
-480
-1328
80
1040
1216
-448
-400
656
416
-656
-1184
160
1568
1904
1168
464
-832
-1888
-32
96
-272
-848
-528
544
-624
320
64
288
-1296
-48
-304
-1744
-1888
-1536
80
-560
224
976
-368
-480
-912
-1568
-576
1008
-96
-336
992
528
-464
480
96
-576
-112
-368
1248
160
96
-288
96
400
496
368
-896
-1760
-640
-592
736
1840
-112
-608
-1104
464
1088
784
928
448
-208
1232
496
-208
1824
560
1152
528
-96
-288
-1744
-768
1728
1392
912
1536
2032
688
-80
416
976
-1280
-304
1952
1568
432
1568
832
368
48
1264
1056
-208
992
-928
-624
496
-240
64
-544
-1040
-176
-368
-1872
-752
128
1024
-832
-1616
-1120
-32
368
-720
-400
-208
-512
-880
-816
-640
-1728
-144
-480
688
432
-704
240
-432
160
-64
64
-448
976
-544
-1440
-288
-304
1584
1472
-816
-384
-240
-1088
400
-224
-1296
-480
-1408
-1152
48
672
800
64
-1584
-1088
-1632
0
-1168
672
1120
-80
672
416
-352
144
688
1104
-352
-512
1872
1600
-288
-592
1136
640
944
-560
256
-848
-704
-464
-1120
224
-464
-1824
-496
1072
160
736
1872
880
416
-176
-560
-560
-240
-256
-448
704
-1696
-1872
-288
816
96
96
112
304
-1104
336
208
256
-480
928
1664
176
-464
-368
-320
144
-384
-1616
320
672
-688
-1296
-944
-448
-896
-896
144
672
-528
-480
-1264
-1152
448
1552
-1024
-464
-1584
-240
800
384
-1840
-784
-1008
-736
-1344
-896
384
816
-288
-544
128
1984
1488
1360
672
-624
-1504
-720
-1696
-1552
-176
-784
-1920
-1584
-544
-608
-384
-1184
-96
448
592
-848
-1184
-2032
-1280
-816
-816
464
800
1088
1216
1904
-80
272
-432
192
1120
80
464
336
640
848
-720
-48
752
208
1856
688
1136
1024
336
384
112
-1696
-976
656
0
-1952
80
736
1216
592
48
528
1008
496
-1088
624
-64
-160
-1248
-368
-224
-160
-608
-448
1088
1600
976
64
576
848
-144
1264
1824
-464
-1152
-1296
-1008
1152
-1680
-80
-560
544
1520
400
-992
-896
192
304
912
752
1120
672
400
1296
-48
128
-800
-1280
64
1152
560
480
512
-1104
-640
1760
-112
-864
-1616
-240
0
352
640
528
32
1584
16
-48
-336
1488
1056
1840
-432
-1040
-1008
512
1872
-1984
784
544
1456
304
-256
-1808
-256
800
-832
-80
-240
-128
528
512
-1056
-464
-528
-320
64
848
256
-64
-224
-64
1296
-304
-336
-1008
-336
-208
1456
224
-672
640
624
688
992
400
-144
640
1360
80
-160
-1040
576
-800
16
-736
-80
1248
656
-464
-224
-1088
512
-1568
496
384
0
-1248
-176
448
48
208
176
512
128
656
-64
-496
-976
-768
16
96
1248
48
528
-416
-64
1200
1536
-1312
-1200
256
32
-1360
1488
1408
16
-992
-592
-608
-192
1440
1920
-688
-1472
272
1072
784
464
-512
-816
-48
288
1408
960
784
992
-256
192
944
-112
-1248
-576
672
688
-1136
-2032
-1232
-1712
-304
1232
960
272
1104
1744
320
560
864
-1312
-1296
-1328
-1968
-944
-656
-336
-1344
-912
-1248
112
272
1776
288
-16
432
-304
-912
-528
-1344
864
592
656
480
-240
1424
2016
80
-608
-976
-576
-1392
-1344
-768
-1600
208
-64
80
-1072
1136
448
-48
-160
-1600
-720
-1120
-1200
-544
-208
-576
16
384
848
160
-48
-416
640
832
1168
96
1248
1824
1552
288
720
1728
-432
-1728
-672
-1024
-160
-176
-80
-1904
-976
-1536
-1280
1216
1024
-816
-144
-784
-1296
-992
-960
-1024
-592
-112
64
-528
-96
1888
1200
-688
-1520
288
64
-368
1824
1184
112
-832
-80
64
-1296
-208
928
-1024
-1088
336
880
-368
-544
-512
-1328
608
608
864
736
912
1040
816
672
672
-1344
-1184
-1824
-368
0
1024
-1392
-1840
736
32
112
-1536
-688
880
1328
-720
-16
976
560
176
1360
272
-48
1808
1152
1040
-144
1184
1648
-432
864
1408
-752
-448
640
-528
-304
1568
1120
-160
-1360
-752
-992
-480
304
336
-800
-80
528
896
-48
-272
-1280
848
-320
16
80
-1744
-672
464
1056
1328
400
464
272
944
1536
800
336
-416
-288
672
1328
-880
-1120
144
1024
352
752
96
-560
-624
176
1616
1120
1648
288
1856
368
-976
-672
-1520
-1168
272
-960
-1152
-832
-128
-1904
-320
1200
1968
64
224
752
1264
800
-144
-1232
-1264
-160
-2000
-1680
912
-1200
-400
-992
-1616
-304
96
160
-144
928
624
-96
-304
-1120
-592
-544
-336
512
1584
144
-208
-416
-144
1632
896
336
432
-1424
-672
752
1056
-80
1264
-832
-1152
-1216
288
1168
1312
1440
-816
1664
416
-1040
320
1392
-480
-496
416
336
-560
-352
-672
976
128
96
80
448
-816
-880
-800
-352
-176
-176
96
464
256
1280
-240
-1088
-1648
-1056
-800
-800
-672
-1424
-336
992
1216
1200
304
576
848
64
0
-368
-80
256
128
-752
-912
-1072
-560
864
1328
1248
-288
192
-400
-1008
-240
1152
128
992
-288
-64
-64
-864
1472
2000
464
-16
-864
-1424
336
-128
-848
-896
-816
-944
-496
208
-64
-1312
-1232
-448
1056
352
-96
-656
-160
576
-1168
-1104
-224
1552
1168
-1216
-960
1936
1136
304
-800
-1200
608
1200
528
1456
112
192
896
1472
1376
-352
-1120
-1152
144
880
944
-512
-752
-304
208
1968
1808
240
-736
-400
-512
128
-288
384
1424
-528
-944
352
-880
-720
16
2016
-1312
-496
-400
-16
-128
-464
1648
-432
656
1968
-320
-128
1856
1664
144
688
-128
1824
976
-1488
-1248
-1360
-1088
1200
960
-416
-384
-1648
-384
-1408
-208
-240
-1856
-480
1872
1040
496
160
-656
1152
-64
-256
1296
1728
352
-704
160
1136
560
-16
560
544
208
224
416
-1184
-128
1040
-528
-2000
704
976
-720
-496
1152
192
-912
-912
-768
-992
-848
-240
336
1216
816
1664
-1616
-752
592
-368
992
1392
272
928
1200
768
1952
896
480
848
-320
-944
-1584
-960
-128
-1296
1408
976
448
496
-800
-384
-384
-1120
1440
320
-112
-576
-240
-112
-416
-464
592
-384
-496
-1472
-32
784
1040
1872
864
736
0
-1184
-960
384
1104
128
-944
896
128
-32
-1408
64
608
1776
1168
-592
864
-240
1904
1808
544
-320
64
352
368
-864
-688
-1520
-576
-1152
-816
-448
-288
-1856
-368
-816
48
0
-592
-384
-320
-240
560
48
208
-768
-1248
624
960
720
784
1184
-1040
-304
-144
112
0
-256
416
-1040
208
-672
496
1312
672
1040
-80
-512
2000
576
64
416
768
1824
208
-560
-880
512
-816
-1568
-1200
-208
848
48
464
-368
-592
-1328
-496
-1696
-2016
-896
-272
800
368
-560
576
16
1136
-1424
-496
992
-112
-544
16
240
976
-704
-1936
-1360
-368
-1072
288
480
1472
1488
-112
-304
-640
832
560
-736
-16
416
-1008
-400
544
-96
80
-1120
-1600
96
-1136
-1776
-1232
-1216
-1648
-544
1296
1360
1104
224
-1152
384
736
1120
304
432
-816
-320
1296
896
736
-1392
-1920
-1104
-624
-1408
-944
1328
-1232
-448
1024
512
400
0
576
0
224
352
432
432
720
1152
-640
1248
1248
144
-720
-64
192
-912
-896
576
208
176
576
-64
672
32
64
1024
592
-496
704
1904
688
880
368
-1104
-1488
528
-576
704
192
32
384
912
224
960
704
976
-752
-896
688
-224
-112
1888
1808
512
1088
144
-144
-288
112
-496
-1120
256
816
1488
1072
-256
-64
-16
496
272
400
256
-1104
-176
-1552
672
-304
-1248
1264
1552
1888
-272
-1232
304
-512
-16
-16
976
208
1104
608
944
688
688
16
-208
-1168
416
256
1072
-32
-96
-240
-272
-128
512
2016
1792
384
-1392
576
-96
-656
-176
-608
1280
2016
272
96
624
-800
656
-128
240
-160
-1072
-1504
592
592
400
-1424
-1088
-592
1200
1040
1008
160
-176
192
96
-1712
-560
128
-880
-592
1104
-912
-1408
272
-400
-944
1760
896
-336
-464
-1904
-1376
-1248
-112
-240
912
368
-336
-288
-400
1360
-448
-1456
-832
208
448
1104
0
352
944
560
-1120
16
-304
-368
-336
912
560
-496
-1024
608
80
-464
1440
1328
800
-816
-528
-464
1328
1120
-496
112
-128
-256
304
784
-496
-224
1328
-1264
208
-848
-752
480
-352
-1872
-992
-880
1008
880
960
48
432
-1376
-1312
1744
-16
160
-864
-1120
-1296
-352
1136
240
768
448
-16
1072
-400
-464
192
-640
112
-640
-576
-528
1808
1680
-16
1008
1280
608
-320
112
-224
-624
416
-352
0
-336
-240
-1952
-1472
-256
-1104
-752
1056
-256
-1360
-576
-576
-640
-80
-176
-416
-16
-1296
-448
672
-368
32
464
240
-800
-1664
528
-256
-784
-352
-1408
-1712
928
1488
1520
912
-48
-592
-704
-768
-896
560
-784
-560
-720
-592
336
112
-608
-1488
-832
48
-560
496
-624
-608
-1072
-160
720
-448
-1552
-176
-64
160
-336
656
512
512
272
-752
-352
224
864
1040
1488
352
368
496
-544
128
816
896
-320
1040
1232
-96
832
688
496
48
-656
1296
96
-272
-560
624
416
-256
-112
384
832
80
1536
160
80
112
16
416
160
-960
544
480
-1536
-1024
-592
-704
0
1280
32
96
1632
-688
-880
1616
-16
-512
1392
736
352
-320
-688
1264
352
-400
64
544
1120
-256
-224
-1760
-320
-864
1024
720
-592
-80
-768
-32
272
48
-1072
-304
608
976
-1152
368
1712
-448
496
1248
832
-784
-720
-1440
608
384
-1184
-688
800
624
-960
1280
480
-1232
-112
-272
176
-416
-1088
-272
-288
-480
976
1472
128
1056
992
-1008
352
304
128
-1408
-1360
-1056
-1344
-1856
240
1024
-768
-352
-544
-400
-544
-992
-656
1408
752
-640
-1120
-416
96
-656
400
-400
-896
-1200
416
1120
144
240
-1456
176
-544
-1632
-880
144
-448
-32
208
-64
1168
1232
1808
-80
800
-848
-1520
-144
624
896
1232
880
1248
-224
-368
208
1024
752
656
48
1680
304
1120
992
-960
-1456
-288
528
-112
272
1200
64
544
1072
-720
608
752
368
416
-448
752
-400
224
1632
0
1104
-1392
-1104
-416
-1024
-640
-304
400
544
224
336
-208
-1280
1568
-320
-896
-864
-736
-176
-448
768
1232
-528
-1472
48
1392
480
1984
448
688
1072
1184
720
400
1712
-784
-496
-192
-192
-1104
-128
-256
-1664
-272
192
-208
-704
-560
-1616
1808
1232
-304
-800
-256
112
80
832
-224
-1296
-816
-1200
-176
-48
576
384
640
560
-1552
-320
288
-592
-912
-304
352
-736
-1888
-704
-848
-336
-128
832
-80
512
192
480
-176
496
1216
-656
0
224
144
912
-704
-16
304
-1904
-1184
-1040
-1712
-1920
-624
944
336
736
-1408
-736
240
800
1024
-944
-960
368
1696
176
-1424
384
448
416
992
320
-976
416
-1328
-896
-304
608
-1088
-496
-32
1184
-496
880
944
560
256
-832
464
1120
544
208
832
928
-368
-1152
0
896
-496
-1456
-880
304
240
-1472
-1776
448
1440
640
1200
-144
-1584
496
144
-1424
16
-384
-304
-336
-384
576
2032
784
-816
-128
896
864
1520
1808
-736
-1216
-768
-960
912
848
448
688
-1152
-832
176
-304
-176
-928
-592
896
448
160
1808
400
-480
1360
96
-800
448
1616
1360
-192
256
144
-384
-176
96
-48
944
-32
1264
-144
-640
-896
-160
1296
1808
1584
1344
672
-672
736
-208
-624
784
784
672
-288
608
1008
816
640
-784
-800
-1392
304
1120
240
976
752
-272
-1744
720
896
-352
416
592
256
-576
-704
-1072
640
-32
-848
-704
784
224
432
80
-1024
560
-16
-368
-576
-1952
-1104
-1104
-96
-848
-272
-384
704
-256
-1152
-64
560
-1744
-512
-144
-1680
736
208
-208
1328
704
-80
-1248
528
112
704
1360
1072
240
128
-688
624
160
-704
-1120
960
832
-288
-848
112
-1024
480
1024
1248
768
208
-1728
1056
1680
880
288
0
704
1312
-576
112
-1280
320
1392
-624
-1776
224
1536
-288
784
768
-1648
-1008
560
1280
672
1104
-32
64
1200
288
256
-80
-448
-1680
448
752
-176
-656
-368
224
768
480
-256
-176
-992
-1680
256
-208
-1072
-1904
1088
1616
1760
960
-336
768
80
-1520
-896
464
-304
128
384
-128
1072
-32
1536
160
-2000
48
960
-480
-928
-656
-448
592
320
-592
-48
1008
1664
192
-672
864
656
64
768
256
672
-96
-1552
1136
416
16
-560
176
144
128
-912
176
-624
32
-992
688
-432
-656
-320
816
-816
1680
1376
-1296
1008
864
688
-1664
160
-112
-448
-288
800
1168
1232
768
832
1008
400
-480
-368
-480
-320
-272
-880
-1584
-304
-1104
-928
-384
256
1040
208
-144
-1984
-1968
-288
-2000
-1936
-576
1040
1088
240
-1440
-32
1136
528
-1312
-368
1104
864
640
144
960
448
0
448
-448
-272
288
-768
336
192
-464
-896
-144
624
448
576
-464
-1552
-400
-288
-1248
-1552
208
608
1408
384
-1520
-1968
-832
-576
416
-944
-144
-1648
32
-1264
-1888
528
-224
-752
-1152
-304
-704
-1008
1184
672
-1360
-704
-240
-1072
-640
1136
352
1984
912
-1136
-944
832
800
-672
-816
1808
16
1392
-528
-816
-32
768
272
592
1088
992
1568
0
1200
-80
-1216
-1328
-416
-1056
-288
1824
-352
16
-1296
432
240
32
1744
-592
-944
-48
816
1104
96
32
1376
832
496
-240
-512
272
976
-224
1168
576
-592
176
-384
1408
80
-1808
-496
448
1664
320
368
1792
512
-528
-576
-1056
400
-1584
-880
1344
-400
-480
-400
-48
1072
1440
-368
1664
64
480
992
464
-160
-848
352
256
-1424
-560
-576
-432
368
-288
-368
96
144
-112
-80
-1536
-384
-1648
-112
-576
-288
288
336
-32
-160
528
1616
-1360
-1104
432
-1824
-1792
-272
-336
-1424
224
-816
-1360
960
0
-944
-544
-400
-528
400
208
-1888
736
656
448
0
-224
1472
432
-992
640
432
-1904
-16
-128
-384
-1328
-912
176
1056
-720
-656
976
-288
-1248
-1072
-672
-528
-256
-96
-976
-1104
800
0
-704
-432
832
-1088
-1792
-784
96
-256
992
672
1360
560
-128
880
1104
-560
-192
-1424
-672
528
144
304
496
-512
48
992
1376
-816
352
80
208
-96
-544
336
1408
1088
144
208
-128
192
752
-112
48
512
-304
272
1104
-48
-816
80
-1088
-384
-1760
-464
-400
640
-640
128
-1072
1648
1056
1056
688
-192
288
352
-1824
-752
224
1872
1008
400
-1024
-64
-32
-1152
-928
-400
848
-1440
-1344
256
-880
-1040
-128
-1184
-1536
-1200
-1408
32
464
-288
-784
1344
208
-784
128
-1760
-1344
-800
-864
1600
1632
656
-432
-1712
1040
1744
-16
-752
-1648
-176
-624
-1680
-48
1008
-640
1584
224
1264
672
-1152
-448
432
336
848
1232
240
-64
960
1584
400
-144
-432
-1024
1184
1264
496
864
384
-1280
-384
-880
-688
-336
1264
1520
992
-176
224
704
1904
32
992
864
912
-1664
-1408
-128
416
976
-576
-1008
-560
448
1808
1664
1488
672
-16
112
-528
-464
368
1216
752
-288
-320
192
-1168
704
1088
-256
-160
-608
-752
80
224
-672
-624
-80
-400
-160
-368
640
-496
-1568
-1936
896
784
560
464
608
848
736
-224
-912
-272
48
1584
1232
144
336
368
-528
512
672
-320
160
752
-1504
-64
176
1744
416
-1056
-1200
-1136
-528
-160
464
512
1200
1104
1616
1936
1216
320
-64
496
1088
-288
-1408
-880
-272
448
176
480
160
-1264
-432
-992
160
656
-464
96
-96
-1920
-432
384
1424
1088
128
-176
160
-512
-464
-1296
-2016
-288
-864
-1392
-96
-288
672
1328
-48
1712
-800
-336
-192
-400
-1504
592
-448
-1312
-256
736
1008
-96
1040
48
640
-880
-1152
1520
1504
-272
-1680
16
-704
-1168
1088
80
320
1328
-336
-48
-272
-912
-1008
480
-160
-192
-272
-1600
-1760
-1168
272
288
-704
704
-160
-1712
-96
-800
-624
-144
1152
96
1152
1264
1168
224
-624
-256
-576
-32
640
80
1472
1792
-416
-1088
816
-800
-1296
-368
-960
480
784
1072
-1280
-736
80
464
-496
-560
-816
-1152
-1360
848
-416
-1648
-1952
-1840
-1024
-896
1472
-496
-896
-1120
544
-272
-1296
16
-1088
-32
112
-224
-1328
-1792
144
592
1248
352
1808
464
-1856
-320
-560
-672
-1136
-496
1728
-256
384
-400
1104
80
-176
-288
848
-1040
-1616
-2016
-1024
912
-1152
1216
1824
-96
-352
-32
-368
-128
-192
-1264
-272
-288
-1328
-1584
-112
864
160
1088
2016
416
1232
288
-1072
1168
1904
1536
80
128
1936
400
-1024
-1728
-272
1120
128
736
-528
-832
800
1344
288
-240
272
1280
416
544
-928
-528
1056
-384
-560
-416
-1056
176
1248
-144
-1520
-80
656
1184
240
-512
-1072
-592
912
832
-1232
-880
368
-352
-416
-848
-752
1360
496
-800
-480
1344
448
-176
-496
-432
784
608
-160
-96
-1504
880
-368
832
912
896
640
1456
0
544
1312
-912
-304
-1536
-1392
-1280
-256
-784
-1424
16
-496
-1280
-1248
-1808
-832
-176
160
544
-496
-752
-912
-320
480
608
560
-80
-496
-736
1120
704
-624
-880
-144
192
-1056
1376
1712
-208
-768
1760
1296
1200
880
496
832
240
-368
-64
1600
320
-912
1056
-464
-1920
-1344
-1584
-1184
-1168
-864
-80
-1056
-192
1408
688
-480
-352
928
-32
-336
-128
-1536
-304
832
-352
-32
-1888
-1408
-208
816
384
-640
192
1040
-1728
-160
-80
1072
1008
704
1808
976
-672
-864
272
1840
320
-1904
448
32
64
-656
-1200
-352
48
864
304
-256
1024
512
-1040
-1152
-960
-112
-256
-96
672
-288
688
512
720
192
-704
928
1344
-32
-1424
160
304
-240
-704
1328
992
528
400
-1056
-1408
304
-208
480
1440
160
1248
-784
496
672
1520
1120
432
-1136
0
-1520
-1136
384
752
-352
-256
-176
-592
-16
896
-272
352
400
560
240
-1680
-432
-1904
-1504
-128
-576
-800
816
-304
208
896
896
752
-1696
-352
288
1536
880
800
-192
208
-816
-304
592
-272
-816
-848
688
1760
928
928
1168
576
-1232
-1760
432
368
768
432
-1232
-1504
288
1264
144
-1600
-496
192
-64
832
1024
800
800
-128
-208
-656
-896
-640
848
144
832
16
-112
-944
-960
544
1776
1520
1584
768
-80
1760
208
848
-288
-880
-32
320
-1568
-1488
32
640
1536
656
-400
-1488
-1616
-288
-464
544
-416
176
-1648
1984
368
-208
112
768
272
160
1104
512
-1552
-1008
-1392
-1472
336
208
-160
-1136
-64
-112
-992
432
912
288
352
64
1392
144
96
-336
-352
-608
-96
256
-336
-1920
-880
656
128
496
-816
-2048
160
896
1872
-208
1392
-192
144
-304
2000
384
-704
832
592
2016
1376
-1488
-80
-1376
-96
224
-1408
1344
912
-1264
-272
-1456
-1728
736
1376
256
864
-640
-16
-528
-656
-1136
-1328
816
-288
80
-192
384
1072
-1632
480
544
304
1712
-144
384
880
-480
-640
816
-32
784
192
1152
208
-80
-1136
-1456
-640
480
-224
-192
784
336
1472
1056
768
144
-288
-1392
-1792
352
-656
656
32
-1296
-848
-480
-176
-112
-736
-656
-144
-1440
-1488
272
-608
-432
-272
-1056
-528
80
-1424
-768
-112
-1360
-1136
-1072
-1008
-240
-624
592
-336
272
-176
864
144
448
-256
-656
-336
-1456
-1632
-608
432
784
592
80
-1408
-640
336
1008
1344
-256
-1776
-320
1248
-400
-1056
608
864
608
-48
-864
48
1040
1920
112
-1200
-1728
-912
-496
960
1168
-736
-1344
-528
-176
-96
208
-1248
-1120
-1312
448
1520
-1136
-1120
672
1264
656
1424
-672
-64
-240
-688
-64
544
0
160
32
112
656
1136
16
-368
1040
-1120
-384
1024
1200
-608
-352
1024
1280
384
-544
-112
-432
384
208
768
-80
432
272
928
-656
-464
1168
1728
800
224
1376
400
-16
-384
688
464
496
-208
-784
-400
528
368
-848
1856
-368
-1152
-1040
1344
1632
32
-1568
-304
-1056
-1680
-240
-896
-944
128
176
368
1152
1312
-704
336
928
512
-1856
-1104
-544
-1616
-384
-784
48
-1120
-64
-336
-736
-672
-1136
-528
256
-1312
-1056
224
128
624
80
-1472
-1904
-1296
-112
304
-768
-160
1344
592
-128
-720
800
-288
-1728
352
1328
-320
400
1520
1296
624
-928
-288
-912
-672
-832
-32
-1840
-1264
-1008
-432
704
240
-320
432
-336
688
112
368
224
144
0
752
1376
288
1456
592
-464
128
32
464
224
16
1088
1568
-1120
-1088
-704
-1360
560
-464
-208
-336
-304
48
-240
-864
144
656
-1136
-352
64
192
-1920
-896
-352
-464
-608
96
-144
912
1392
-800
-1440
-768
80
-288
544
-416
-1872
-1824
32
640
-240
-1152
-688
-1168
112
64
992
1168
816
352
-144
-32
496
-688
-1952
1120
592
960
752
1504
672
-896
-400
-512
64
720
-416
-432
1392
-448
-384
-976
-384
544
1056
240
496
1696
16
832
1792
1136
-688
832
1872
1680
-304
-448
-1520
-16
1232
1552
96
-288
-1520
-720
-336
432
-400
-480
1552
-416
-928
-144
1040
240
-1648
-1552
-1840
-944
-48
1056
1408
-512
128
912
672
288
-896
-384
-208
-592
-768
240
-464
-288
-720
560
-160
192
-32
320
1328
1040
-688
-1568
-400
592
1984
448
-544
-320
128
-1184
-528
-448
-144
-464
848
1904
1664
-336
416
-64
192
-48
-1024
-1488
-1728
1120
256
288
352
-608
-1072
-816
-1104
928
-736
-800
976
-112
-512
-48
1152
144
1200
832
912
1104
-304
928
848
-240
1408
912
1216
-432
288
-1184
-752
-240
336
304
1200
240
-368
880
1264
976
1696
528
496
-224
-1168
-592
-976
-832
-464
-448
-256
192
656
336
432
528
-112
-880
-1168
-48
416
-416
-736
-496
-608
528
-640
48
-960
-1296
496
1952
272
816
688
1312
-464
240
48
48
-1088
-992
448
224
288
1376
1696
640
560
320
128
-352
-96
224
-256
-16
288
-496
-256
416
1136
320
432
-96
-64
1232
1936
-576
-1360
848
576
16
688
1008
1232
32
-1136
-448
224
96
512
1568
-1008
592
-1040
-1696
1120
816
-1024
32
-1040
-352
1152
880
576
-256
-480
-352
-592
-1136
-1120
848
1632
976
-1472
-1392
-864
-80
-496
-448
-896
-608
-256
16
-432
912
832
-640
-944
-768
208
1376
1536
208
-592
320
-432
-368
-1104
-96
-224
-432
-928
-880
-688
-512
1952
0
-304
-768
-2000
-1200
1072
240
1408
-32
-176
1680
1600
-496
736
-160
-464
-464
-176
0
-1056
1104
-160
928
48
544
448
-96
416
320
-240
-848
-560
880
640
304
704
-400
256
-112
576
336
1184
688
880
352
-592
-1024
496
128
-368
-1184
-1776
112
1744
1216
816
960
1056
1952
-512
-208
176
-528
-1456
-1760
224
1376
192
1984
528
-336
32
-240
-736
-1760
-1152
-192
464
-256
192
336
1488
1280
128
-432
1264
16
1168
-816
-16
224
-272
1056
416
-176
-480
-400
-224
480
-576
-1488
-384
1168
192
-880
240
-336
160
48
304
480
0
-1344
-1008
-1168
1264
1312
176
-544
624
624
576
672
-736
864
832
864
1728
80
-112
1728
208
-352
368
1008
288
-336
528
480
1296
928
1200
-1072
-176
1072
-192
320
-736
-112
32
-800
736
752
-16
1440
-384
-288
432
176
-608
1360
1232
1152
704
192
304
-1216
-80
576
464
1344
1040
176
880
16
-1584
240
128
-736
-384
480
32
-144
672
1024
1936
1872
1984
368
-1344
32
1600
1440
1104
480
-192
-1648
-1168
-400
-208
-1104
464
624
832
576
800
-336
-1056
-112
1824
96
-320
-1328
-528
400
-1264
-224
1216
-528
-784
-480
-176
-528
-1152
16
-416
-1184
-1744
-1456
176
1088
208
-112
-176
-528
112
160
640
752
-1696
-1536
-80
1104
336
1072
1648
896
304
-1088
-96
-1664
-144
-1808
-272
-128
-656
-144
-432
1488
960
784
640
-192
96
304
-1632
-400
-448
-784
-768
96
-192
592
96
80
-384
288
-752
848
928
592
-1424
-688
128
-1424
-976
-1472
-1392
-1152
-176
-128
448
368
816
-960
864
1792
-720
-480
1616
1232
-352
176
-192
-304
304
1440
-1968
-1728
-576
0
1040
-304
-912
96
-1120
-592
-736
32
1184
720
1584
-1744
-1504
-1088
-1600
-128
704
1392
192
-416
-640
-1424
-1504
272
256
32
496
208
1184
-464
-176
-240
-448
-432
-1024
-288
-1392
-928
128
-448
864
960
0
656
720
304
-544
-1280
-912
288
368
896
-400
-1936
528
-112
-384
1728
688
560
-608
-512
80
-48
176
-912
400
1008
-416
-1200
-688
-240
1152
16
1392
-608
-1584
-960
416
880
-112
-656
96
896
-832
-96
-400
-1984
-368
-992
544
-640
64
-144
128
592
592
448
-224
576
-704
1520
-256
-128
800
656
1456
272
-304
-144
480
-1248
-832
288
112
-464
592
1072
784
-736
-240
-160
128
-320
-96
0
1536
608
80
-1888
-912
-288
336
1664
272
-608
-336
1568
-464
-1072
128
96
208
304
1792
416
-2000
-192
320
320
1344
1040
-48
-1440
-384
-16
1680
1584
-288
-1296
-1872
-1136
736
1856
592
1312
464
-688
-656
-1840
80
1280
-208
-624
-1520
-448
1088
1392
-480
320
-272
-528
-624
256
576
992
1744
496
400
-176
1088
704
-384
848
1040
272
-240
-96
-832
128
720
-1280
336
128
-576
-1072
-1616
976
480
816
720
1440
-96
-128
-352
-496
1568
-128
-1568
-1616
-160
-912
-144
832
1216
16
-192
-416
64
192
-384
-480
-880
768
1168
304
336
-816
-800
464
-944
272
528
464
-224
-1296
320
704
96
-768
-192
976
1392
-48
-368
-128
-704
464
608
-832
96
880
-240
-176
-256
-80
-752
-816
64
112
416
-1088
432
-320
1376
1968
224
480
1680
1280
528
432
-272
1744
1264
336
1472
976
912
320
128
-336
864
512
416
-912
1744
432
1584
512
-80
800
816
288
1376
-672
-512
1472
1360
496
-528
1040
1584
32
1776
1904
848
-112
400
1088
368
1696
16
-512
-1200
-480
-1312
-496
-752
-1824
784
-720
-1744
-960
-976
-560
-112
1120
752
1280
160
-1216
416
608
688
-128
0
704
-240
-160
-1072
496
-1296
-64
1328
-352
-240
-1200
848
1744
688
944
1296
-1024
-656
784
-80
192
-32
-1280
-720
1008
144
-368
-768
-1488
-304
-1472
-1344
1344
1424
-320
1280
224
1168
1232
464
-1552
432
-768
-464
-256
448
736
1776
2032
-1536
-1968
-1600
-560
-1136
-1120
-592
1072
736
-848
-752
-288
816
-736
-1520
656
400
-736
560
928
-400
960
960
-1856
-176
-16
48
128
-928
208
208
576
-1712
-720
1552
144
1152
1152
-544
96
288
-576
448
416
96
672
1744
416
-576
-224
-480
-1472
752
-448
-992
-672
1392
1008
1456
-64
32
-576
-480
112
496
-688
-640
-1392
-496
1648
176
-48
-160
240
784
400
-1536
-1008
-288
208
1824
480
-32
-480
-768
-1328
-1152
-176
-160
-1248
-1024
1296
1616
544
-112
128
-2048
-2048
-272
976
-1088
-576
416
-1056
-1312
-960
-624
80
-224
208
1776
-1088
-912
1152
80
112
544
288
-160
224
-224
608
-336
-192
-160
-928
-48
1472
1552
832
-48
48
-240
-1632
-1136
-544
1296
992
-608
-1520
-1456
-800
48
-1488
-384
1104
-176
-272
848
720
1488
-64
-1136
-480
-464
-656
800
1152
560
-320
1568
880
784
1408
448
-96
1392
304
-1168
-400
1072
576
1296
-240
224
1136
224
-544
736
-1776
-464
304
-288
320
992
32
-160
-880
-64
-1728
-944
-1120
-816
1744
288
-496
-816
-1312
160
-896
224
0
-896
448
736
128
-576
688
688
-1024
-1328
-656
-928
368
1392
176
448
-1520
-1088
1392
-1456
-1040
1040
1104
-752
-1120
-1840
-656
656
-32
240
-208
-448
-112
-912
-880
-1920
-960
752
608
736
1408
-672
-624
-448
848
368
-656
-1232
-640
-768
-512
304
352
-272
-528
336
1072
-1088
-1008
-496
-336
240
-1184
-560
96
-1744
-1184
-176
-96
-592
656
224
-1536
-416
-464
432
-112
-112
-656
-832
-1280
-432
160
336
1280
1840
1808
-1248
-384
880
1392
1376
512
1296
-336
-304
-496
-608
1152
1024
-32
-1120
-1104
-1664
-1232
208
-304
-48
-1504
208
304
464
912
704
144
960
672
112
576
1376
736
-192
-480
-240
896
448
-1088
544
240
-336
-1168
-1584
-640
496
-256
800
-128
1936
800
544
1152
592
752
-1664
-1760
-1504
-800
-1264
-1280
-496
-1648
-1104
-944
48
192
32
464
-96
-208
544
32
880
768
-288
1200
736
1456
-32
32
-176
192
1152
704
-256
544
1344
640
288
80
704
576
-208
-128
272
128
1120
1104
608
464
672
1680
272
-1088
-1936
-720
-720
-448
-208
-240
-816
-640
208
1712
32
304
-1376
-1360
-720
272
144
-16
496
16
1920
272
-336
1504
-192
-1248
-704
2032
912
-848
-304
-768
-176
-720
-112
32
-272
-1840
304
128
-1264
224
240
-112
768
544
608
304
1488
160
-640
-1312
-1648
256
1008
256
-512
-528
1632
544
176
-544
1056
0
272
1056
-48
-368
-720
-608
-352
-1456
-96
144
720
144
-640
528
-48
-464
-992
-368
32
592
1296
-32
-64
-272
-784
-400
288
128
-336
-320
64
-1184
-1136
-880
-1232
176
-112
160
-1152
-176
-944
2032
1248
-592
896
688
-64
320
-160
-64
-1696
-1488
-480
-496
-336
-160
-112
-2000
-592
-1472
-416
-800
688
336
176
-256
256
-224
128
1360
-336
-960
1200
848
1088
1968
720
880
-944
-1968
-336
-1424
-672
-64
-1056
-1424
800
160
-544
-1216
-752
-928
-160
-576
576
560
320
-784
512
1376
1360
1216
32
-480
-1744
-288
672
672
1232
144
192
416
704
704
176
-1568
-1376
-368
128
-1280
-1360
-560
-720
-704
96
-112
-1472
-1360
-496
-384
-16
-544
384
-48
720
-896
-288
704
1248
208
1088
-64
448
-976
1088
960
-736
-912
-128
-480
-256
-1072
128
176
256
1264
528
512
432
496
-1504
-272
304
480
1264
32
1360
96
480
-2000
-400
1056
-544
688
1088
1984
352
256
-256
1008
-608
-1232
384
-144
528
80
1296
304
-1664
-992
1008
1504
-304
-1760
-1120
-800
656
-240
656
-96
688
352
-1584
512
1760
-176
112
-1232
-1920
480
1552
896
1248
256
224
-32
1760
32
1984
976
-128
-1088
-896
-1152
-1376
-704
-192
96
512
624
144
1312
848
-1664
-768
-1360
-784
1040
976
400
-128
208
320
1136
192
-1680
-1968
-608
-96
-240
-1200
-1312
-800
-800
-1120
-176
-96
-1040
-2016
608
368
-1616
-528
-656
1344
992
-592
512
144
416
1696
1952
1296
704
96
-1408
-944
-224
-848
-272
672
384
-64
272
-592
-1072
896
544
-160
784
32
-1600
-192
-848
-48
1024
-784
1136
736
1264
1600
-288
-112
144
1072
112
1600
-848
-384
-848
-352
1376
1360
432
912
400
1056
-816
-816
1120
752
-464
-32
592
-688
272
-240
848
1360
-16
-48
-1952
-1216
-864
-976
-208
624
512
-16
192
-128
80
-864
-912
-272
-1232
784
1408
1120
1008
512
560
112
1984
1088
208
-256
-1248
-784
560
864
672
16
-944
-736
704
656
112
160
-112
0
48
528
1312
1648
624
480
288
-400
-2032
-1120
80
1920
1920
-272
464
-176
-320
-816
-896
-1088
496
816
1008
-288
208
-272
-512
432
-512
-1568
-672
1312
1776
688
688
1040
1552
880
672
128
0
896
1488
-688
-352
288
2032
560
1328
-576
-384
1024
1200
-832
-832
1536
1616
288
1456
608
0
-1664
-576
-1744
-1904
1136
960
-768
-80
-496
-384
-128
-240
1120
896
1216
-624
-1888
-416
-128
912
800
400
1152
-1072
-1904
-448
-80
-560
736
80
-1872
-768
-1728
-1008
-1568
-400
352
1072
32
-1280
-64
464
-208
-288
-48
-1024
-528
112
608
1744
1008
592
368
608
-368
-112
1344
1024
1072
144
560
-560
-560
-640
-576
-560
496
-704
-1424
-336
480
-400
-80
320
-464
416
-1216
1120
816
544
160
-144
32
704
-944
-1104
-80
-1536
176
-16
-688
-1264
-928
-704
-864
1328
528
-1312
-1808
560
1712
-384
-448
-176
-736
512
1984
912
-192
-64
1008
-1120
-576
160
416
656
1616
864
432
-384
-800
-480
-272
-1536
-1328
-880
256
864
1200
-704
-976
-416
-1200
-656
-1728
1344
1248
-352
1216
1168
-304
512
-1280
-112
688
320
1840
464
704
144
112
1312
-672
1216
576
880
-992
-640
-1088
-1568
640
800
-576
-1024
-832
-496
-1840
-1776
-992
480
80
560
432
-1040
-1296
-736
1008
912
640
1776
-432
-528
176
1456
912
-480
-704
-1024
-1920
-400
-544
1312
2032
816
16
1280
-176
576
-1104
-1696
-128
-336
320
1104
832
384
1184
416
-592
-2048
-1424
448
144
-448
-1104
32
-432
1664
1696
1216
1152
832
192
-2048
-48
112
320
240
928
1536
2000
48
896
1728
-912
-1728
-384
-320
-96
-768
-1120
-704
-800
-288
-416
-560
320
1280
544
720
1120
-544
1216
1696
144
-336
-752
-1760
448
144
1072
-416
-1968
-1424
896
768
144
-16
880
128
-448
528
864
128
-32
-736
800
-32
-640
176
1088
-208
-1072
-752
-1168
1264
544
-528
-928
-736
-1888
192
1296
848
960
64
112
1024
-528
-1744
-1872
48
-640
-1232
416
1296
1424
1472
448
-128
-384
-1136
-432
-304
-864
-1856
-48
928
96
304
-912
1136
1760
-672
-48
-1216
-768
320
992
-384
-656
-16
192
48
288
-160
-688
1104
144
-176
1056
352
-464
624
128
80
-1776
-544
-1424
-512
816
1200
-112
544
336
-256
-1104
-1744
-32
736
880
1664
-784
576
976
-672
-1360
768
-752
288
-1600
-880
-128
-672
-32
1136
32
1776
1872
992
-592
-208
-112
896
-368
-720
272
-320
-1424
-768
-544
-1152
256
-1520
-704
352
1312
1344
368
-1248
-272
-512
-1360
-1408
-944
336
-144
-448
576
1632
752
1184
480
-208
304
-1584
112
1984
208
432
2000
480
1040
80
912
464
1872
688
176
-288
-272
-1136
-960
-1168
32
-176
-96
-672
256
1872
416
1232
1520
16
-624
288
-928
-672
944
704
528
-32
-704
1216
1392
1136
608
464
1552
1600
1200
816
192
1552
1008
-448
1504
560
1776
1072
640
-1088
-256
-480
-672
0
208
-960
-400
-1488
-624
-896
-64
1920
944
1024
224
-320
-16
-576
-1168
-656
80
1792
640
1504
-352
-576
704
544
-576
784
-80
-384
560
832
-672
-240
-608
-976
224
448
1920
1056
-176
1136
1408
1904
32
-1728
-1024
-576
704
48
496
192
-96
-1008
-1424
1264
800
-304
-1632
-1696
480
-112
-1440
-1056
-1232
-1056
-80
-1280
-1904
-1712
-1888
80
1984
1616
880
-208
-1056
-1968
-1008
-192
-1504
-96
880
1696
-608
-1648
-864
288
336
1088
240
416
736
-1184
-1056
64
-160
832
-304
112
1216
1776
352
-672
-544
-896
192
32
-432
1296
1264
272
-688
-416
-224
-208
-608
-560
-1040
-48
1136
400
576
-720
-1856
-32
-304
-1504
-32
464
688
-320
48
0
1200
816
384
-512
-2032
-1600
-672
-352
-384
512
96
144
416
-208
1616
608
1888
-768
-1856
32
928
1152
-1264
128
-144
544
1952
448
-32
224
-800
-160
1696
608
-432
-240
1264
224
832
224
1024
336
400
496
64
1024
-256
64
-304
128
640
-16
304
-688
-2000
-1424
-1792
-320
-368
1536
-1584
-1232
-224
-1008
-320
-576
-1056
-1184
320
-816
816
-16
-992
-576
-448
416
848
1488
-912
-2000
-1552
-656
928
1280
880
-656
-1200
-112
-640
640
-496
-752
0
-1584
-240
-752
-1024
-2016
384
1008
704
-1024
-1328
960
-384
-656
1232
-416
-464
512
1360
720
-480
-944
32
1152
112
-720
672
-864
-1680
352
1776
-592
512
-48
640
1536
304
1264
368
-480
144
-688
928
48
48
-1216
320
304
-1248
-1056
544
-176
-960
512
1024
624
-304
448
368
112
720
416
-352
816
704
-1632
-1408
-112
-1104
176
608
256
1072
144
224
528
1232
-272
0
960
192
64
-64
752
-96
-480
-208
-224
-1520
-432
1232
2032
608
-1104
0
1760
1584
528
176
-736
-2032
-32
-1280
304
496
1072
1248
64
1152
768
-1008
-1280
-256
-736
368
-784
-512
1456
-704
-1360
1472
832
-544
-128
-1280
-1696
-848
-624
2032
1216
464
576
-304
832
256
-1248
-2000
-1296
1104
1776
32
-16
672
16
-640
-96
-688
320
688
1312
-256
-624
656
944
192
-656
-1424
176
160
416
-592
-80
-512
800
-144
-240
592
704
304
-1072
-496
-752
304
-768
-560
-688
-1664
-464
-800
-432
432
336
-1184
-1984
-480
784
224
-976
16
1696
896
-256
-1584
-752
-560
-1136
-1488
-1520
-368
1024
-880
-720
192
576
-192
-656
-288
-48
-416
-176
208
-928
-1184
912
-256
320
592
544
16
-256
-48
48
1008
-496
-1472
-656
-784
-400
-1152
-1616
-864
-1776
-288
-1520
384
-176
624
672
1152
512
-1088
960
288
-64
1840
1344
432
896
-304
-176
-1312
-688
-768
-128
-400
816
1472
-304
-1008
-1408
-1264
-224
-864
64
0
-912
-1888
512
1760
160
480
1600
560
656
912
832
656
368
-1120
-176
-528
-64
96
1568
-1040
-880
1344
1072
80
592
-400
-640
-736
-1088
320
-288
768
-160
1888
1616
512
-496
480
-176
1280
1520
768
0
-288
192
784
16
-656
-176
-912
-1920
-976
-688
128
-480
576
1408
-768
-1856
1040
608
864
928
1008
1872
304
896
-480
-1936
-256
-1824
432
720
-896
1168
320
-736
560
-480
-128
480
176
-736
1248
1152
-144
-784
544
-960
-64
64
576
400
-1424
144
224
240
1728
528
-1152
-1440
-400
-448
-496
992
-1744
-1680
-880
-1472
-1888
-656
-16
-1216
-384
704
432
944
112
320
-704
32
480
16
1360
272
752
1328
1632
480
544
288
288
-912
-720
512
256
-832
-1152
-960
400
-1024
-1536
-288
-848
-1264
-1696
-144
32
-720
656
-32
-672
-976
512
1344
1472
1088
448
544
976
1088
656
976
1232
-144
-1536
1456
384
1856
992
-176
192
-480
368
624
1232
96
-400
448
-160
1600
864
-448
1312
1024
480
-464
-1776
-1024
-1568
-1360
-976
-704
-1216
-400
-1504
-1120
-1280
-1200
16
-864
-1152
-304
-1104
-1152
-1584
-1424
-1360
160
832
32
624
1200
112
144
-112
-144
-304
-1248
-1664
-848
208
-96
1136
1232
32
272
720
512
-224
784
-352
-1712
-16
-1008
-1728
928
112
-928
-672
-640
-752
-1392
-192
160
704
-1216
-896
-256
-576
48
432
912
-992
-784
-832
-464
464
432
-1904
-592
368
-304
240
592
1296
-272
-384
-1440
-768
-416
432
800
400
1008
1456
992
-928
1424
1920
272
352
320
1728
-912
864
1232
1248
672
1648
-752
-1440
-1888
-1104
-256
-592
-32
736
560
992
1632
-720
-608
736
800
-624
-592
496
1456
-512
-592
-848
-272
448
928
320
320
144
-1232
144
1488
1584
1408
-800
-96
-160
1728
480
1200
1520
528
-1648
176
1296
448
400
-144
-80
-848
-480
-304
272
320
1856
848
352
-640
240
-416
576
-816
-800
416
-768
-384
-112
1104
1072
128
176
-928
-1824
-1424
-288
640
-144
64
-1008
-704
-1792
-880
-560
-896
-640
-256
288
1520
896
368
272
-1568
-16
1088
-720
432
-1120
-1616
-1216
-912
-1216
48
-192
240
16
608
-16
-368
80
-432
1152
1056
496
-80
-784
-128
144
1376
1104
1232
960
1920
-1152
-1584
-1184
-320
1024
864
-464
1600
192
16
-1088
-32
-1088
240
-576
-272
-16
352
528
560
672
304
1248
-384
-1392
-496
-832
-272
416
416
64
1744
320
576
1120
1312
1648
-192
-1968
-496
-432
-272
816
-608
-464
1312
1376
-528
-1216
-480
672
256
-1520
-736
928
48
-256
272
-1120
1728
1008
-1056
16
48
464
-1248
-1040
272
-816
-320
848
-880
-256
-416
-1456
-1280
-1440
-304
-400
752
480
-432
272
176
240
-272
240
800
1696
944
640
1824
304
-1200
864
-16
992
928
-336
-1104
-480
144
-864
-240
-1264
-128
-272
-2000
-48
160
1136
464
-240
-656
-480
-288
64
832
-256
-1472
-1376
1504
1216
1760
-288
352
-368
-224
-544
-784
-112
-1040
-208
-1472
-912
976
704
1712
960
528
560
-912
-672
-256
-528
112
-48
-464
-1504
528
-608
-144
-1552
272
1904
928
-1712
512
288
-512
80
-1120
-1696
-288
2000
224
608
464
1808
1072
784
-144
-464
-144
-512
-1024
-624
208
176
624
608
-1760
-1168
-192
-688
-208
416
-176
-304
960
-1584
112
-112
-864
816
640
848
48
320
-576
304
-224
-128
-256
432
384
-336
-1216
-880
-208
368
-224
800
720
-192
576
336
880
1376
960
64
752
768
384
432
-1648
448
-752
-864
0
624
768
1040
-80
-752
-592
1232
1008
-656
-112
-912
-528
1008
528
-1280
-336
848
-688
-736
-1616
256
672
1312
-400
-560
0
384
-816
80
1728
1088
1616
1712
592
320
1488
1392
1136
-480
80
384
-1872
880
1904
-1504
-160
-1008
-880
1024
1056
-416
-1040
800
1376
-304
1312
800
1984
960
576
-80
-688
-112
-624
-816
192
432
-80
384
-368
-1712
512
96
-272
-560
144
96
-704
832
-160
-384
-1168
-1696
-1488
-416
-320
320
1280
352
208
1600
-672
176
-32
560
-256
-224
656
1568
352
-1216
-1536
576
720
608
240
-528
-624
176
944
448
736
928
688
-416
352
-240
32
-704
592
1616
1616
-736
208
816
-1344
-352
-176
-576
-592
1248
640
320
160
512
0
288
400
1376
-32
-416
-400
832
976
448
-112
-544
-352
-512
-480
-288
-1984
-224
-80
-1552
-624
-64
-736
-256
-640
1136
704
-368
-1056
448
608
-400
-976
560
48
432
432
928
-208
-1664
-576
-560
448
1232
224
80
496
1696
1760
1312
-192
528
992
192
384
1008
-48
-32
-272
-864
-336
288
-560
-688
0
448
-816
528
-528
-1232
-128
800
448
-512
-1024
-1040
-272
720
-1104
96
976
-592
-1152
-48
128
1520
-176
384
-1280
-1248
112
208
-1440
-576
160
-960
320
-1168
-1968
80
-416
512
-288
208
1424
880
656
464
960
96
-880
-1200
-32
624
240
-352
1600
-1584
-240
128
544
-512
1792
-304
528
-112
-912
336
-2000
416
-576
-912
-960
-976
560
704
-384
864
1664
816
-128
1472
1008
1728
-864
-704
-432
-1360
-912
-592
-368
-656
160
1184
1568
1312
-512
-144
1472
1744
464
-64
320
416
-1008
-304
-32
960
1408
960
400
992
1648
320
464
-1024
-1504
-320
-928
-224
-16
528
1056
992
240
1952
384
272
-832
-320
848
1920
64
1440
-800
16
-32
1216
-96
816
320
96
1408
528
704
400
624
-608
144
384
-176
-1648
-848
-1440
-416
64
-1168
464
-560
-976
-816
-720
528
16
160
-192
-128
-1856
-1376
-816
-240
1808
1216
-400
-288
-1088
-112
-784
-736
1680
1056
64
-720
-368
-2000
-416
-1152
-432
-64
-272
-1216
-576
-1904
-32
848
-608
-896
-272
-656
-1568
-896
-1856
-320
-640
-1664
-720
-1088
-400
560
448
-848
-800
-864
-1536
-1424
1232
640
-1360
-1696
-768
-432
1152
1200
-432
-32
208
848
928
800
-656
-1776
-208
-1424
-384
-1488
-896
1792
1088
592
1360
-288
-1088
256
448
496
416
224
-656
-256
-1856
688
-448
-2000
-1024
-768
736
-784
-192
-784
1664
16
-448
-1696
-880
96
960
352
-368
816
-48
-48
-1248
-320
672
992
384
-1088
-672
-752
1184
672
1232
1904
1392
464
-800
112
800
720
-576
64
-752
368
256
-16
-320
128
-864
-176
-288
-1280
-768
-640
-784
-96
-1504
-1968
-480
224
-560
-624
80
1744
-64
-304
-944
-1008
272
304
-784
-160
960
-272
-1232
-896
1152
384
-704
0
1168
528
-448
-448
960
864
0
-368
-1072
-544
128
368
336
512
48
-1504
-1952
720
-96
1328
1248
384
320
-208
176
-640
-1264
-304
-1712
-912
688
-112
-288
-480
-1248
-496
1120
832
-176
-368
1632
880
720
-592
-1520
224
64
-1872
-1040
-768
-1472
-576
-272
192
80
1440
-48
16
-1584
-448
-80
-928
256
1216
1920
720
-592
1120
1584
-832
240
-96
-608
64
-1248
-1824
-1168
-368
-1072
-496
-368
912
560
-704
-592
-224
64
-576
320
-944
-256
1312
576
608
-800
-624
-560
-544
720
864
688
-1104
-832
-800
144
624
224
-912
-64
1344
944
-1488
-1776
-1296
208
640
112
272
304
1296
992
-720
-1152
-160
912
1632
1264
1760
624
896
144
928
-48
-1856
-112
176
-1232
272
-256
-576
-256
272
-336
1296
-736
320
352
240
320
480
1008
1568
768
-64
-544
256
1152
48
-48
256
656
-1056
176
736
496
688
80
-80
1056
-688
-1008
-160
-1232
288
2032
48
-272
176
-496
-1600
160
-400
-368
656
48
352
912
-896
-1328
928
-336
-1520
-976
-96
-1888
384
816
704
560
1072
368
-464
32
-1568
-1776
-912
-656
928
1568
-32
-48
1856
304
1216
-64
-400
352
736
368
1728
464
1520
208
-352
-976
-1664
-896
1136
-80
-464
-1024
400
272
-1504
-352
64
768
-720
-176
1088
272
-800
-736
-80
-992
-192
-240
192
-560
384
-48
-672
-1952
-464
-912
-1664
-1648
592
1296
592
-288
320
1648
1744
0
160
1152
192
288
-1072
-1744
-960
-704
-592
704
-464
1008
1072
-1328
-320
368
1120
1280
1392
1488
1136
1088
-128
-384
128
160
-64
960
800
1680
544
-576
-928
-224
-1440
-1616
848
0
448
496
1152
-128
-752
592
1536
1584
608
1808
1760
-592
-736
-352
720
832
-1264
80
720
1776
1952
240
-80
-608
-240
-272
-352
-656
-704
-832
-1392
928
336
64
-624
-928
-48
-176
528
32
1616
-560
1744
912
-1904
-368
-368
-768
160
848
1488
384
176
80
16
1200
-544
-48
96
-624
-1344
-528
-176
544
1488
928
704
704
-1408
-256
432
304
-48
1840
1328
464
-272
176
1360
672
-448
-208
1440
1152
-1168
-1680
-832
-640
-1872
-656
-336
-400
-224
32
-1120
-736
1312
608
-1104
-832
-960
464
192
-32
1904
752
-416
-336
1072
-64
-320
1344
-336
-160
384
272
1632
1648
1296
256
-960
464
208
-880
112
-528
-384
96
-96
-1760
-624
-256
-368
672
-688
-1376
-1120
-672
-544
-928
-448
-32
416
-688
-768
-256
240
-1968
784
1216
944
-112
-304
-944
-1152
32
64
384
-176
336
-1280
-48
-1968
1184
880
1424
1536
1280
1104
48
1104
272
-576
864
384
416
-80
-1792
240
864
-992
-832
-1136
-576
240
-752
-64
-544
592
592
-288
-1888
-912
448
-256
-112
-1232
-784
-880
-1968
480
1856
832
-576
-1088
-1360
-1152
208
-144
-1680
608
1152
-1568
-1056
-352
288
-32
-1504
-688
-1232
-80
688
608
1824
1568
1248
1968
784
-560
1440
336
-880
-1328
-288
192
-496
-1408
320
-64
-816
576
960
1168
912
336
864
2032
1200
-1392
-736
-992
-288
1536
-496
-672
-192
1088
-496
-448
400
224
-176
-1600
112
-240
-1024
-1280
-1280
-1888
-656
-256
0
304
-320
-912
-272
336
-368
-736
-928
-528
336
1712
-608
144
-704
-864
-768
-1600
1104
816
1264
64
-1680
-992
1248
96
-960
-368
-128
848
1216
560
1568
320
-48
752
1440
1712
864
-656
864
304
944
80
-224
1440
656
48
1392
768
-1120
-944
32
-432
-464
-208
-352
-32
640
-208
1008
-112
128
-112
1744
752
576
64
160
-112
-16
-1472
-1200
-672
176
1200
736
96
-1856
-736
-448
320
368
544
896
32
880
-256
608
-1312
-480
-736
-912
-656
-1152
-560
-352
928
-128
752
688
-80
-96
192
-1024
-1824
96
-96
1136
528
-48
-1792
-1504
448
448
-240
-192
-1376
-1664
-144
-672
-208
-320
992
448
-608
-464
-1856
-576
-1664
-1888
-1136
992
480
928
-400
304
896
1296
1312
2032
720
1584
1584
16
368
-192
-272
-944
64
-560
-416
-208
656
288
-304
-784
1872
736
1200
1536
-1088
-976
-912
-1264
96
480
1456
-112
-1376
-80
-560
-1552
-1872
208
208
-576
-512
-32
-336
-560
1472
1264
576
-80
144
-320
-1104
-1568
-1440
224
0
-1232
64
1264
1200
-288
-912
-912
-1008
320
1056
1264
-320
-400
1168
48
-704
-368
-912
-176
-1232
-1088
-960
-1136
1216
1040
480
320
256
832
432
64
928
496
784
352
384
0
-304
-272
1824
384
-1296
-1904
-1184
-496
-672
1248
-48
-416
240
496
-736
608
336
688
528
-2000
-1456
-128
672
544
784
240
480
-496
-1552
1232
208
960
592
256
-768
-1216
112
1136
160
-912
-400
-688
-880
-656
736
1504
0
-128
592
240
-320
-80
-1360
1248
1632
448
96
-672
-944
-816
-496
0
112
544
-128
-496
208
368
752
1600
-320
-1584
-1456
160
-240
-416
-304
80
1488
560
1344
1216
-336
288
1104
-576
-96
656
432
1216
80
-464
1088
-176
-720
-1376
-48
1680
1312
336
128
1584
752
-1408
768
208
1184
-432
1088
1856
112
64
1312
-224
544
608
1200
0
-1616
-576
576
240
256
-640
-608
-944
-1216
-1872
-1104
288
352
-720
-1984
-64
-1168
-1216
-384
560
-384
1536
64
-288
-1088
-416
816
928
288
64
1344
-48
-368
-1040
-1056
240
752
832
-320
-576
464
1504
-144
-400
160
224
1360
976
688
-1472
-16
704
-32
-480
304
336
-272
-1392
-1584
-480
-800
1632
1152
560
288
1600
48
1264
-1472
-1728
-528
-768
992
-32
-144
1680
1712
768
800
-16
576
64
1008
-592
-656
192
-1120
-960
928
48
-208
-1376
-1568
-400
992
-400
656
320
1024
1920
96
1088
736
480
-320
272
-592
-592
1056
1216
-1376
-464
384
-608
-1216
-896
304
880
-688
-1184
-1200
-1280
-1744
-128
-976
-496
-1200
-48
-1328
-16
0
1856
736
1184
912
-416
288
576
48
64
784
0
1472
1008
144
-48
-704
-192
-784
-272
1168
560
800
-864
96
-1088
-1312
672
1376
1232
-256
-1488
304
1200
2000
608
-288
-1104
-944
128
64
-1024
-768
-160
-288
-1392
-944
-928
-1072
-1712
192
944
656
880
-368
-1168
960
-64
-512
-32
-576
-1392
-1472
-480
-1360
-320
-1408
-368
-128
-1600
-1264
-1920
-1168
16
800
224
1456
1184
-144
928
1440
-928
-1184
-688
416
-288
-528
-240
-336
80
720
128
928
-1776
-800
1552
560
-288
-1536
-960
1248
-624
-1504
-1120
-1424
768
1264
304
288
-560
176
-1296
-1168
-176
1216
992
1792
1168
-528
-368
1056
1872
512
128
848
1200
32
-1136
-864
-288
160
0
-816
768
624
-112
896
1040
240
-1696
-496
288
-352
-464
928
32
-768
208
-400
-208
1664
-368
528
896
496
1680
-64
-1344
-320
-560
1024
992
896
1632
-64
-800
192
1856
-608
-528
-752
-1136
64
560
-544
-544
-608
-1136
-512
-64
-912
-160
-1792
32
-96
-336
-1408
-800
800
-576
-1488
-1584
-1200
-1488
-80
-608
64
-128
-1728
-608
880
352
640
-432
-1712
-512
1008
992
0
400
592
752
608
-1920
-352
368
416
1664
176
928
576
-1552
-1584
-1280
-1952
-864
-1104
112
608
-672
-704
-560
160
-1104
-960
-336
64
16
992
432
176
48
608
1168
176
32
160
-1200
-608
-960
128
-944
-1600
-352
-192
-624
-640
-656
-1104
1024
-256
-832
-1168
-272
736
-1152
-640
-128
-864
48
-1296
-1312
-1328
-1088
-1008
-464
912
640
592
720
448
368
-208
-640
-880
-912
-80
-848
-192
-512
-928
64
-720
-1536
32
-224
-688
144
1680
528
1520
-576
-1120
-1568
-416
-1968
-80
1600
-448
-464
-96
-960
-880
976
-1664
-576
240
96
-480
400
96
-880
-912
144
944
-96
-464
128
-16
32
336
752
1296
992
144
-1680
-768
-400
1600
1072
144
-400
0
400
-976
-400
-240
80
896
-528
-368
-1392
-1520
-1440
304
-448
-1552
-1632
112
1392
-912
624
1408
-736
128
864
400
-1136
656
272
352
1664
96
688
1296
672
-112
368
-1104
-1184
-1280
432
-448
-224
-704
1136
704
32
288
1408
640
32
1376
0
-1168
-480
-304
368
224
-160
-1408
-1920
-1536
-528
1616
1024
-32
-608
1376
864
272
1840
-128
-128
-1216
-544
-304
0
464
-1040
800
688
0
16
704
1760
1072
288
-64
752
816
960
1712
144
528
-16
816
1008
1104
496
-416
-16
496
-64
-80
1120
1824
-368
-592
464
-384
-160
-32
1472
736
-32
-560
-656
-416
720
-784
144
704
608
1280
-928
16
912
224
-448
-144
-2032
-272
-128
64
512
-416
-160
1376
32
-480
176
-608
-496
-1280
-1232
320
1408
-336
-528
736
800
-48
-1424
-1840
-208
400
-272
-416
-704
-240
992
176
144
1232
432
752
560
-1792
-1792
-1568
-112
-960
-1216
-656
-368
-1376
-48
160
-240
-224
944
1872
848
1680
1584
-1888
-1360
-176
1056
-544
-1632
-912
720
2000
592
704
-1104
-1408
-1248
-976
0
528
784
-1248
992
-368
400
896
64
336
352
-1664
-464
0
1696
-464
1408
1568
0
560
-384
-1424
464
784
192
-1152
-80
-1888
-32
592
-96
1744
1104
640
384
272
-928
-496
224
-1696
-1456
-464
288
-912
32
1152
400
1504
1040
1328
400
992
112
64
-1232
-1280
-640
-496
-1008
752
-208
-1024
-256
-240
-1968
-944
-1024
-272
448
256
80
1968
608
-240
-240
-416
-240
-944
-1424
-1152
368
560
-384
-688
-1952
368
-1968
-1040
1328
-256
-1104
-272
224
176
-1216
-464
640
-768
-528
1776
336
-736
-1696
368
-352
272
-112
-1264
-1792
-112
1424
208
-944
-1168
-672
768
64
-464
-848
448
800
160
352
-96
464
304
-48
256
544
-64
528
1584
-48
-1008
-320
-672
656
-128
1408
1088
-96
-1376
-1200
256
0
288
-288
-1264
-912
-352
720
-320
-576
-1120
464
-640
672
832
1296
768
-272
192
-272
1632
1088
-272
592
-128
16
560
-1488
256
-64
-256
864
-160
-320
-496
-912
688
-624
-1392
944
496
656
-288
-624
960
848
-560
192
512
1488
784
1648
1552
-272
-64
1840
960
240
208
560
800
256
928
-448
208
-944
192
464
-464
-256
-272
-848
-1296
-240
64
832
304
-1280
-1040
-64
1088
-160
-1424
976
64
-80
-176
-496
-528
1472
1744
-112
112
1984
-496
32
-16
-288
160
352
-496
-608
-64
1200
96
-1232
32
848
-608
-816
256
416
-128
-1232
-192
32
1472
992
128
-816
368
-192
496
288
192
48
-1024
-320
-400
336
672
1008
304
-1216
-128
-1152
-832
-32
1632
1296
1648
704
1120
-384
-528
-240
-400
112
848
80
-1184
-80
-816
-352
32
-416
224
496
-1456
0
336
-1552
-640
-1616
224
192
-144
752
816
-608
-960
-368
928
-336
672
800
-1312
-1680
-112
-448
-640
-1872
-1952
80
816
32
928
-80
1040
-704
-1840
-1712
-1136
-1008
896
1120
32
592
-576
592
368
-752
-192
-16
608
304
304
1200
-464
-16
16
592
-1056
-544
-160
-240
-528
208
-656
-1120
-912
-1360
-752
1248
192
-16
128
-784
-272
48
208
160
-448
-608
-240
-304
-128
-64
560
448
-1424
-1040
752
784
144
-1072
-352
-544
1040
1456
176
-304
240
-96
320
288
672
-976
-1264
-96
-32
240
720
-544
176
1664
1216
-96
-1408
-1072
976
816
-464
-32
-576
-368
-1024
208
-896
48
912
1296
1200
240
-1024
-368
1040
-176
1648
1136
528
-256
448
-128
-112
1520
592
960
880
928
1120
640
1344
1632
368
400
288
352
928
176
144
288
-1440
560
-288
-704
144
-832
1264
-48
-1568
-1824
-1312
-1728
464
-416
-512
-32
-1152
560
848
944
624
1216
752
-416
-448
384
-384
960
-672
-1568
-688
-816
528
1040
-272
-960
304
-896
-1088
-1200
192
1440
