64
-16
-112
-224
-288
-368
-432
-528
-624
-288
-16
0
-16
-16
-16
80
768
880
592
160
96
0
-96
-208
-272
-352
-416
-496
-608
-288
-16
0
0
0
0
64
736
912
640
192
112
16
-80
-192
-256
-336
-400
-480
-608
-320
-16
-16
-16
0
-16
48
672
896
640
224
128
48
-64
-176
-240
-320
-384
-464
-592
-336
-32
0
0
0
0
32
656
928
672
256
128
48
-64
-160
-240
-320
-400
-480
-608
-368
-32
-16
0
0
0
32
608
912
656
256
112
64
-48
-144
-240
-304
-368
-448
-608
-400
-48
-16
-16
-16
-16
16
560
928
688
272
112
48
-64
-160
-256
-320
-384
-496
-624
-448
-48
-16
-16
0
0
16
512
928
704
304
112
64
-48
-160
-256
-320
-384
-480
-624
-480
-64
-16
-16
-16
0
0
480
944
720
304
96
48
-48
-160
-256
-320
-368
-448
-592
-480
-64
0
0
-16
-16
0
432
944
720
336
96
64
-32
-144
-240
-320
-368
-448
-576
-480
-80
0
0
-16
0
0
400
960
752
368
96
64
-32
-144
-240
-304
-352
-432
-560
-512
-96
-16
-16
-16
-16
0
336
928
736
384
96
64
-32
-128
-224
-304
-368
-448
-560
-528
-112
0
-16
0
-16
0
304
912
752
416
96
64
-32
-128
-240
-304
-368
-448
-576
-560
-128
-16
0
-16
0
0
272
928
784
432
80
48
-32
-128
-240
-304
-384
-448
-592
-592
-160
-16
0
0
-16
0
240
912
800
464
80
48
-48
-144
-240
-320
-384
-464
-592
-608
-176
-16
0
0
-16
0
208
896
816
496
80
48
-48
-144
-240
-320
-384
-448
-576
-624
-192
-16
0
0
-16
0
176
864
832
512
80
48
-48
-144
-240
-304
-384
-448
-560
-624
-224
-16
-16
-16
-16
0
144
848
832
528
96
32
-48
-144
-240
-304
-368
-432
-528
-608
-240
-16
-16
-16
0
0
112
816
832
544
96
32
-48
-144
-224
-288
-352
-400
-496
-592
-256
-16
-16
-16
-16
-16
96
768
848
560
112
48
-32
-128
-208
-272
-336
-400
-512
-640
-304
-16
0
-16
0
0
80
768
912
624
144
48
-32
-128
-224
-304
-368
-416
-528
-672
-352
-16
-16
0
0
0
64
736
928
640
160
48
-32
-128
-240
-304
-368
-432
-544
-672
-368
-32
0
0
0
0
48
688
944
656
176
32
-32
-144
-256
-320
-416
-464
-560
-704
-416
-32
0
-16
0
0
32
640
944
656
192
16
-64
-144
-256
-320
-400
-448
-544
-688
-448
-48
0
0
0
-16
16
576
928
672
224
16
-48
-144
-256
-336
-416
-464
-560
-720
-496
-48
-16
-16
0
0
16
544
944
688
240
0
-48
-160
-256
-352
-416
-464
-544
-704
-528
-64
-16
0
-16
-16
0
496
944
704
272
-16
-48
-128
-256
-336
-416
-464
-544
-688
-528
-80
-16
0
0
-16
0
448
960
720
304
0
-32
-128
-240
-320
-384
-432
-512
-656
-560
-80
-16
-16
-16
-16
0
384
928
736
352
32
0
-96
-192
-304
-352
-416
-496
-640
-560
-96
0
-16
-16
0
0
368
960
784
416
64
32
-64
-160
-272
-336
-384
-464
-608
-576
-112
0
-16
-16
-16
0
320
944
784
464
96
64
-48
-128
-240
-304
-368
-432
-560
-560
-128
-16
-16
-16
-16
0
288
976
816
496
128
80
-16
-112
-224
-288
-352
-400
-512
-544
-144
-16
-16
0
0
0
256
944
800
528
144
112
-16
-96
-192
-256
-336
-384
-480
-544
-160
-16
0
0
0
0
208
912
816
544
176
128
16
-80
-192
-256
-352
-400
-480
-560
-192
-16
0
-16
0
0
176
864
816
560
208
144
32
-64
-160
-240
-336
-400
-496
-576
-208
-16
0
0
-16
-16
144
848
848
576
208
128
32
-48
-160
-240
-336
-400
-512
-592
-240
-16
-16
-16
-16
-16
112
800
848
592
208
144
48
-48
-160
-224
-304
-384
-512
-608
-272
-16
-16
-16
-16
-16
96
800
880
624
208
144
48
-64
-160
-240
-320
-400
-512
-640
-304
-16
0
0
0
-16
80
752
896
640
224
128
32
-64
-176
-256
-336
-400
-528
-640
-336
-16
0
-16
0
0
64
720
912
656
224
112
32
-80
-192
-256
-336
-400
-528
-656
-352
-32
-16
-16
0
0
48
688
928
656
224
96
16
-80
-192
-272
-352
-416
-512
-640
-400
-32
-16
-16
-16
-16
32
640
912
656
240
80
16
-96
-208
-272
-352
-384
-496
-624
-416
-32
0
0
-16
-16
32
608
928
672
256
64
0
-96
-192
-288
-352
-400
-496
-640
-464
-48
0
0
0
0
16
560
928
688
272
32
0
-96
-208
-288
-352
-416
-496
-640
-480
-64
0
0
0
-16
16
528
944
704
288
32
0
-96
-192
-288
-368
-416
-512
-656
-512
-64
-16
-16
0
-16
0
480
944
704
320
32
0
-96
-176
-272
-336
-416
-496
-656
-544
-80
-16
-16
0
0
0
432
960
736
352
48
16
-80
-160
-272
-336
-400
-496
-640
-560
-96
-16
-16
-16
-16
0
384
960
752
400
64
32
-64
-160
-256
-320
-400
-480
-640
-608
-112
0
0
0
-16
0
336
960
768
416
64
32
-64
-160
-256
-320
-400
-464
-608
-592
-128
-16
-16
0
0
0
304
944
768
448
64
32
-64
-144
-240
-304
-384
-432
-592
-592
-144
-16
0
0
-16
0
256
912
768
464
80
32
-64
-144
-224
-288
-352
-416
-544
-608
-176
-16
0
-16
-16
0
224
896
784
496
112
64
-32
-128
-224
-272
-336
-400
-528
-608
-192
-16
-16
-16
0
0
192
912
832
544
128
64
-16
-112
-208
-272
-352
-384
-528
-640
-224
-16
0
-16
0
-16
176
912
880
592
160
96
-16
-96
-224
-272
-352
-416
-528
-640
-256
-16
-16
-16
0
-16
144
880
896
608
176
96
0
-96
-208
-288
-352
-400
-528
-640
-272
-16
-16
-16
0
-16
112
848
912
624
176
80
-16
-96
-208
-272
-352
-416
-512
-640
-304
-16
0
0
0
0
80
784
896
624
208
96
0
-96
-208
-272
-352
-400
-496
-624
-336
-16
-16
0
0
0
64
736
896
640
224
96
16
-96
-192
-272
-336
-400
-480
-624
-352
-32
0
0
0
0
48
704
928
656
240
96
16
-80
-192
-272
-336
-384
-480
-608
-384
-32
0
-16
-16
-16
32
656
944
688
288
112
32
-80
-192
-272
-336
-384
-480
-624
-416
-32
0
-16
0
0
32
608
944
688
288
96
32
-48
-176
-256
-336
-384
-480
-624
-448
-48
-16
-16
-16
-16
16
576
960
720
320
112
32
-64
-176
-256
-336
-416
-496
-624
-464
-48
-16
-16
-16
-16
16
512
944
704
336
96
48
-48
-144
-240
-320
-384
-464
-608
-496
-64
-16
0
0
-16
0
464
944
720
352
96
48
-48
-144
-256
-320
-368
-448
-592
-496
-80
-16
0
-16
-16
0
432
928
720
384
96
64
-48
-144
-240
-304
-352
-416
-560
-512
-80
0
0
0
-16
0
384
912
720
400
96
64
-32
-128
-224
-288
-336
-400
-544
-544
-112
-16
0
0
0
0
352
928
752
432
96
64
-32
-128
-224
-288
-352
-416
-560
-560
-128
0
0
0
-16
0
304
928
784
480
128
112
0
-80
-192
-272
-368
-448
-592
-640
-160
-16
-16
-16
-16
0
272
960
800
512
144
112
0
-96
-208
-288
-384
-464
-592
-624
-176
-16
0
0
0
0
256
976
864
544
144
96
0
-96
-208
-288
-368
-432
-576
-640
-208
-16
-16
-16
-16
0
224
976
880
560
128
80
-16
-112
-224
-288
-352
-416
-528
-624
-224
-16
-16
-16
0
0
176
912
864
560
128
64
-16
-112
-208
-272
-352
-400
-528
-608
-240
-16
-16
0
0
-16
144
864
880
592
160
80
-16
-112
-208
-272
-352
-416
-528
-624
-272
-16
-16
-16
0
0
112
800
864
592
176
80
0
-112
-208
-272
-352
-416
-512
-624
-288
-16
0
0
0
0
96
784
896
624
176
80
-16
-96
-208
-272
-352
-400
-496
-608
-304
-16
0
-16
-16
-16
80
752
896
624
192
80
0
-96
-208
-288
-352
-400
-496
-624
-352
-16
-16
-16
0
-16
64
704
896
640
224
80
0
-80
-192
-272
-352
-400
-496
-640
-384
-32
-16
0
-16
-16
48
672
944
688
256
80
16
-96
-192
-272
-352
-400
-496
-656
-416
-32
-16
-16
-16
-16
32
624
944
704
288
96
16
-80
-176
-272
-336
-384
-480
-624
-432
-48
0
0
0
0
16
592
960
688
288
64
16
-80
-176
-256
-320
-384
-464
-592
-432
-48
0
-16
0
-16
16
544
960
720
320
80
16
-80
-160
-256
-320
-368
-464
-608
-480
-64
-16
-16
-16
-16
0
480
944
720
352
96
48
-64
-160
-256
-304
-368
-448
-608
-512
-80
-16
-16
0
0
0
448
976
752
384
96
48
-64
-160
-240
-320
-384
-480
-640
-560
-96
0
0
0
-16
0
400
976
784
432
112
64
-48
-160
-256
-320
-384
-464
-624
-576
-112
0
0
0
0
0
368
960
784
448
112
64
-48
-144
-240
-320
-400
-464
-608
-576
-128
-16
0
-16
-16
0
320
960
800
464
112
64
-32
-128
-240
-304
-384
-448
-592
-608
-144
-16
-16
-16
-16
0
272
960
816
496
112
80
-32
-128
-240
-304
-384
-448
-576
-608
-160
-16
-16
-16
-16
0
240
928
800
512
128
80
-16
-112
-224
-288
-368
-416
-544
-608
-192
-16
-16
-16
-16
0
208
912
816
528
128
80
-16
-112
-224
-288
-368
-448
-544
-624
-208
-16
-16
-16
-16
-16
176
880
832
560
144
96
-16
-112
-224
-288
-352
-416
-528
-640
-240
-16
0
0
0
0
144
848
848
576
160
96
0
-96
-208
-288
-352
-400
-528
-640
-272
-16
0
0
0
0
112
832
880
592
160
80
-16
-96
-208
-272
-352
-416
-544
-656
-304
-16
0
0
0
-16
96
768
864
608
192
96
16
-80
-192
-272
-352
-416
-528
-672
-336
-16
0
0
-16
-16
80
736
880
608
208
96
0
-80
-192
-272
-368
-432
-528
-656
-352
-16
0
0
0
-16
64
704
896
640
224
96
16
-80
-176
-272
-352
-416
-512
-656
-384
-32
-16
0
0
0
48
688
912
656
240
96
16
-80
-176
-272
-336
-400
-496
-656
-432
-32
-16
-16
0
0
32
656
960
672
256
80
16
-64
-176
-256
-336
-400
-496
-640
-448
-48
-16
-16
0
0
32
608
944
688
288
80
16
-80
-176
-256
-336
-400
-480
-640
-480
-48
-16
-16
0
0
16
576
976
704
304
64
16
-80
-176
-256
-320
-384
-448
-592
-464
-64
-16
-16
0
-16
16
496
960
704
336
80
32
-64
-160
-256
-304
-352
-432
-576
-496
-80
-16
-16
-16
-16
0
464
976
736
368
80
32
-64
-144
-240
-288
-336
-400
-560
-528
-96
0
-16
-16
-16
0
416
976
768
400
80
48
-64
-144
-256
-304
-336
-416
-560
-528
-96
0
0
-16
0
0
352
944
768
448
112
80
-32
-128
-224
-304
-368
-432
-576
-592
-128
-16
0
0
0
0
320
976
800
464
96
64
-32
-128
-224
-304
-368
-448
-592
-608
-144
-16
0
0
0
0
288
960
816
496
112
64
-48
-144
-240
-304
-384
-432
-560
-592
-160
-16
-16
-16
-16
0
240
928
800
496
96
48
-48
-128
-224
-288
-368
-416
-560
-624
-192
-16
-16
-16
-16
0
208
928
848
544
128
64
-32
-128
-240
-304
-384
-432
-544
-608
-208
-16
-16
-16
-16
-16
176
880
848
560
144
80
-32
-128
-224
-288
-368
-432
-528
-640
-240
-16
-16
0
0
0
160
880
880
592
160
80
-16
-112
-224
-288
-368
-432
-544
-640
-272
-16
-16
0
-16
0
128
816
864
592
176
96
0
-112
-224
-288
-368
-432
-528
-624
-288
-16
0
-16
0
0
96
784
880
608
192
96
0
-96
-208
-272
-352
-400
-496
-624
-320
-16
0
0
-16
0
80
768
896
624
208
80
0
-96
-208
-272
-352
-384
-480
-592
-320
-16
0
-16
-16
-16
64
688
880
640
224
96
16
-80
-176
-256
-336
-400
-512
-656
-384
-32
-16
0
-16
-16
48
688
944
688
256
96
16
-80
-192
-272
-320
-384
-496
-656
-416
-32
-16
0
-16
-16
32
624
928
688
288
112
48
-64
-176
-272
-352
-432
-528
-656
-432
-48
0
0
0
-16
32
608
976
720
288
96
32
-64
-160
-256
-352
-416
-512
-672
-480
-48
-16
0
0
0
16
576
976
720
320
80
16
-80
-192
-272
-352
-400
-480
-624
-496
-64
-16
0
0
-16
16
528
960
704
336
80
32
-80
-176
-272
-352
-400
-464
-624
-512
-80
-16
-16
0
0
0
464
928
720
368
80
32
-80
-160
-256
-320
-384
-464
-592
-528
-80
-16
-16
0
0
0
416
944
720
384
80
48
-48
-144
-240
-304
-368
-416
-560
-528
-96
0
-16
-16
0
0
368
912
720
400
96
64
-48
-128
-224
-304
-368
-432
-560
-528
-112
-16
-16
-16
0
0
336
928
720
416
80
48
-48
-128
-224
-288
-352
-432
-560
-560
-128
-16
0
-16
0
0
288
896
736
448
96
64
-32
-128
-224
-272
-352
-416
-560
-592
-160
-16
-16
-16
-16
0
256
896
768
480
112
64
-32
-128
-224
-272
-352
-432
-560
-608
-176
-16
0
-16
0
0
224
912
832
544
144
96
0
-112
-208
-272
-368
-448
-608
-688
-240
-16
-16
0
-16
-16
208
960
880
576
144
96
-16
-128
-224
-288
-368
-432
-560
-672
-256
-16
0
0
-16
0
176
912
880
592
160
96
16
-96
-208
-288
-384
-448
-560
-672
-272
-16
-16
0
-16
-16
144
896
896
608
176
96
0
-96
-208
-272
-352
-416
-528
-656
-304
-16
-16
-16
0
0
112
816
880
608
192
96
16
-80
-208
-272
-352
-416
-512
-640
-320
-16
-16
0
-16
-16
80
784
896
624
208
96
0
-96
-208
-272
-352
-400
-512
-624
-336
-16
0
-16
-16
-16
64
752
912
640
208
80
16
-80
-192
-272
-352
-400
-480
-624
-384
-32
0
0
0
-16
48
720
928
656
224
80
0
-80
-192
-272
-352
-384
-464
-608
-384
-32
0
0
0
-16
32
672
928
656
256
80
16
-80
-176
-256
-320
-368
-464
-608
-432
-48
0
0
0
0
32
624
960
704
288
96
32
-64
-176
-256
-336
-384
-480
-624
-464
-48
-16
-16
0
0
16
576
976
720
320
96
48
-64
-176
-256
-336
-400
-496
-624
-480
-64
-16
-16
-16
-16
16
528
992
736
336
96
48
-64
-160
-256
-336
-384
-464
-608
-496
-64
-16
-16
-16
0
0
480
976
736
352
80
32
-64
-160
-256
-320
-384
-448
-576
-496
-80
-16
0
-16
-16
0
416
928
720
368
80
32
-64
-144
-240
-304
-368
-448
-576
-544
-96
0
0
0
0
0
368
928
736
416
96
48
-48
-144
-240
-320
-384
-448
-592
-560
-112
0
-16
-16
-16
0
336
944
768
448
96
64
-48
-128
-240
-320
-384
-464
-592
-592
-144
-16
-16
0
0
0
304
976
816
480
112
64
-48
-144
-256
-320
-384
-432
-576
-608
-160
-16
-16
0
0
0
256
928
800
496
112
64
-32
-128
-224
-288
-368
-432
-544
-592
-176
-16
-16
-16
0
0
224
912
816
528
128
80
-32
-112
-224
-288
-352
-416
-544
-624
-208
-16
0
0
0
0
192
896
816
528
128
80
-16
-112
-208
-272
-352
-416
-528
-608
-224
-16
0
-16
-16
0
160
864
832
560
160
96
0
-80
-192
-272
-352
-400
-512
-608
-240
-16
0
0
0
-16
144
848
864
576
160
80
0
-96
-192
-256
-352
-400
-512
-608
-272
-16
0
0
-16
-16
112
816
880
608
176
96
0
-96
-192
-256
-336
-400
-496
-624
-304
-16
-16
-16
0
-16
96
768
880
624
192
96
16
-80
-176
-256
-336
-400
-496
-624
-320
-16
-16
-16
-16
0
80
752
912
624
208
80
16
-96
-176
-240
-336
-384
-480
-624
-352
-32
-16
0
0
0
48
688
896
656
256
112
32
-64
-176
-240
-336
-400
-496
-624
-384
-32
-16
-16
0
0
48
640
896
656
256
112
32
-64
-160
-240
-320
-400
-480
-640
-432
-32
0
0
0
0
32
608
928
672
288
96
32
-64
-176
-240
-320
-384
-480
-624
-432
-48
0
-16
-16
-16
16
560
928
688
304
96
32
-64
-176
-256
-304
-368
-464
-608
-448
-48
-16
-16
-16
0
16
528
928
688
320
96
32
-80
-176
-256
-320
-368
-464
-592
-480
-64
0
0
-16
-16
0
480
944
720
352
96
48
-64
-176
-256
-320
-384
-448
-576
-496
-80
-16
0
0
0
0
448
944
736
384
96
48
-64
-160
-256
-320
-384
-464
-592
-544
-96
0
0
0
-16
0
400
944
736
400
96
64
-48
-144
-240
-320
-384
-464
-592
-576
-112
0
0
0
-16
0
352
944
768
432
112
80
-32
-144
-240
-304
-368
-448
-576
-592
-128
-16
-16
-16
-16
0
320
944
768
464
112
80
-32
-128
-240
-288
-336
-416
-560
-576
-144
-16
-16
-16
-16
0
288
944
800
496
112
80
-32
-128
-240
-304
-368
-432
-544
-560
-160
-16
-16
-16
-16
0
240
928
784
496
112
80
-16
-128
-224
-288
-336
-400
-528
-592
-192
-16
0
0
0
0
208
912
800
512
128
80
-16
-112
-224
-288
-352
-416
-512
-576
-192
-16
0
0
0
-16
176
848
784
528
128
80
-16
-96
-208
-288
-368
-416
-512
-592
-224
-16
-16
-16
-16
-16
144
864
816
528
128
64
-16
-96
-192
-272
-336
-384
-512
-608
-256
-16
0
0
0
0
128
800
816
560
160
80
0
-80
-192
-256
-320
-400
-528
-640
-304
-16
0
-16
-16
-16
96
800
880
608
192
112
16
-64
-176
-256
-336
-416
-544
-688
-352
-16
0
0
0
0
80
784
912
640
208
96
16
-80
-192
-256
-352
-416
-544
-672
-368
-32
0
0
0
-16
64
752
944
656
224
96
16
-64
-176
-256
-352
-416
-528
-672
-384
-32
-16
-16
-16
0
48
720
944
640
224
80
16
-80
-160
-240
-336
-400
-496
-624
-384
-32
-16
-16
-16
0
32
640
944
672
256
96
32
-64
-160
-240
-320
-368
-464
-624
-432
-48
-16
-16
-16
-16
32
608
960
704
288
96
16
-80
-160
-240
-320
-384
-480
-624
-464
-48
-16
-16
-16
-16
16
544
944
672
304
96
32
-64
-160
-240
-320
-384
-464
-608
-480
-64
0
0
0
0
16
512
976
720
336
80
32
-64
-144
-224
-304
-384
-464
-608
-512
-80
0
0
0
0
0
464
960
720
352
96
48
-64
-160
-240
-304
-368
-432
-576
-512
-80
0
0
0
0
0
416
960
752
400
96
64
-48
-144
-240
-288
-352
-432
-576
-544
-112
-16
-16
-16
-16
0
384
992
800
432
96
64
-48
-160
-256
-304
-352
-432
-576
-576
-128
-16
0
-16
0
0
336
976
800
464
112
64
-48
-144
-240
-304
-368
-432
-576
-592
-144
-16
-16
0
-16
0
304
976
832
496
112
64
-32
-144
-240
-304
-368
-432
-560
-608
-160
-16
-16
0
0
0
256
944
832
512
112
64
-32
-144
-256
-304
-368
-432
-544
-592
-176
-16
0
0
0
0
224
912
816
528
112
64
-32
-128
-240
-304
-368
-416
-512
-560
-192
-16
-16
-16
-16
-16
192
864
800
528
128
64
-32
-112
-224
-288
-352
-416
-512
-608
-224
-16
-16
0
0
-16
160
848
832
560
160
80
0
-96
-224
-288
-368
-416
-528
-624
-256
-16
-16
-16
-16
-16
128
832
864
576
160
80
0
-96
-208
-288
-352
-416
-528
-640
-288
-16
-16
0
-16
0
112
816
896
624
192
96
16
-80
-208
-288
-384
-432
-544
-656
-320
-16
0
-16
0
0
96
800
928
656
208
96
16
-96
-208
-288
-368
-432
-544
-656
-352
-16
-16
-16
-16
0
64
752
928
672
240
96
16
-80
-192
-288
-352
-416
-528
-656
-384
-32
0
-16
0
-16
48
704
944
672
240
96
16
-80
-192
-272
-336
-400
-496
-640
-400
-32
0
-16
-16
0
32
624
896
656
256
96
32
-64
-160
-256
-336
-384
-480
-624
-416
-32
0
0
0
0
32
592
912
672
272
80
32
-64
-160
-256
-336
-400
-480
-624
-448
-48
0
0
0
-16
16
528
896
656
304
96
32
-64
-160
-240
-336
-400
-480
-608
-448
-48
0
0
0
0
16
512
928
688
304
80
32
-64
-144
-240
-304
-368
-448
-592
-480
-64
-16
0
0
0
0
480
928
688
352
80
32
-64
-144
-240
-288
-352
-432
-576
-496
-80
-16
-16
-16
0
0
432
944
720
384
96
64
-32
-128
-240
-304
-368
-432
-592
-544
-96
-16
-16
-16
-16
0
400
960
752
400
96
48
-48
-144
-240
-304
-368
-448
-608
-576
-112
-16
-16
-16
-16
0
352
960
752
432
80
48
-48
-128
-240
-304
-368
-448
-576
-576
-128
-16
0
0
-16
0
320
944
768
448
80
48
-48
-128
-224
-288
-352
-432
-576
-608
-160
-16
0
0
0
0
272
928
784
480
96
64
-48
-128
-224
-288
-368
-448
-576
-608
-176
-16
0
0
0
0
224
896
784
512
112
64
-32
-112
-208
-288
-368
-432
-560
-640
-208
-16
0
0
0
0
192
896
800
512
128
80
-16
-112
-208
-288
-384
-448
-560
-640
-224
-16
-16
-16
0
0
176
880
832
544
144
80
-16
-96
-208
-272
-352
-416
-528
-624
-256
-16
-16
-16
-16
-16
144
864
848
576
144
80
-16
-112
-208
-272
-320
-384
-512
-640
-288
-16
-16
-16
-16
-16
128
848
896
608
176
80
-16
-96
-208
-272
-336
-384
-496
-624
-304
-16
0
-16
-16
-16
96
800
896
624
192
80
0
-112
-208
-272
-336
-384
-496
-640
-336
-16
0
-16
-16
-16
80
768
912
640
208
80
0
-96
-208
-272
-352
-416
-512
-640
-368
-32
-16
0
0
0
64
736
944
672
224
80
0
-96
-208
-272
-352
-400
-496
-624
-384
-32
-16
0
0
0
48
688
960
688
256
80
16
-80
-192
-272
-352
-384
-480
-624
-416
-32
-16
0
-16
0
32
640
960
688
272
80
16
-80
-192
-272
-336
-384
-464
-592
-416
-48
0
0
-16
-16
16
576
944
704
304
96
32
-80
-176
-256
-336
-400
-480
-624
-480
-48
0
-16
-16
-16
16
528
928
688
320
96
32
-80
-176
-272
-352
-432
-480
-608
-496
-64
-16
-16
0
-16
0
480
944
720
352
96
48
-64
-176
-256
-352
-432
-512
-640
-528
-80
0
0
-16
-16
0
448
960
736
384
80
48
-64
-160
-272
-336
-416
-480
-624
-560
-96
0
-16
0
0
0
400
944
736
384
80
48
-64
-160
-256
-320
-400
-464
-592
-560
-112
-16
-16
0
0
0
352
928
736
416
80
48
-64
-144
-256
-320
-400
-464
-592
-592
-128
-16
-16
-16
-16
0
320
928
752
432
80
48
-48
-144
-256
-320
-400
-464
-592
-624
-160
-16
-16
0
0
0
272
928
768
480
96
64
-32
-128
-256
-320
-400
-480
-608
-624
-176
-16
0
0
0
0
240
928
784
496
96
64
-32
-128
-240
-304
-368
-448
-576
-640
-208
-16
0
0
0
0
208
912
816
528
128
64
-32
-112
-224
-288
-368
-432
-560
-640
-224
-16
0
-16
0
0
176
912
848
560
128
64
-32
-112
-224
-304
-368
-416
-544
-640
-256
-16
-16
-16
-16
-16
160
864
848
560
128
48
-32
-112
-224
-288
-368
-432
-544
-656
-272
-16
0
-16
-16
0
128
832
864
592
160
64
-16
-96
-208
-272
-336
-400
-528
-656
-304
-16
-16
-16
-16
-16
96
800
880
608
176
64
0
-96
-192
-272
-336
-400
-512
-656
-336
-16
0
0
-16
-16
80
784
896
624
208
80
0
-80
-176
-256
-336
-384
-512
-656
-368
-16
-16
0
-16
-16
64
752
928
656
240
96
16
-80
-176
-256
-336
-400
-512
-672
-400
-32
0
-16
0
0
48
720
960
672
256
80
16
-80
-176
-256
-336
-400
-496
-656
-432
-32
-16
-16
0
0
32
656
960
688
272
80
16
-80
-176
-240
-320
-368
-480
-640
-448
-48
-16
-16
0
-16
32
608
944
704
304
80
32
-64
-160
-240
-320
-384
-464
-640
-480
-48
-16
0
0
0
16
560
960
704
320
80
16
-80
-176
-240
-320
-368
-464
-608
-480
-64
0
0
-16
-16
16
496
960
720
352
80
32
-80
-176
-256
-336
-384
-464
-624
-544
-80
-16
0
0
0
0
464
976
736
368
64
16
-80
-176
-272
-336
-400
-464
-608
-560
-96
0
0
0
0
0
416
976
752
400
64
16
-80
-176
-272
-320
-384
-448
-592
-576
-112
-16
-16
0
-16
0
384
976
768
432
80
48
-64
-160
-272
-320
-384
-432
-560
-576
-128
-16
-16
0
0
0
336
944
768
464
96
48
-48
-144
-256
-304
-368
-432
-560
-576
-144
-16
-16
-16
-16
0
288
944
800
496
112
64
-48
-144
-240
-304
-368
-416
-544
-592
-160
-16
-16
-16
-16
0
256
928
800
528
128
64
-32
-128
-240
-304
-368
-416
-528
-592
-192
-16
-16
-16
-16
0
224
896
800
528
128
64
-32
-112
-224
-288
-368
-432
-544
-624
-224
-16
0
0
0
-16
192
912
832
560
144
80
-16
-112
-224
-304
-368
-432
-544
-624
-240
-16
0
-16
0
0
160
880
864
576
176
80
-16
-112
-224
-288
-384
-432
-528
-608
-256
-16
-16
0
-16
-16
128
816
848
592
192
112
16
-96
-192
-272
-352
-400
-528
-640
-288
-16
-16
-16
-16
0
112
816
896
624
208
96
0
-96
-192
-272
-352
-400
-512
-624
-320
-16
-16
-16
-16
0
80
736
848
608
224
112
32
-64
-176
-256
-352
-400
-512
-640
-352
-16
0
0
0
0
64
736
880
640
224
96
16
-80
-176
-256
-336
-384
-496
-640
-384
-32
0
-16
0
0
48
688
896
656
256
112
48
-48
-160
-256
-336
-400
-496
-640
-400
-32
0
-16
-16
-16
32
656
928
656
272
96
32
-64
-160
-256
-336
-384
-480
-640
-432
-48
-16
0
-16
-16
32
608
912
656
288
96
48
-48
-144
-240
-320
-384
-480
-640
-480
-48
0
-16
-16
0
16
560
912
672
320
96
48
-48
-144
-240
-320
-384
-480
-624
-480
-64
0
0
0
-16
16
528
944
688
320
80
48
-48
-144
-240
-304
-368
-464
-624
-512
-80
-16
-16
0
0
0
464
928
688
352
80
48
-48
-128
-224
-304
-352
-432
-576
-512
-80
0
0
0
-16
0
432
912
688
368
80
64
-32
-128
-208
-288
-352
-432
-576
-528
-96
-16
-16
0
-16
0
400
944
720
400
80
32
-48
-128
-224
-288
-352
-416
-560
-560
-112
-16
-16
0
0
0
352
928
704
416
80
48
-32
-128
-208
-272
-352
-416
-544
-544
-128
-16
-16
0
0
0
304
912
736
432
96
64
-48
-128
-208
-272
-352
-416
-544
-592
-160
-16
0
-16
0
0
272
928
768
464
96
48
-48
-128
-224
-272
-336
-384
-512
-544
-160
-16
0
0
0
0
224
864
752
480
112
64
-32
-112
-208
-256
-336
-400
-528
-608
-192
-16
0
-16
-16
0
208
912
816
512
112
48
-48
-112
-208
-256
-336
-384
-512
-608
-224
-16
0
0
0
-16
176
848
800
544
144
64
-32
-112
-208
-256
-336
-384
-512
-624
-256
-16
-16
-16
-16
-16
144
880
848
560
144
64
-32
-112
-208
-272
-352
-400
-496
-608
-256
-16
-16
-16
-16
0
128
816
832
576
160
48
-32
-112
-208
-256
-336
-368
-480
-592
-272
-16
0
0
-16
-16
96
736
816
576
176
80
-16
-96
-192
-256
-336
-368
-480
-608
-304
-16
-16
-16
-16
0
80
736
864
608
208
80
0
-80
-192
-272
-336
-384
-480
-608
-352
-16
0
0
0
-16
64
688
880
640
240
96
16
-80
-192
-256
-320
-368
-480
-624
-368
-32
-16
0
0
0
48
672
896
656
256
112
32
-64
-176
-256
-336
-400
-480
-624
-416
-32
0
-16
-16
-16
32
640
928
672
288
96
32
-80
-176
-256
-320
-368
-448
-592
-400
-32
-16
0
0
0
32
576
912
672
304
96
32
-64
-176
-256
-320
-384
-448
-576
-416
-48
0
0
-16
-16
16
560
928
688
320
96
32
-64
-160
-256
-320
-368
-432
-560
-448
-64
-16
-16
-16
0
16
512
912
672
320
80
32
-64
-160
-240
-304
-368
-432
-544
-448
-64
0
0
0
-16
0
448
880
672
352
96
48
-48
-128
-240
-288
-352
-432
-560
-496
-80
-16
0
0
-16
0
400
848
656
368
96
64
-32
-128
-224
-288
-368
-448
-576
-528
-96
0
0
-16
-16
0
368
848
688
400
128
96
-16
-128
-224
-304
-384
-464
-592
-560
-112
-16
0
-16
-16
0
336
880
704
432
112
80
-16
-112
-224
-304
-368
-464
-592
-592
-128
-16
-16
-16
0
0
304
896
720
448
128
80
-16
-112
-224
-288
-384
-448
-576
-608
-160
-16
0
0
0
0
288
912
752
464
112
64
-32
-112
-224
-288
-368
-432
-560
-592
-176
-16
-16
0
0
0
240
896
736
464
112
64
-32
-112
-224
-272
-352
-416
-528
-576
-192
-16
-16
-16
-16
0
208
864
736
480
112
80
-16
-96
-192
-256
-336
-384
-512
-576
-208
-16
0
0
-16
-16
176
848
768
512
128
80
0
-80
-192
-256
-304
-368
-496
-608
-256
-16
-16
-16
-16
0
160
848
816
544
144
80
0
-80
-176
-256
-304
-368
-496
-592
-256
-16
-16
0
0
-16
128
816
832
560
160
80
0
-80
-176
-240
-320
-368
-496
-640
-288
-16
0
0
-16
-16
112
816
864
576
160
64
-16
-80
-192
-256
-336
-384
-480
-592
-304
-16
0
0
0
-16
80
752
848
592
176
64
0
-80
-176
-240
-320
-352
-448
-592
-336
-16
0
-16
-16
0
64
736
880
592
192
64
0
-80
-176
-240
-320
-384
-464
-608
-368
-32
0
-16
0
0
48
688
880
624
224
64
0
-80
-176
-224
-304
-352
-448
-592
-384
-32
-16
-16
0
-16
48
640
880
608
240
80
16
-80
-160
-240
-320
-352
-432
-576
-400
-32
0
0
0
-16
32
576
864
608
256
80
16
-64
-160
-224
-304
-368
-432
-560
-400
-48
0
0
-16
-16
16
544
912
656
288
80
16
-80
-160
-224
-288
-336
-400
-544
-416
-48
-16
0
-16
-16
16
496
896
672
304
80
32
-64
-144
-224
-272
-320
-416
-544
-464
-64
-16
-16
-16
0
0
480
928
720
352
80
32
-64
-144
-224
-288
-352
-432
-576
-480
-80
-16
-16
-16
0
0
448
944
720
368
80
32
-64
-144
-224
-288
-352
-416
-576
-512
-80
-16
0
0
0
0
400
912
720
384
96
48
-48
-144
-224
-288
-368
-432
-560
-512
-96
0
0
0
0
0
352
912
736
416
96
64
-48
-144
-224
-288
-368
-432
-560
-544
-128
-16
-16
-16
-16
0
320
912
768
464
112
64
-48
-128
-224
-288
-336
-400
-544
-576
-144
0
0
0
-16
0
288
912
768
480
112
64
-48
-144
-240
-288
-352
-400
-512
-544
-144
-16
0
0
0
0
240
848
736
464
112
64
-32
-112
-224
-272
-336
-384
-480
-560
-160
-16
0
-16
-16
0
208
848
752
496
128
80
-16
-112
-224
-272
-368
-416
-512
-560
-192
-16
0
0
-16
-16
192
832
768
512
128
64
-16
-96
-208
-272
-336
-384
-496
-576
-224
-16
0
0
-16
-16
160
816
784
544
144
80
-16
-96
-208
-272
-352
-416
-528
-624
-256
-16
0
0
-16
0
144
816
816
576
160
80
0
-96
-208
-272
-336
-400
-512
-608
-272
-16
-16
-16
-16
0
112
784
816
560
160
80
-16
-96
-192
-256
-320
-384
-496
-624
-304
-16
-16
-16
0
0
96
736
816
592
208
96
16
-80
-192
-272
-336
-400
-512
-624
-320
-16
-16
-16
-16
-16
80
720
832
576
192
80
0
-64
-176
-256
-320
-368
-480
-608
-352
-16
0
-16
0
-16
64
672
832
608
224
96
32
-64
-160
-256
-336
-384
-480
-624
-368
-32
0
0
0
0
48
656
864
608
224
80
16
-48
-160
-240
-320
-368
-480
-608
-400
-32
-16
-16
0
0
32
608
864
624
256
80
32
-64
-160
-240
-320
-368
-464
-608
-416
-48
0
-16
0
0
32
592
912
640
272
64
16
-64
-160
-240
-304
-368
-464
-592
-448
-48
0
-16
-16
-16
16
544
896
656
304
80
32
-64
-144
-224
-304
-368
-448
-592
-464
-64
-16
-16
-16
-16
16
512
912
672
320
64
32
-64
-144
-224
-304
-352
-432
-576
-496
-64
0
-16
0
-16
0
464
928
688
336
64
32
-48
-128
-208
-288
-352
-416
-560
-496
-80
-16
-16
0
0
0
416
928
704
368
80
48
-48
-144
-224
-288
-352
-416
-560
-512
-96
-16
0
0
0
0
384
912
704
384
80
48
-48
-128
-208
-272
-336
-416
-544
-528
-112
-16
0
0
0
0
336
896
720
432
112
80
-32
-128
-208
-272
-352
-416
-544
-576
-128
-16
0
0
0
0
304
896
736
448
112
64
-48
-128
-208
-272
-352
-416
-544
-576
-144
-16
0
-16
0
0
256
912
768
480
112
64
-32
-112
-208
-272
-336
-384
-528
-576
-160
-16
0
-16
-16
0
224
880
784
480
112
64
-32
-128
-224
-272
-336
-384
-512
-576
-192
-16
0
-16
-16
0
192
848
784
512
128
64
-32
-112
-208
-272
-336
-400
-496
-560
-208
-16
0
0
-16
-16
160
816
768
528
128
80
-16
-112
-208
-256
-336
-384
-496
-592
-240
-16
0
0
0
-16
144
816
800
544
160
80
-16
-96
-208
-272
-352
-400
-480
-592
-256
-16
0
-16
0
0
128
800
832
576
160
80
0
-80
-192
-272
-336
-384
-480
-576
-272
-16
0
-16
0
0
96
752
816
576
176
80
0
-96
-192
-256
-336
-384
-464
-592
-304
-16
-16
-16
-16
-16
80
752
864
608
192
80
0
-80
-176
-256
-320
-368
-464
-592
-320
-16
-16
0
0
-16
64
688
848
624
224
80
16
-80
-176
-256
-336
-368
-480
-592
-352
-32
-16
0
0
-16
48
656
864
624
240
80
16
-80
-176
-256
-320
-384
-480
-624
-400
-32
-16
0
0
0
32
624
864
640
256
80
32
-64
-176
-256
-320
-368
-464
-608
-400
-32
0
-16
-16
0
32
592
880
640
272
80
16
-80
-176
-256
-320
-384
-448
-592
-432
-48
0
-16
-16
0
16
544
864
640
288
64
16
-64
-144
-240
-304
-352
-432
-560
-432
-48
-16
-16
-16
0
16
496
880
656
304
80
32
-64
-160
-240
-304
-336
-416
-544
-448
-64
-16
0
-16
-16
0
448
864
640
336
80
32
-64
-144
-240
-304
-352
-416
-544
-464
-80
-16
-16
0
-16
0
400
848
656
352
96
64
-32
-128
-208
-288
-352
-448
-592
-512
-96
-16
0
-16
-16
0
384
896
688
384
96
64
-48
-128
-224
-288
-368
-464
-608
-576
-112
-16
-16
-16
-16
0
352
912
720
400
80
48
-48
-128
-224
-288
-368
-432
-592
-576
-128
-16
-16
-16
-16
0
320
912
736
432
96
64
-48
-128
-224
-288
-352
-416
-560
-576
-144
-16
-16
-16
0
0
288
896
736
448
96
48
-32
-128
-224
-288
-352
-400
-544
-592
-160
-16
0
0
0
0
240
864
736
464
112
64
-32
-112
-208
-272
-336
-400
-528
-576
-176
-16
0
0
0
0
208
832
720
464
128
80
-16
-112
-192
-256
-336
-400
-512
-608
-208
-16
0
0
0
0
192
832
752
496
144
80
0
-80
-192
-256
-336
-416
-528
-608
-224
-16
-16
-16
-16
0
160
848
816
544
144
80
-16
-96
-208
-256
-320
-384
-496
-608
-256
-16
-16
-16
-16
-16
144
816
800
544
144
64
-16
-112
-208
-272
-336
-368
-464
-576
-272
-16
-16
-16
0
0
112
800
832
560
144
64
0
-80
-192
-256
-320
-368
-480
-576
-288
-16
0
-16
-16
0
96
768
832
560
160
48
-16
-96
-192
-256
-304
-352
-448
-592
-320
-16
-16
-16
-16
0
64
688
816
576
208
96
16
-64
-176
-240
-304
-368
-464
-592
-336
-16
0
-16
0
0
64
688
880
624
224
80
16
-80
-176
-256
-320
-384
-480
-608
-368
-32
-16
0
-16
-16
48
640
880
640
240
80
0
-96
-192
-256
-320
-368
-464
-608
-400
-32
-16
0
0
-16
32
624
896
640
256
64
0
-80
-176
-256
-320
-368
-448
-560
-400
-48
0
-16
-16
-16
32
560
864
608
256
64
16
-80
-160
-240
-320
-368
-448
-576
-432
-48
-16
-16
0
-16
16
512
864
640
288
80
16
-64
-160
-240
-304
-352
-432
-544
-432
-48
0
0
0
-16
16
464
832
640
304
96
48
-48
-144
-224
-304
-368
-448
-576
-464
-64
0
0
0
0
0
448
880
656
320
64
32
-64
-144
-224
-288
-352
-416
-560
-496
-80
-16
0
0
0
0
400
880
688
368
80
48
-48
-128
-224
-272
-336
-416
-544
-512
-96
-16
-16
0
0
0
384
912
704
400
96
48
-48
-144
-224
-288
-336
-400
-528
-528
-112
-16
-16
-16
0
0
352
896
720
416
96
64
-32
-112
-208
-272
-336
-400
-512
-512
-112
-16
0
0
0
0
304
896
736
432
96
64
-32
-112
-208
-272
-336
-400
-512
-528
-128
0
0
0
-16
0
256
864
736
464
112
80
-16
-112
-208
-256
-336
-400
-528
-576
-176
-16
0
0
-16
0
224
848
752
480
112
80
-16
-96
-192
-256
-320
-384
-512
-576
-192
-16
-16
-16
-16
0
208
864
784
512
128
80
-16
-112
-208
-256
-352
-400
-528
-592
-208
-16
-16
-16
0
0
176
832
784
528
144
96
0
-80
-192
-256
-336
-400
-512
-608
-224
-16
-16
0
0
0
160
832
784
528
144
96
0
-80
-192
-272
-352
-416
-512
-592
-256
-16
-16
0
0
0
128
800
816
560
160
80
-16
-96
-192
-256
-320
-368
-480
-624
-288
-16
0
0
0
0
112
768
832
592
192
96
0
-80
-176
-240
-304
-368
-464
-592
-304
-16
0
-16
-16
0
96
752
848
592
192
80
0
-80
-176
-240
-288
-336
-432
-576
-320
-16
0
-16
-16
-16
64
720
864
608
224
96
16
-80
-176
-240
-304
-368
-464
-576
-352
-32
-16
-16
-16
-16
48
672
848
608
240
96
32
-64
-160
-224
-304
-352
-432
-560
-368
-32
0
-16
-16
-16
48
640
864
608
240
96
32
-64
-160
-224
-304
-352
-432
-576
-384
-32
-16
-16
0
0
32
592
880
624
272
96
32
-48
-144
-224
-288
-336
-432
-560
-400
-48
0
-16
-16
-16
16
544
864
624
288
96
48
-48
-144
-224
-288
-336
-416
-560
-432
-48
0
-16
0
0
16
512
880
640
304
96
32
-48
-144
-224
-288
-336
-416
-544
-432
-64
-16
0
-16
-16
0
464
864
640
304
80
48
-48
-144
-240
-304
-352
-432
-544
-432
-64
-16
0
0
0
0
416
832
624
320
96
48
-48
-128
-224
-288
-352
-416
-544
-496
-80
0
-16
-16
0
0
400
896
688
352
80
48
-48
-128
-224
-288
-352
-432
-560
-512
-96
0
0
0
0
0
352
864
688
384
96
64
-32
-128
-224
-288
-336
-400
-544
-544
-112
0
-16
-16
-16
0
336
928
736
416
80
48
-32
-128
-224
-288
-352
-416
-560
-560
-128
-16
0
0
0
0
304
896
736
432
80
48
-48
-144
-240
-304
-352
-400
-528
-560
-144
-16
0
0
-16
0
256
880
736
432
64
32
-48
-128
-224
-288
-352
-400
-512
-560
-160
-16
-16
-16
-16
0
224
848
736
448
80
32
-48
-128
-208
-272
-352
-400
-512
-576
-192
-16
-16
-16
-16
-16
192
848
768
496
96
48
-48
-128
-224
-272
-352
-400
-512
-576
-208
-16
-16
-16
-16
-16
160
800
752
512
112
64
-32
-96
-192
-256
-336
-400
-512
-592
-240
-16
0
0
0
0
144
816
800
528
144
64
-16
-112
-208
-256
-336
-384
-496
-592
-256
-16
0
0
0
0
128
784
800
544
144
64
-16
-80
-192
-256
-336
-400
-496
-608
-272
-16
0
0
0
0
96
736
800
544
160
80
0
-80
-176
-256
-336
-400
-496
-592
-304
-16
0
0
-16
0
80
720
816
576
192
80
0
-80
-176
-240
-320
-384
-480
-624
-336
-16
-16
0
-16
-16
64
688
848
608
208
80
16
-80
-176
-240
-304
-352
-464
-608
-352
-32
-16
-16
-16
-16
48
672
864
624
224
80
16
-80
-160
-240
-288
-336
-432
-560
-368
-32
-16
-16
-16
-16
48
624
864
640
256
96
32
-64
-160
-224
-304
-352
-448
-592
-400
-32
-16
-16
-16
-16
32
608
896
656
256
80
32
-64
-144
-224
-288
-352
-432
-576
-416
-48
-16
-16
0
0
16
528
864
640
288
96
48
-48
-144
-224
-288
-336
-416
-592
-448
-48
0
0
-16
-16
16
528
912
672
320
96
48
-48
-144
-224
-304
-368
-448
-576
-464
-64
0
0
0
0
0
464
880
672
336
96
64
-48
-144
-224
-288
-368
-448
-576
-496
-80
0
0
0
-16
0
432
896
688
352
96
48
-48
-144
-240
-304
-368
-432
-576
-528
-96
0
0
0
-16
0
400
896
672
368
80
32
-64
-144
-224
-288
-368
-432
-544
-512
-96
-16
-16
0
0
0
352
864
672
384
80
48
-48
-144
-240
-288
-336
-400
-512
-528
-112
-16
0
-16
0
0
304
848
672
400
80
48
-48
-128
-240
-288
-352
-416
-512
-512
-128
-16
0
-16
0
0
272
848
672
400
80
32
-48
-128
-224
-288
-352
-416
-512
-544
-144
-16
-16
-16
-16
0
240
832
704
432
96
48
-48
-128
-224
-288
-352
-432
-528
-576
-176
-16
0
0
-16
0
208
816
720
448
96
64
-32
-112
-224
-272
-336
-400
-496
-560
-192
-16
-16
0
0
0
176
800
752
496
128
80
-32
-112
-208
-272
-320
-384
-496
-592
-224
-16
0
0
0
0
160
832
800
544
144
80
-16
-96
-192
-256
-288
-336
-448
-560
-240
-16
-16
0
0
0
144
816
800
560
176
112
16
-80
-176
-240
-288
-336
-432
-544
-240
-16
-16
-16
0
-16
128
816
832
560
208
144
48
-32
-112
-192
-240
-304
-384
-512
-256
-16
-16
-16
0
-16
96
768
832
576
240
160
80
-16
-96
-160
-224
-288
-368
-464
-256
-16
0
-16
-16
-16
80
736
848
592
320
240
160
80
0
-64
-128
-192
-240
-352
-224
-16
-16
-16
-16
0
64
720
880
640
464
416
336
240
176
112
64
0
-64
-160
-144
-16
0
0
-16
-16
48
688
912
720
768
768
656
576
560
528
480
432
384
320
128
0
0
-16
0
-16
48
672
960
928
1616
1616
1488
1456
1472
1456
1440
1392
1296
1248
656
32
-16
0
0
0
32
672
1088
1696
880
768
640
672
704
704
704
688
560
432
1328
64
0
0
0
-16
16
688
1504
1152
208
2016
1936
1952
1952
1936
1920
1904
1760
1520
1760
80
0
0
0
0
16
688
192
112
672
400
320
256
160
64
2032
1968
1824
1488
1680
80
0
-16
-16
0
0
752
816
304
240
48
0
1920
1808
1696
1600
1536
1440
1104
1408
80
-16
-16
-16
-16
0
816
1104
1824
1472
1392
1312
1152
1008
880
768
688
592
288
1008
64
-16
-16
0
0
0
752
832
864
576
544
464
320
208
96
0
1968
1872
1648
784
64
-16
-16
-16
-16
0
576
192
96
1952
1888
1776
1632
1520
1408
1312
1248
1136
976
608
80
0
0
0
-16
0
304
1392
1344
1136
1040
928
768
656
544
464
384
288
208
464
112
0
0
0
0
-16
96
704
656
448
336
224
64
-80
-176
-256
-320
-384
-400
304
144
0
0
-16
-16
-16
-16
160
48
-144
-272
-384
-528
-672
-784
-864
-944
-1008
-1008
80
160
0
-16
-16
0
0
-80
-320
-496
-656
-800
-880
-1024
-1136
-1248
-1328
-1392
-1456
-1472
-208
160
0
-16
-16
0
-16
-112
-640
-960
-1072
-1216
-1296
-1424
-1536
-1648
-1712
-1808
-1872
-1904
-544
160
0
-16
0
0
0
-80
-736
-1152
-1200
-1328
-1392
-1488
-1568
-1664
-1712
-1744
-1776
-1824
-608
176
0
0
0
0
0
-32
-464
-912
-960
-1056
-1136
-1232
-1328
-1392
-1440
-1472
-1472
-1504
-560
176
0
-16
-16
0
0
16
-80
-496
-576
-672
-768
-864
-944
-1008
-1056
-1088
-1088
-1120
-432
208
0
-16
-16
-16
0
32
256
0
-160
-256
-368
-480
-576
-656
-688
-720
-720
-784
-288
240
0
0
-16
0
-16
32
400
208
0
-112
-224
-352
-464
-560
-624
-672
-672
-752
-336
256
0
0
-16
-16
-16
32
416
192
-48
-160
-288
-416
-544
-640
-704
-768
-784
-864
-496
224
0
-16
0
0
-16
16
352
-80
-288
-384
-512
-640
-784
-880
-960
-1024
-1040
-1104
-752
176
16
0
0
0
0
16
320
-256
-576
-640
-768
-912
-1024
-1120
-1200
-1248
-1264
-1312
-992
112
16
-16
0
-16
-16
0
320
-240
-656
-672
-784
-928
-1040
-1120
-1184
-1216
-1216
-1264
-1008
64
32
0
-16
-16
0
0
352
64
-448
-480
-560
-704
-800
-880
-928
-960
-960
-1008
-848
80
32
0
-16
-16
0
0
400
464
-48
-128
-192
-320
-416
-480
-528
-560
-544
-592
-512
144
48
0
-16
-16
0
0
400
768
384
288
224
112
-16
-80
-144
-176
-176
-224
-224
208
48
-16
0
0
-16
0
384
960
688
560
496
416
304
240
176
128
96
32
-32
256
64
-16
0
0
0
0
336
1056
896
768
720
672
576
496
432
384
336
256
144
304
64
-16
-16
0
-16
0
304
1200
1168
992
960
928
832
768
688
624
560
464
320
368
80
0
-16
-16
-16
0
256
1328
1376
1184
1168
1152
1072
1008
928
880
816
720
560
464
80
0
-16
-16
-16
-16
240
1536
1712
1504
1488
1472
1376
1296
1216
1152
1072
976
800
576
112
-16
-16
-16
-16
-16
224
1616
1856
1664
1648
1632
1536
1456
1376
1296
1216
1104
928
672
128
0
0
0
0
-16
192
1616
1952
1760
1728
1696
1584
1504
1408
1328
1248
1168
992
720
144
0
0
0
0
0
160
1504
1920
1712
1664
1600
1488
1376
1264
1184
1088
1008
880
688
160
0
0
0
-16
0
96
1120
1520
1328
1264
1200
1072
960
832
736
624
512
368
480
176
0
0
-16
0
0
32
624
912
736
656
592
464
336
208
96
-48
-176
-352
144
192
0
-16
-16
0
0
-16
16
0
-112
-224
-288
-432
-576
-720
-880
-1056
-1232
-1440
-448
208
0
-16
-16
-16
-16
-32
-608
-1232
-1296
-1392
-1504
-1632
-1792
-1952
-64
-240
-416
-640
-1392
112
0
-16
0
0
0
-32
-688
-224
-416
-368
-496
-656
-816
-960
-1104
-1248
-1360
-1520
-208
-64
0
-16
0
-16
-16
-16
-416
-80
-736
-528
-576
-656
-720
-768
-816
-848
-864
-928
-1984
-64
0
0
0
0
-16
0
64
-928
-1216
-1008
-976
-944
-928
-896
-848
-800
-720
-704
-320
192
0
-16
0
0
0
0
592
1648
1696
1696
1824
1888
1920
1952
1984
2016
0
1984
1648
544
0
0
0
0
0
0
896
1136
1424
1184
1264
1248
1184
1136
1072
1024
976
864
304
672
16
0
-16
-16
0
0
784
1104
1424
1120
1104
1008
848
704
560
416
272
48
1648
592
16
-16
-16
-16
0
0
496
1920
1952
1760
1744
1648
1520
1376
1232
1088
944
736
576
416
16
-16
-16
-16
-16
0
256
1008
1040
992
1024
992
896
800
704
608
496
368
368
448
32
-16
-16
-16
0
-16
176
1200
1360
1344
1392
1392
1328
1280
1216
1168
1120
1056
960
608
48
0
0
-16
-16
-16
240
1920
160
64
80
32
2016
1968
1904
1872
1872
1840
1616
768
64
0
-16
0
0
0
224
192
720
544
464
352
208
96
0
1968
1920
1872
1648
864
80
-16
-16
0
-16
-16
96
1728
304
64
2000
1872
1712
1600
1504
1424
1376
1312
1200
816
96
-16
0
0
0
-16
-16
1024
1792
1568
1456
1360
1200
1088
976
896
832
784
784
768
112
-16
-16
0
0
-16
-80
464
1280
1056
960
848
704
608
512
432
384
336
432
704
128
0
0
0
0
0
-80
160
944
752
640
560
432
336
256
208
176
144
256
656
144
0
0
0
0
-16
-80
0
736
544
448
352
224
112
0
-64
-128
-176
-48
592
176
0
0
-16
-16
-16
-64
-192
320
144
32
-64
-176
-304
-400
-464
-512
-560
-384
512
192
0
0
-16
-16
0
-48
-288
16
-176
-320
-416
-544
-672
-752
-816
-848
-864
-656
464
224
0
0
-16
-16
-16
-48
-320
-128
-368
-544
-672
-832
-960
-1040
-1072
-1088
-1056
-816
400
256
0
-16
-16
-16
0
-32
-320
-240
-528
-736
-880
-1040
-1152
-1232
-1248
-1232
-1168
-960
304
288
0
-16
0
0
0
-32
-288
-144
-368
-560
-672
-800
-912
-976
-992
-992
-960
-832
288
320
0
-16
0
0
-16
-16
-272
-48
-192
-336
-416
-528
-624
-688
-720
-768
-768
-736
208
320
0
0
0
0
-16
-16
-240
32
-32
-144
-176
-256
-352
-432
-496
-560
-608
-640
176
336
0
0
-16
0
0
-16
-240
80
64
-32
-64
-128
-208
-272
-352
-416
-480
-544
144
352
0
-16
-16
-16
-16
-16
-208
144
192
80
48
-48
-144
-240
-304
-384
-432
-496
112
352
0
-16
-16
-16
0
-16
-192
192
288
128
80
0
-128
-224
-304
-384
-432
-496
96
400
16
-16
0
0
0
-16
-160
224
352
192
128
32
-96
-192
-256
-320
-368
-416
96
416
16
-16
-16
0
0
-16
-128
240
432
272
208
112
-16
-112
-192
-240
-288
-352
96
448
32
0
0
-16
-16
0
-128
192
464
304
256
176
64
-16
-96
-144
-192
-304
96
512
32
0
0
0
0
0
-112
160
496
384
352
304
208
128
48
-32
-96
-224
80
512
48
0
-16
-16
-16
0
-96
160
560
480
464
448
352
256
160
80
-16
-160
112
592
64
0
0
0
0
-16
-96
160
624
544
544
528
448
352
256
144
48
-96
112
640
96
0
-16
-16
-16
-16
-80
144
656
560
528
480
352
240
96
-16
-128
-256
-48
640
112
0
0
-16
-16
-16
-80
-96
176
16
-64
-160
-304
-464
-640
-768
-912
-1088
-832
464
128
0
0
-16
-16
0
-80
-784
-1088
-1248
-1376
-1488
-1664
-1824
-1984
-64
-208
-352
-48
0
144
0
0
0
-16
-16
-80
-1280
-2048
-96
-240
-320
-448
-576
-688
-784
-880
-960
-688
-320
144
0
-16
0
0
0
-80
-1312
-144
-176
-288
-320
-400
-464
-544
-608
-672
-720
-544
-432
160
0
-16
-16
-16
-16
-48
-912
-1584
-1616
-1696
-1728
-1776
-1840
-1888
-1936
-2000
-2016
-1984
-368
224
0
-16
-16
0
0
-32
-368
-672
-720
-752
-752
-800
-864
-928
-976
-1040
-1104
-1168
-128
272
0
0
0
0
0
-16
32
0
-96
-144
-160
-224
-304
-368
-448
-544
-608
-720
0
320
0
0
0
0
0
0
144
208
96
32
16
-64
-160
-256
-336
-416
-480
-608
-16
352
0
-16
0
0
0
0
192
336
208
144
112
16
-80
-176
-240
-320
-368
-480
-16
400
0
-16
-16
0
0
0
224
384
208
96
32
-80
-192
-288
-384
-464
-496
-592
-144
416
16
-16
-16
-16
-16
0
224
432
208
64
-16
-128
-240
-336
-416
-464
-496
-560
-144
464
32
-16
-16
0
-16
0
208
464
224
64
-16
-144
-256
-352
-432
-480
-496
-544
-208
448
32
0
0
-16
-16
0
192
448
224
64
-32
-144
-272
-352
-432
-496
-528
-576
-304
448
48
0
-16
-16
-16
0
112
304
112
-48
-144
-256
-368
-464
-528
-592
-624
-688
-496
368
64
0
-16
-16
0
-16
48
176
16
-112
-176
-272
-384
-464
-544
-608
-656
-736
-608
320
80
0
0
-16
-16
-16
48
176
32
-80
-160
-224
-336
-416
-496
-560
-608
-672
-592
240
80
-16
-16
0
0
-16
48
256
128
16
-48
-112
-208
-288
-352
-416
-464
-528
-512
208
80
0
0
0
0
0
64
320
224
96
16
-48
-160
-256
-336
-400
-464
-528
-528
160
96
0
0
0
0
-16
64
320
208
80
-16
-96
-208
-304
-384
-432
-480
-528
-544
112
96
0
-16
0
0
0
64
320
208
80
-32
-112
-224
-304
-384
-416
-464
-496
-528
80
112
0
0
0
-16
-16
48
336
240
112
16
-48
-160
-256
-320
-368
-400
-432
-480
64
112
0
-16
-16
-16
0
48
384
336
208
128
48
-48
-128
-192
-240
-288
-336
-416
48
128
0
-16
0
0
-16
48
416
400
288
192
144
16
-80
-160
-208
-288
-352
-448
32
144
0
0
-16
-16
-16
32
368
320
192
112
48
-80
-176
-272
-336
-416
-480
-592
-80
160
0
-16
-16
-16
0
32
272
160
48
-48
-112
-224
-336
-432
-512
-592
-640
-752
-208
160
0
0
-16
-16
0
16
208
0
-96
-160
-224
-336
-432
-528
-608
-672
-720
-832
-320
160
0
-16
0
-16
-16
16
224
-48
-128
-176
-240
-336
-432
-512
-592
-672
-720
-864
-416
144
0
-16
0
0
-16
16
272
-80
-192
-224
-304
-416
-528
-624
-720
-800
-864
-992
-592
144
0
0
0
0
0
0
320
-96
-272
-272
-336
-432
-544
-624
-704
-800
-848
-976
-624
128
0
-16
-16
0
-16
0
336
0
-272
-240
-320
-416
-528
-624
-704
-784
-832
-944
-656
128
0
0
-16
-16
-16
0
336
160
-256
-224
-272
-352
-448
-528
-608
-672
-704
-816
-608
128
0
0
-16
-16
-16
0
320
384
-96
-80
-112
-192
-288
-368
-432
-512
-560
-688
-576
128
16
-16
-16
0
0
0
288
576
32
48
16
-80
-192
-272
-368
-448
-512
-608
-544
128
16
-16
0
0
0
0
256
688
128
128
112
16
-96
-176
-272
-352
-416
-528
-496
128
32
0
0
0
-16
-16
224
768
224
192
160
80
-32
-128
-224
-304
-384
-480
-496
112
32
0
-16
-16
-16
0
192
752
240
176
176
96
-16
-96
-192
-272
-336
-432
-480
96
48
-16
0
-16
-16
0
144
752
272
160
160
80
-16
-96
-192
-272
-336
-432
-512
64
48
0
0
0
0
0
112
720
256
128
128
48
-48
-144
-224
-304
-400
-496
-608
0
64
-16
-16
0
0
0
96
704
256
96
112
48
-48
-128
-208
-288
-368
-464
-592
-16
80
0
-16
0
0
0
80
720
336
112
128
64
-32
-112
-208
-288
-384
-464
-608
-80
80
-16
-16
0
0
-16
64
672
368
64
96
32
-64
-144
-224
-304
-368
-448
-592
-112
96
0
-16
-16
-16
-16
48
624
320
-80
-64
-144
-272
-368
-464
-544
-624
-704
-832
-304
96
0
0
0
-16
-16
32
544
192
-464
-448
-528
-704
-816
-912
-976
-1056
-1104
-1200
-576
80
0
0
-16
-16
-16
16
464
144
-720
-704
-784
-976
-1088
-1168
-1232
-1280
-1280
-1344
-704
80
0
0
-16
-16
-16
16
448
272
-736
-768
-816
-1024
-1136
-1216
-1248
-1280
-1264
-1280
-736
80
0
0
-16
0
0
0
416
416
-592
-656
-672
-848
-960
-1024
-1056
-1072
-1056
-1072
-688
64
0
-16
-16
0
0
0
400
592
-336
-464
-464
-624
-752
-816
-848
-864
-848
-896
-624
64
0
-16
0
-16
0
0
368
688
-80
-256
-240
-368
-480
-560
-592
-624
-624
-672
-512
80
0
-16
0
-16
0
0
336
736
192
32
16
-80
-192
-272
-336
-384
-400
-464
-384
80
0
-16
0
-16
-16
0
304
768
352
192
176
96
-16
-96
-160
-224
-272
-384
-384
80
0
0
0
0
-16
0
272
800
416
224
208
112
0
-96
-192
-256
-320
-448
-496
48
16
0
0
-16
-16
0
240
768
320
64
64
-16
-144
-256
-368
-448
-512
-624
-656
-32
16
-16
0
0
-16
0
208
752
224
-128
-112
-192
-336
-432
-528
-592
-640
-736
-768
-80
32
-16
0
0
0
0
176
736
272
-112
-96
-176
-320
-416
-512
-560
-592
-656
-720
-96
32
-16
-16
-16
0
-16
144
704
320
-80
-80
-144
-288
-368
-464
-528
-560
-624
-688
-112
32
0
0
0
0
0
128
704
400
-64
-80
-144
-272
-368
-464
-528
-576
-640
-736
-192
48
0
-16
-16
0
-16
112
688
416
-112
-112
-176
-304
-400
-496
-560
-608
-672
-768
-256
48
0
-16
0
0
-16
96
656
432
-112
-128
-160
-304
-400
-496
-560
-640
-688
-800
-320
48
-16
0
0
0
0
80
624
480
-112
-128
-160
-288
-384
-464
-544
-624
-688
-832
-400
48
0
-16
-16
-16
0
64
592
512
-128
-160
-160
-288
-400
-496
-576
-672
-752
-912
-560
32
0
0
0
-16
0
48
560
528
-192
-240
-224
-336
-448
-560
-656
-768
-864
-1024
-736
-16
0
-16
-16
-16
0
32
560
576
-352
-512
-480
-608
-736
-864
-960
-1088
-1184
-1344
-1088
-112
0
0
0
-16
-16
32
528
608
-464
-832
-752
-832
-976
-1072
-1152
-1248
-1328
-1456
-1280
-208
0
-16
0
-16
-16
16
512
688
-352
-960
-848
-912
-1072
-1168
-1248
-1328
-1376
-1488
-1392
-288
0
-16
0
0
-16
16
496
752
-160
-1008
-896
-912
-1072
-1168
-1232
-1296
-1312
-1392
-1376
-368
-16
0
-16
0
-16
16
464
800
128
-816
-736
-768
-896
-976
-1040
-1088
-1104
-1168
-1184
-368
-16
0
-16
0
0
0
432
784
336
-512
-496
-512
-608
-688
-736
-768
-768
-832
-848
-288
-16
-16
-16
-16
0
0
400
816
528
64
64
16
-80
-144
-192
-240
-272
-352
-400
-112
0
-16
0
-16
-16
0
384
864
656
480
448
368
288
224
144
80
48
-80
-160
-32
0
-16
0
0
-16
0
352
912
736
656
624
528
432
368
288
192
128
-16
-144
-48
0
-16
-16
0
0
0
320
928
752
608
576
496
384
320
224
144
64
-80
-224
-96
0
0
-16
0
-16
0
288
912
736
528
496
432
320
240
160
96
32
-96
-208
-80
0
0
0
0
0
0
256
928
784
544
496
432
336
256
176
112
48
-80
-224
-96
0
0
0
0
-16
-16
208
896
784
512
464
400
272
192
112
48
-16
-144
-288
-160
0
0
0
0
-16
-16
176
864
768
400
320
272
160
64
-16
-96
-144
-256
-400
-224
0
-16
-16
0
0
-16
144
800
736
320
224
192
80
0
-80
-144
-192
-288
-432
-272
0
-16
-16
0
-16
0
112
752
736
304
208
176
64
-32
-112
-160
-224
-288
-448
-304
0
-16
-16
0
0
0
96
736
752
336
224
192
96
-16
-96
-160
-224
-288
-432
-320
0
0
0
0
0
0
80
736
816
384
240
208
96
16
-64
-128
-192
-256
-416
-320
0
0
0
0
-16
0
64
688
832
400
224
208
96
-16
-112
-176
-240
-288
-416
-352
-16
0
-16
-16
0
-16
48
672
848
368
160
128
32
-80
-160
-224
-288
-320
-448
-400
-16
0
-16
-16
-16
-16
32
608
832
352
80
64
-32
-144
-240
-288
-352
-384
-496
-448
-32
0
-16
-16
0
-16
16
544
816
320
0
0
-96
-240
-320
-384
-448
-464
-560
-544
-64
0
-16
0
0
-16
16
496
816
320
-64
-64
-160
-288
-368
-432
-480
-512
-592
-608
-112
0
0
0
0
-16
0
464
832
368
-80
-64
-160
-288
-384
-448
-512
-544
-624
-640
-144
0
-16
-16
-16
0
0
432
832
400
-112
-96
-176
-304
-400
-464
-512
-544
-624
-672
-176
0
0
-16
-16
0
0
400
848
448
-112
-112
-192
-320
-416
-496
-544
-576
-656
-688
-208
0
-16
-16
-16
0
0
336
816
480
-144
-160
-224
-368
-480
-544
-608
-640
-704
-768
-288
0
0
0
0
0
0
304
816
496
-176
-224
-288
-416
-512
-592
-656
-688
-752
-816
-352
-16
0
0
0
-16
0
272
816
528
-208
-304
-352
-480
-592
-672
-736
-768
-816
-912
-448
-16
0
0
0
0
0
224
768
528
-288
-448
-480
-592
-720
-816
-880
-928
-960
-1072
-608
-32
-16
-16
-16
0
0
192
736
528
-368
-672
-672
-768
-912
-992
-1056
-1088
-1120
-1216
-768
-64
-16
0
0
-16
-16
176
720
560
-272
-704
-688
-768
-896
-992
-1056
-1104
-1120
-1232
-864
-96
-16
0
0
-16
-16
144
704
592
-144
-704
-656
-720
-832
-928
-992
-1040
-1056
-1200
-912
-128
-16
-16
-16
0
0
128
736
672
80
-560
-528
-576
-688
-800
-864
-912
-944
-1088
-896
-144
-16
0
0
-16
-16
112
736
704
240
-432
-416
-464
-544
-656
-720
-784
-832
-992
-896
-176
-16
-16
-16
0
0
96
720
752
352
-304
-304
-368
-432
-544
-608
-672
-736
-896
-848
-192
-16
-16
-16
-16
0
80
704
784
464
-112
-144
-208
-272
-384
-448
-528
-608
-752
-784
-208
-16
0
0
0
0
64
672
800
512
0
-48
-96
-176
-272
-336
-416
-496
-656
-752
-240
-16
-16
-16
0
0
48
640
800
560
80
0
-64
-160
-256
-336
-432
-512
-640
-752
-272
-16
0
0
0
-16
32
624
816
576
80
-48
-96
-160
-256
-336
-400
-448
-592
-720
-304
-16
-16
-16
-16
-16
32
576
816
592
176
80
16
-64
-144
-208
-272
-320
-416
-560
-272
-16
-16
-16
-16
-16
16
544
864
640
368
288
224
128
64
16
-64
-128
-208
-368
-224
-16
0
0
-16
0
16
512
912
704
576
544
464
352
304
240
160
64
-16
-192
-192
-16
0
0
-16
0
0
512
976
784
672
656
576
448
384
304
224
112
48
-144
-160
-16
0
0
-16
-16
0
464
1008
800
656
624
544
432
368
288
192
96
0
-176
-176
-16
-16
-16
-16
-16
0
432
1024
816
608
544
464
368
288
224
144
80
-16
-160
-160
-16
-16
-16
0
-16
0
368
976
800
592
512
448
352
288
208
160
96
0
-128
-144
-16
-16
-16
0
0
0
320
1008
864
640
560
496
400
336
272
208
128
48
-80
-96
-16
0
-16
-16
0
0
288
1040
944
672
560
496
384
288
208
144
80
-16
-128
-112
-16
-16
0
0
0
0
256
1088
1024
656
448
400
304
208
128
64
16
-64
-192
-176
-16
0
0
-16
0
0
224
1120
1104
640
336
320
240
112
32
-32
-64
-128
-224
-192
-16
-16
0
0
0
0
176
1056
1120
640
256
256
176
64
-16
-64
-80
-112
-224
-208
-32
-16
-16
0
0
0
128
976
1088
672
272
288
208
112
48
-16
-48
-96
-208
-224
-32
-16
-16
-16
-16
-16
96
928
1120
736
320
304
208
112
16
-32
-96
-144
-240
-256
-32
-16
-16
0
-16
-16
64
800
1024
752
416
432
368
256
160
64
-48
-160
-320
-384
-64
-16
0
-16
-16
-16
48
704
1008
784
496
464
384
288
176
96
-16
-144
-288
-336
-48
0
0
0
0
0
32
592
896
752
592
560
464
368
256
160
64
-48
-208
-272
-48
0
0
0
0
0
16
496
816
656
560
496
384
304
208
144
64
-32
-144
-192
-32
0
0
-16
0
0
16
464
800
624
512
448
320
208
128
64
-16
-80
-176
-208
-32
0
0
0
-16
0
0
432
768
528
304
272
160
48
-48
-112
-176
-224
-320
-352
-80
0
0
-16
-16
-16
0
400
800
544
208
176
80
-32
-128
-192
-240
-272
-352
-384
-80
0
-16
-16
-16
-16
0
368
816
560
160
112
32
-64
-176
-240
-304
-336
-416
-448
-128
0
-16
-16
0
-16
0
336
816
576
112
64
-16
-112
-192
-256
-320
-336
-416
-448
-128
0
-16
-16
-16
-16
0
304
848
640
128
48
-32
-144
-240
-304
-368
-384
-448
-496
-160
0
-16
0
0
0
0
272
832
624
64
-48
-128
-240
-352
-416
-464
-480
-528
-592
-224
0
-16
0
0
-16
0
224
768
592
-32
-208
-272
-384
-512
-592
-640
-656
-720
-784
-352
-16
0
0
0
0
0
176
704
528
-160
-416
-464
-560
-672
-752
-800
-816
-864
-960
-496
-32
0
-16
0
-16
-16
144
624
512
-160
-496
-496
-560
-672
-752
-800
-816
-864
-960
-544
-32
-16
0
-16
-16
0
128
704
640
0
-416
-384
-448
-544
-640
-672
-704
-752
-864
-544
-48
-16
0
-16
-16
0
128
768
768
256
-192
-160
-224
-304
-384
-432
-464
-496
-624
-432
-48
0
0
0
0
0
128
864
944
528
64
80
0
-80
-176
-224
-272
-304
-432
-336
-32
0
0
-16
0
0
112
912
1072
704
176
176
80
0
-112
-176
-224
-288
-416
-352
-48
0
-16
0
0
-16
80
864
1088
736
144
112
16
-64
-192
-272
-320
-384
-528
-464
-64
-16
0
-16
-16
-16
64
784
1024
688
0
-48
-112
-176
-304
-384
-448
-512
-640
-576
-96
-16
0
-16
-16
-16
32
656
912
624
-64
-160
-224
-288
-416
-512
-576
-624
-768
-720
-128
0
-16
0
-16
-16
16
544
816
544
-192
-368
-416
-464
-576
-688
-736
-816
-976
-928
-192
-16
-16
-16
0
-16
16
432
704
480
-288
-688
-720
-784
-832
-944
-1040
-1184
-1360
-1296
-320
-16
-16
0
0
0
0
352
592
368
-432
-1184
-1152
-1232
-1264
-1344
-1488
-1632
-1776
-1632
-432
-16
-16
0
0
0
0
288
480
272
-432
-1584
-1600
-1648
-1680
-1728
-1872
-2000
-80
-1920
-544
-16
0
0
0
0
0
240
432
240
-256
-1536
-1696
-1696
-1744
-1776
-1888
-1952
-16
-1872
-624
-16
0
-16
0
0
0
240
480
304
16
-1072
-1360
-1312
-1360
-1408
-1472
-1488
-1584
-1520
-576
-16
0
0
-16
-16
0
272
656
512
336
-352
-656
-624
-688
-736
-800
-848
-960
-1088
-544
-32
0
0
0
-16
0
304
864
720
592
224
-64
-64
-128
-208
-304
-368
-496
-768
-512
-32
-16
-16
0
0
0
288
880
768
640
448
208
144
48
-64
-192
-304
-464
-784
-576
-48
-16
-16
-16
-16
0
240
784
640
496
272
-96
-160
-272
-400
-528
-656
-816
-1104
-800
-80
-16
0
-16
-16
0
144
528
368
208
-64
-608
-640
-720
-816
-928
-1024
-1168
-1392
-1008
-112
0
0
-16
-16
-16
96
368
192
32
-240
-896
-928
-992
-1072
-1152
-1232
-1344
-1536
-1184
-160
0
0
0
0
-16
48
240
64
-80
-272
-832
-880
-912
-976
-1056
-1120
-1232
-1456
-1280
-224
-16
0
0
0
0
48
240
96
-48
-176
-608
-688
-736
-816
-896
-992
-1088
-1328
-1280
-256
-16
-16
0
0
-16
64
368
288
144
64
-144
-208
-240
-304
-352
-416
-480
-800
-1104
-272
-16
-16
0
-16
0
112
640
608
432
400
640
592
544
496
464
416
352
16
-672
-240
-16
-16
-16
0
0
128
816
848
672
784
1408
1312
1248
1200
1168
1136
1104
768
-240
-192
-16
0
0
-16
-16
128
928
1024
816
1024
1840
1680
1584
1456
1376
1392
1344
1056
0
-176
-16
0
-16
-16
0
96
816
928
704
832
1344
1088
928
800
752
832
896
832
192
-64
-16
0
-16
-16
-16
80
816
880
528
384
432
240
96
-16
-80
16
96
96
-240
-192
-16
0
-16
0
-16
48
640
688
304
16
-192
-336
-464
-560
-592
-544
-448
-416
-544
-272
-16
0
0
0
0
32
528
576
192
-208
-560
-624
-720
-800
-864
-896
-864
-896
-1024
-512
-16
0
0
-16
-16
16
336
352
48
-368
-960
-1008
-1104
-1152
-1200
-1328
-1392
-1488
-1600
-784
-48
0
0
-16
0
0
192
208
-48
-432
-1376
-1472
-1552
-1616
-1648
-1808
-1872
-1968
-1920
-944
-64
-16
-16
-16
-16
0
112
80
-160
-528
-1728
-2032
-2048
-48
-80
-224
-304
-384
-240
-1168
-96
-16
-16
-16
-16
0
80
64
-176
-480
-1760
-480
-432
-512
-592
-720
-800
-880
-496
-1376
-160
-16
-16
-16
-16
-16
-48
-160
-416
-640
-1632
-1280
-1600
-1600
-1712
-1808
-1872
-1728
-848
-1760
-272
-16
0
0
0
-16
-208
-416
-656
-848
-1456
-1184
-240
-208
-224
-272
-272
-1856
-848
-2000
-416
-16
0
0
0
-16
-192
-384
-624
-800
-1120
-512
-1824
-1856
-1776
-1776
-1712
-1232
-416
-1872
-464
-16
0
0
0
-16
-48
-112
-336
-480
-608
-1344
-464
-528
-432
-400
-352
-80
-1840
-1616
-480
-16
-16
-16
0
0
160
320
96
-64
-128
-320
-976
-1136
-1072
-1056
-1040
-1088
-1280
-1264
-448
-16
-16
0
-16
16
368
720
512
352
272
176
80
112
80
96
96
-240
-816
-944
-368
-16
-16
-16
-16
16
528
1104
928
768
688
720
1408
1552
1440
1472
1472
1056
-32
-544
-224
-16
-16
-16
-16
0
640
1488
1360
1184
1104
1648
816
832
704
720
736
384
1104
-32
-64
-16
0
-16
-16
0
688
1808
1712
1520
1600
848
2000
1856
1680
1616
1568
1280
0
416
16
0
0
0
0
0
576
1744
1664
1440
1584
912
1616
1360
1216
1136
1072
944
96
544
-16
-16
0
-16
0
0
416
1520
1472
1248
1520
688
720
464
272
128
112
80
1728
448
-112
-16
0
0
0
0
256
1184
1184
960
1168
1792
1568
1392
1216
1104
1088
1088
912
128
-272
-16
-16
-16
0
0
160
960
976
736
832
1024
816
672
496
416
368
400
304
-144
-336
-32
-16
-16
0
-16
112
816
880
624
592
624
464
320
192
112
32
48
-48
-384
-448
-32
0
-16
0
0
80
704
784
528
384
288
160
32
-48
-96
-208
-192
-256
-480
-464
-48
0
-16
-16
0
64
656
752
496
288
144
48
-64
-144
-208
-288
-288
-352
-528
-496
-64
0
0
-16
-16
48
640
800
544
256
32
-48
-144
-208
-288
-336
-352
-416
-576
-528
-64
-16
0
0
-16
48
640
864
640
288
0
-48
-160
-224
-304
-352
-384
-448
-592
-496
-64
0
0
-16
0
32
672
1008
784
400
48
32
-64
-112
-208
-256
-288
-352
-496
-448
-64
-16
-16
0
-16
32
672
1136
928
576
240
224
128
80
-16
-64
-96
-176
-320
-352
-64
0
-16
0
0
16
640
1184
992
720
432
400
304
224
144
80
16
-64
-240
-368
-80
-16
0
0
-16
16
592
1200
1008
752
512
464
368
272
192
128
64
-16
-224
-400
-96
0
0
0
-16
0
480
1104
912
688
464
416
288
192
112
16
-64
-144
-336
-496
-128
-16
0
0
-16
0
400
992
816
576
320
272
160
64
-48
-128
-224
-304
-480
-592
-160
-16
-16
-16
-16
0
336
928
768
512
144
96
0
-64
-176
-256
-336
-416
-576
-640
-160
-16
-16
-16
-16
0
288
960
848
576
48
-16
-80
-144
-272
-352
-416
-512
-672
-704
-192
-16
-16
-16
0
0
288
1056
976
688
16
-96
-144
-176
-288
-384
-416
-528
-672
-688
-192
-16
-16
-16
-16
0
256
1120
1056
784
48
-128
-160
-208
-304
-384
-448
-544
-672
-688
-192
-16
0
0
0
0
208
1056
1024
768
96
-128
-176
-208
-256
-352
-432
-512
-624
-688
-224
-16
0
0
0
0
160
960
960
704
176
-80
-112
-160
-192
-256
-352
-416
-512
-624
-240
-16
0
0
-16
-16
128
896
960
720
304
32
0
-80
-96
-160
-256
-304
-416
-608
-272
-16
-16
-16
0
0
96
848
976
768
400
80
48
-32
-80
-144
-224
-288
-416
-608
-304
-16
-16
-16
0
0
80
832
1056
816
448
64
48
-48
-80
-128
-224
-272
-384
-608
-320
-16
-16
-16
0
-16
64
784
1088
864
544
192
160
64
16
-64
-128
-160
-272
-512
-320
-16
-16
-16
0
-16
48
736
1104
880
624
384
336
256
160
64
32
16
-96
-384
-336
-16
0
-16
0
-16
32
672
1120
928
752
640
560
464
352
224
192
192
64
-272
-336
-32
0
0
0
-16
16
640
1184
1008
864
784
720
624
496
368
304
288
144
-192
-320
-32
0
0
0
0
0
592
1232
1088
928
784
704
608
496
384
272
240
96
-208
-320
-32
-16
-16
-16
-16
0
512
1200
1056
864
640
592
496
416
320
208
160
32
-256
-352
-32
-16
-16
-16
0
0
448
1152
1008
800
512
464
368
288
208
96
32
-64
-304
-368
-48
-16
-16
-16
0
0
368
1056
928
704
384
320
224
144
48
-48
-112
-192
-384
-448
-64
0
-16
-16
-16
0
288
960
832
608
288
224
144
64
-32
-128
-176
-240
-432
-512
-80
0
0
0
0
0
240
896
784
560
240
160
64
-16
-112
-192
-256
-288
-448
-544
-96
-16
0
0
0
0
192
784
688
480
192
96
0
-80
-176
-256
-304
-352
-496
-624
-128
-16
0
-16
-16
-16
144
720
640
432
128
32
-64
-144
-240
-304
-368
-400
-528
-640
-144
-16
-16
0
0
-16
112
672
608
400
80
-32
-128
-208
-288
-368
-416
-448
-560
-688
-176
-16
-16
-16
0
0
96
608
560
368
48
-64
-144
-224
-304
-368
-432
-464
-576
-704
-208
-16
0
0
0
-16
80
592
576
368
48
-64
-144
-224
-304
-368
-432
-464
-576
-736
-240
-16
0
-16
-16
-16
64
560
592
384
80
-48
-128
-208
-288
-368
-432
-464
-576
-752
-288
-16
0
0
-16
-16
48
560
624
416
96
-48
-112
-192
-272
-352
-416
-448
-576
-752
-320
-16
0
0
-16
-16
48
560
656
448
128
-16
-96
-176
-256
-336
-416
-432
-544
-736
-352
-16
0
-16
-16
0
32
544
688
464
160
0
-64
-144
-208
-288
-352
-384
-480
-688
-384
-16
-16
0
0
0
32
528
720
512
208
16
-48
-128
-208
-272
-352
-368
-464
-672
-416
-16
0
0
0
-16
16
512
736
528
208
0
-48
-144
-208
-288
-352
-384
-480
-672
-464
-32
-16
0
0
0
16
480
768
544
224
-16
-80
-160
-224
-304
-368
-384
-464
-656
-480
-32
-16
0
0
-16
16
432
752
544
224
0
-48
-144
-208
-288
-352
-368
-432
-608
-512
-48
0
-16
-16
-16
0
384
688
480
240
80
32
-48
-112
-160
-224
-240
-304
-496
-512
-64
-16
-16
-16
-16
0
336
656
464
272
176
144
64
-16
-64
-144
-176
-224
-416
-496
-64
0
-16
0
-16
0
320
672
480
304
224
160
64
0
-48
-128
-176
-224
-416
-544
-96
0
-16
0
0
0
304
720
528
368
272
208
96
16
-32
-112
-192
-240
-416
-544
-112
-16
-16
-16
0
0
304
768
592
416
288
208
96
16
-64
-144
-224
-272
-416
-528
-128
-16
0
0
0
0
272
784
624
416
256
192
80
0
-96
-160
-256
-304
-432
-560
-144
-16
0
-16
-16
0
256
816
672
416
160
128
16
-64
-160
-240
-320
-384
-528
-624
-176
-16
0
-16
0
0
240
816
688
384
-32
-48
-144
-208
-320
-400
-464
-528
-688
-752
-208
-16
0
0
0
0
208
832
704
368
-192
-208
-288
-352
-464
-544
-608
-688
-832
-848
-240
-16
0
0
-16
0
176
784
688
368
-304
-352
-416
-464
-576
-656
-704
-800
-960
-944
-288
-16
0
0
0
0
144
752
688
400
-368
-464
-512
-544
-672
-752
-784
-880
-1024
-1040
-352
-16
0
-16
0
0
128
752
720
432
-304
-480
-512
-544
-656
-736
-784
-848
-976
-1008
-368
-16
-16
-16
0
0
112
736
736
496
-160
-400
-432
-480
-560
-656
-704
-768
-880
-960
-400
-16
0
-16
-16
-16
96
736
784
544
-32
-352
-368
-416
-480
-560
-608
-688
-784
-880
-416
-16
-16
0
0
-16
64
656
752
544
48
-368
-368
-432
-432
-496
-576
-672
-768
-912
-480
-32
-16
-16
-16
-16
48
624
752
544
128
-336
-336
-400
-416
-480
-576
-656
-752
-912
-528
-32
0
0
-16
-16
48
576
736
528
144
-352
-352
-416
-432
-448
-576
-640
-736
-912
-576
-48
0
-16
-16
-16
32
544
736
496
192
-272
-304
-384
-416
-448
-544
-592
-688
-880
-624
-64
0
0
-16
-16
16
512
736
496
224
-256
-304
-384
-448
-480
-544
-576
-656
-848
-640
-64
0
0
0
-16
16
464
720
480
240
-256
-336
-416
-480
-528
-592
-608
-688
-864
-704
-80
-16
-16
-16
0
16
448
752
512
272
-288
-400
-464
-544
-608
-656
-688
-752
-928
-768
-112
0
-16
0
0
0
416
768
544
320
-320
-512
-560
-624
-704
-752
-800
-864
-1008
-816
-128
-16
0
0
0
0
384
784
560
352
-256
-496
-512
-560
-608
-656
-672
-704
-848
-752
-128
-16
0
0
0
0
368
816
608
432
16
-176
-208
-256
-304
-352
-384
-432
-608
-688
-144
0
0
0
0
0
352
864
672
496
272
160
112
80
32
16
0
-48
-272
-592
-160
-16
-16
-16
-16
0
352
928
784
608
592
576
480
416
352
320
304
256
0
-528
-176
-16
-16
-16
-16
0
320
992
848
672
704
720
624
544
400
368
400
352
128
-432
-176
-16
-16
-16
-16
0
288
1008
896
704
800
816
704
608
464
416
448
448
256
-336
-192
-16
-16
-16
-16
0
240
992
912
736
864
896
768
656
528
464
464
464
320
-208
-176
-16
0
0
0
0
208
976
912
720
848
880
768
640
560
496
416
432
288
-176
-192
-16
0
0
0
-16
160
912
912
720
816
832
720
576
528
464
352
352
224
-208
-224
-16
0
-16
0
0
144
896
944
720
704
672
560
448
384
320
224
208
112
-240
-224
-16
0
0
0
0
112
816
896
688
592
560
448
336
288
224
144
112
32
-256
-240
-16
-16
-16
-16
-16
80
768
896
656
496
432
336
240
176
128
48
0
-80
-336
-288
-16
-16
0
0
0
64
688
880
672
432
336
224
128
48
-16
-96
-144
-208
-432
-336
-32
-16
0
-16
-16
48
624
848
624
288
160
80
-16
-112
-176
-256
-304
-384
-560
-416
-32
-16
0
0
0
32
592
864
624
144
-64
-128
-208
-336
-400
-448
-496
-576
-736
-512
-48
-16
-16
-16
-16
16
528
800
576
0
-320
-352
-432
-560
-640
-688
-720
-800
-944
-608
-48
-16
0
-16
-16
16
464
752
512
-112
-640
-624
-688
-768
-880
-912
-928
-1024
-1104
-704
-64
0
-16
-16
-16
0
416
736
528
-32
-624
-592
-640
-720
-816
-864
-880
-960
-1056
-736
-80
0
-16
0
0
0
384
768
560
96
-496
-480
-512
-560
-672
-704
-736
-816
-928
-736
-112
0
-16
0
0
0
368
800
608
288
-224
-240
-304
-352
-448
-496
-528
-576
-720
-672
-112
0
0
0
-16
0
368
848
656
400
-16
-64
-144
-192
-288
-336
-368
-416
-560
-640
-128
0
0
0
0
0
320
848
672
448
80
16
-80
-144
-224
-272
-304
-352
-496
-624
-144
-16
0
-16
-16
0
304
864
704
496
160
96
0
-64
-144
-208
-256
-288
-432
-608
-176
-16
0
-16
0
0
272
864
720
512
240
176
96
16
-48
-112
-160
-208
-368
-608
-192
-16
-16
-16
-16
0
240
880
752
544
288
224
128
48
-16
-96
-160
-208
-352
-592
-208
-16
-16
0
-16
0
208
848
752
544
336
272
176
80
16
-48
-144
-176
-304
-592
-256
-16
-16
0
-16
-16
176
816
736
528
336
288
192
96
32
-32
-144
-160
-272
-528
-256
-16
-16
0
0
-16
144
800
768
560
368
304
208
112
48
-16
-112
-144
-224
-480
-272
-16
-16
-16
-16
-16
128
768
784
560
384
320
224
128
64
16
-80
-96
-192
-448
-304
-16
-16
-16
0
0
96
752
800
576
384
304
208
112
48
-16
-96
-128
-208
-432
-304
-16
-16
0
0
0
80
720
816
576
336
256
160
64
0
-64
-128
-176
-240
-448
-336
-16
-16
0
0
0
64
688
816
592
304
192
96
16
-64
-128
-192
-224
-304
-480
-352
-32
-16
0
-16
0
48
640
816
592
256
128
48
-32
-112
-176
-240
-272
-352
-512
-400
-32
-16
-16
-16
-16
32
592
816
592
240
96
16
-48
-144
-208
-272
-320
-400
-560
-448
-48
0
-16
-16
0
32
560
832
592
224
48
0
-80
-176
-256
-304
-352
-432
-592
-480
-48
0
-16
-16
-16
16
544
848
608
208
0
-32
-112
-192
-256
-320
-352
-432
-608
-512
-64
0
0
0
-16
16
512
880
656
240
-16
-32
-112
-192
-256
-304
-352
-416
-592
-544
-80
0
-16
0
0
16
496
912
688
272
-32
-32
-112
-192
-256
-304
-336
-400
-560
-528
-80
-16
-16
0
0
0
448
912
704
304
-16
-32
-96
-176
-240
-288
-320
-384
-544
-560
-96
0
0
-16
-16
0
384
896
704
352
0
-16
-80
-160
-240
-304
-336
-400
-560
-592
-128
0
0
-16
-16
0
368
912
720
384
0
-16
-96
-160
-240
-304
-352
-416
-560
-592
-128
-16
0
0
-16
0
320
912
736
416
0
-16
-96
-176
-256
-304
-368
-416
-560
-624
-160
-16
-16
-16
0
0
272
880
752
464
32
0
-96
-160
-256
-304
-368
-400
-544
-640
-192
-16
-16
0
0
0
240
864
752
480
48
0
-80
-144
-240
-288
-352
-384
-496
-640
-208
-16
-16
-16
0
0
192
848
768
512
80
16
-64
-128
-224
-272
-336
-368
-496
-640
-240
-16
0
0
0
0
176
816
768
528
112
48
-48
-112
-208
-256
-304
-336
-448
-624
-256
-16
-16
-16
-16
0
144
800
784
544
128
48
-32
-112
-192
-240
-304
-336
-416
-592
-272
-16
0
-16
-16
-16
112
768
800
560
160
48
-16
-96
-192
-240
-304
-320
-416
-592
-304
-16
-16
-16
0
0
96
752
800
560
176
64
-16
-80
-176
-240
-288
-320
-384
-576
-336
-16
-16
0
0
-16
80
704
800
576
192
64
0
-80
-176
-224
-288
-320
-384
-560
-352
-16
0
0
0
-16
64
688
816
592
224
64
0
-80
-160
-224
-288
-320
-384
-576
-384
-32
-16
0
0
0
48
624
816
608
240
80
16
-80
-160
-224
-288
-320
-400
-592
-432
-32
0
0
0
-16
32
608
848
624
256
64
16
-64
-160
-224
-304
-352
-416
-592
-464
-48
0
-16
-16
0
32
576
864
640
272
64
16
-64
-160
-224
-304
-336
-416
-592
-496
-48
0
0
0
0
16
544
880
640
288
64
16
-64
-144
-224
-304
-336
-400
-576
-496
-64
-16
-16
-16
-16
16
496
880
656
320
64
16
-64
-144
-224
-288
-336
-384
-544
-528
-64
-16
-16
0
0
0
464
880
672
352
64
32
-64
-128
-224
-272
-304
-368
-528
-544
-80
-16
0
0
-16
0
416
880
688
368
64
16
-64
-144
-224
-272
-336
-384
-528
-544
-96
-16
0
-16
-16
0
368
864
672
384
64
32
-48
-128
-208
-272
-320
-368
-512
-576
-112
-16
0
0
-16
0
336
864
688
416
64
32
-48
-128
-208
-272
-320
-384
-512
-592
-144
0
-16
-16
-16
0
304
864
704
416
64
32
-48
-128
-208
-272
-320
-384
-512
-608
-160
0
-16
-16
0
0
272
848
704
448
80
48
-48
-112
-192
-256
-320
-368
-512
-640
-192
-16
0
0
-16
0
240
848
720
464
96
48
-32
-112
-192
-256
-320
-368
-496
-640
-208
-16
0
-16
0
0
192
816
736
496
112
48
-32
-96
-192
-256
-304
-352
-496
-656
-240
-16
-16
0
0
0
176
816
752
496
112
48
-32
-96
-192
-256
-320
-368
-496
-640
-256
-16
-16
0
0
0
160
800
752
512
128
48
-32
-96
-176
-240
-304
-352
-448
-624
-288
-16
-16
0
0
0
128
768
752
528
144
64
-16
-80
-176
-224
-304
-320
-432
-608
-304
-16
0
0
0
0
112
752
768
544
160
64
0
-64
-160
-208
-288
-304
-400
-592
-336
-16
0
0
0
-16
80
720
800
576
192
80
16
-48
-128
-192
-256
-288
-384
-592
-368
-16
0
-16
-16
-16
64
704
848
608
224
96
32
-48
-128
-192
-256
-288
-384
-592
-400
-32
0
-16
0
0
48
672
864
624
240
96
32
-48
-128
-192
-256
-288
-384
-576
-416
-32
-16
-16
-16
-16
48
640
896
656
272
96
32
-48
-144
-208
-272
-304
-384
-576
-464
-48
0
-16
-16
-16
32
608
912
672
288
80
32
-64
-144
-208
-272
-304
-368
-560
-480
-48
0
0
-16
-16
16
560
912
672
304
64
16
-80
-160
-224
-288
-320
-368
-560
-512
-64
0
0
0
-16
16
512
880
656
304
64
16
-80
-144
-224
-272
-304
-368
-528
-512
-80
-16
-16
0
0
0
464
880
656
320
64
32
-64
-144
-224
-288
-336
-368
-528
-528
-80
-16
0
0
0
0
416
864
656
352
64
32
-64
-144
-208
-288
-336
-384
-528
-560
-96
0
-16
-16
-16
0
368
864
672
384
80
48
-48
-128
-208
-256
-304
-368
-512
-576
-128
-16
-16
0
0
0
352
880
704
416
80
48
-48
-128
-208
-256
-304
-352
-496
-592
-144
-16
-16
-16
0
0
304
880
720
432
80
48
-32
-112
-208
-256
-288
-336
-480
-576
-160
-16
0
-16
-16
0
272
896
752
464
80
48
-48
-112
-208
-256
-304
-336
-448
-576
-176
-16
0
-16
-16
0
224
832
720
464
96
64
-16
-96
-192
-256
-320
-336
-448
-592
-192
-16
0
0
-16
0
208
848
752
496
112
48
-16
-96
-192
-240
-320
-352
-448
-608
-224
-16
-16
-16
0
-16
176
800
736
496
112
64
-16
-96
-176
-240
-304
-336
-432
-608
-256
-16
-16
-16
-16
-16
144
800
784
544
128
48
-16
-96
-192
-240
-304
-336
-432
-592
-272
-16
0
0
0
0
128
768
784
528
144
48
-16
-96
-176
-240
-304
-352
-416
-576
-304
-16
-16
-16
-16
-16
96
736
784
544
160
64
-16
-80
-176
-240
-304
-336
-432
-592
-320
-16
0
0
-16
-16
80
704
800
560
176
64
0
-80
-176
-240
-304
-352
-432
-592
-352
-16
0
-16
-16
-16
64
672
800
560
192
64
0
-64
-160
-224
-288
-320
-416
-592
-384
-32
-16
0
0
0
48
640
816
576
208
64
0
-80
-160
-224
-288
-336
-416
-576
-400
-32
0
0
0
0
32
608
832
608
224
64
16
-80
-144
-208
-288
-336
-416
-592
-464
-48
-16
-16
0
0
32
592
864
640
256
64
16
-80
-160
-224
-304
-352
-416
-560
-464
-48
-16
-16
0
0
16
544
864
640
272
64
16
-64
-144
-208
-288
-336
-400
-576
-512
-64
-16
-16
-16
-16
16
512
896
672
320
80
16
-64
-144
-208
-272
-336
-416
-592
-544
-80
0
-16
-16
-16
0
464
896
688
336
64
32
-64
-160
-224
-272
-320
-384
-560
-576
-96
0
0
-16
-16
0
416
896
704
368
64
32
-64
-144
-224
-272
-304
-384
-544
-576
-112
0
0
0
-16
0
400
928
720
384
48
32
-64
-144
-224
-272
-304
-368
-512
-576
-112
0
0
0
0
0
336
880
720
400
64
48
-48
-128
-208
-256
-304
-352
-512
-576
-144
-16
-16
-16
0
0
320
896
736
432
80
48
-32
-112
-208
-256
-320
-368
-512
-592
-160
-16
-16
-16
-16
0
272
864
720
448
96
64
-32
-112
-192
-240
-320
-352
-496
-608
-192
-16
-16
0
-16
0
240
864
752
496
112
80
-16
-96
-192
-240
-288
-320
-448
-592
-208
-16
0
-16
-16
0
208
864
768
512
128
80
0
-80
-176
-224
-272
-304
-416
-592
-224
-16
-16
-16
0
0
176
832
784
544
160
96
16
-64
-160
-208
-272
-320
-416
-608
-256
-16
0
0
0
0
160
848
816
560
160
96
16
-48
-144
-208
-288
-320
-416
-624
-288
-16
-16
0
0
0
128
784
800
560
176
96
16
-48
-160
-208
-304
-352
-448
-624
-320
-16
0
0
-16
0
96
784
832
592
192
96
16
-64
-160
-224
-288
-320
-432
-608
-352
-16
0
0
0
-16
80
736
832
592
192
80
0
-64
-160
-224
-272
-320
-416
-592
-384
-16
0
0
-16
-16
64
688
848
608
208
80
16
-80
-160
-224
-288
-336
-432
-608
-416
-32
-16
-16
-16
0
48
656
864
624
208
64
0
-80
-160
-240
-304
-336
-416
-608
-432
-32
-16
0
0
-16
32
608
864
624
240
64
0
-80
-160
-224
-288
-336
-416
-592
-464
-48
-16
-16
-16
-16
32
576
880
656
272
80
16
-64
-160
-224
-288
-320
-400
-592
-496
-48
-16
-16
-16
-16
16
544
912
672
288
64
16
-64
-144
-224
-272
-320
-400
-576
-512
-64
0
-16
0
0
16
496
912
688
320
80
48
-48
-128
-208
-272
-304
-384
-560
-544
-80
0
0
-16
0
0
448
928
704
352
80
48
-48
-128
-208
-272
-320
-384
-528
-544
-96
-16
0
0
0
0
400
896
688
368
80
48
-48
-128
-192
-272
-320
-368
-528
-576
-112
0
0
-16
0
0
368
896
704
384
80
48
-32
-112
-192
-256
-304
-352
-496
-576
-128
-16
0
0
0
0
336
896
720
416
96
64
-32
-112
-192
-240
-304
-352
-496
-592
-144
-16
-16
0
0
0
288
880
736
432
96
64
-16
-112
-176
-240
-288
-336
-480
-592
-176
-16
0
0
0
0
256
896
768
464
96
64
-16
-96
-192
-240
-288
-336
-464
-592
-192
-16
0
0
-16
0
224
880
768
480
96
64
-16
-96
-192
-240
-304
-336
-448
-592
-208
-16
-16
-16
-16
0
192
864
784
496
112
64
-32
-96
-192
-240
-304
-320
-416
-560
-224
-16
-16
0
-16
-16
160
816
768
512
112
64
-16
-80
-176
-224
-288
-320
-416
-576
-256
-16
0
-16
-16
-16
128
800
784
528
128
64
-16
-96
-176
-224
-288
-304
-400
-560
-272
-16
-16
-16
-16
-16
112
768
784
544
144
64
0
-64
-160
-224
-272
-320
-400
-576
-304
-16
0
0
0
0
96
752
832
576
160
80
0
-80
-176
-224
-304
-336
-432
-592
-336
-16
0
0
0
0
64
688
832
592
176
80
0
-64
-160
-224
-304
-336
-416
-576
-352
-16
-16
0
0
0
48
656
848
608
208
80
32
-64
-160
-224
-304
-336
-432
-608
-400
-32
-16
0
-16
-16
48
640
896
656
224
80
16
-80
-160
-224
-288
-336
-416
-592
-432
-32
0
-16
-16
-16
32
592
896
672
256
80
16
-64
-160
-224
-272
-304
-400
-576
-464
-48
0
0
-16
-16
16
560
928
688
288
80
16
-64
-144
-224
-288
-320
-400
-560
-464
-48
0
0
0
-16
16
512
896
672
288
64
16
-64
-144
-224
-272
-320
-384
-528
-480
-64
0
-16
0
-16
0
464
864
672
320
64
32
-48
-144
-208
-272
-304
-352
-512
-496
-64
-16
0
0
0
0
416
848
656
336
80
48
-48
-128
-208
-256
-320
-352
-496
-512
-96
-16
0
-16
-16
0
384
880
688
368
64
48
-48
-128
-208
-256
-304
-336
-480
-528
-96
0
0
0
0
0
352
864
688
384
80
64
-32
-112
-192
-240
-304
-368
-512
-576
-128
-16
0
0
0
0
320
896
736
448
112
80
-16
-112
-192
-256
-336
-384
-512
-608
-144
-16
-16
0
-16
0
288
896
752
448
96
64
-16
-112
-192
-256
-320
-384
-512
-592
-160
-16
0
0
0
0
240
880
784
480
112
80
-16
-96
-192
-240
-304
-368
-496
-592
-192
-16
-16
-16
-16
0
208
864
768
480
112
64
-16
-96
-192
-240
-288
-336
-464
-592
-208
-16
-16
-16
-16
0
176
832
768
496
112
64
-16
-96
-176
-224
-272
-320
-432
-592
-224
-16
0
0
-16
-16
160
832
800
528
128
80
-16
-80
-176
-224
-288
-336
-432
-608
-256
-16
-16
0
0
-16
128
784
784
544
144
80
0
-80
-160
-224
-288
-336
-432
-624
-304
-16
0
0
0
0
96
768
816
576
160
96
16
-64
-176
-240
-304
-352
-448
-640
-336
-16
0
0
0
0
80
752
848
576
160
64
0
-80
-176
-240
-304
-336
-432
-624
-352
-16
-16
-16
0
0
64
704
848
608
176
64
0
-80
-176
-240
-304
-352
-464
-640
-400
-32
0
-16
-16
-16
48
672
880
608
192
64
0
-80
-176
-240
-304
-352
-448
-608
-416
-32
-16
-16
-16
-16
32
608
864
608
224
64
0
-80
-160
-224
-288
-352
-448
-608
-448
-32
-16
-16
-16
0
32
576
880
624
240
80
16
-64
-160
-224
-288
-336
-416
-576
-464
-48
-16
-16
-16
-16
16
544
880
640
256
64
16
-64
-144
-208
-272
-320
-384
-544
-480
-64
0
-16
-16
0
16
512
880
656
288
80
32
-48
-128
-208
-256
-304
-352
-528
-512
-64
0
-16
-16
-16
0
480
912
688
320
80
48
-48
-128
-208
-256
-304
-352
-512
-512
-80
-16
0
-16
-16
0
432
928
704
352
80
48
-32
-128
-192
-256
-304
-368
-528
-544
-96
0
0
-16
-16
0
384
912
720
384
96
64
-32
-112
-208
-256
-320
-368
-512
-560
-112
-16
-16
0
-16
0
336
912
736
400
96
64
-16
-112
-192
-240
-304
-352
-496
-576
-128
-16
-16
0
0
0
288
912
752
432
80
64
-16
-96
-192
-240
-288
-336
-480
-576
-160
-16
-16
0
0
0
256
896
768
448
80
48
-32
-112
-192
-240
-288
-320
-448
-560
-160
-16
0
0
0
0
224
880
768
464
96
48
-32
-112
-192
-240
-304
-336
-448
-560
-192
-16
0
0
0
-16
192
848
768
480
80
48
-32
-112
-192
-240
-304
-336
-416
-544
-208
-16
-16
-16
-16
-16
160
800
752
496
112
64
-32
-96
-176
-224
-288
-320
-416
-560
-224
-16
-16
-16
-16
-16
128
768
768
512
128
64
-16
-80
-176
-224
-288
-336
-416
-560
-256
-16
-16
-16
-16
-16
112
736
784
544
144
64
-16
-96
-176
-224
-288
-320
-416
-576
-288
-16
0
0
0
0
96
736
800
576
160
80
0
-80
-176
-240
-304
-352
-416
-592
-304
-16
0
-16
0
0
80
704
832
592
176
64
0
-80
-176
-240
-288
-336
-416
-592
-336
-16
0
0
-16
0
64
688
848
608
192
64
0
-96
-176
-240
-304
-336
-416
-576
-368
-32
-16
-16
-16
-16
48
640
832
592
192
64
0
-80
-176
-240
-288
-336
-400
-544
-368
-32
-16
-16
-16
-16
32
576
832
592
208
64
16
-80
-144
-224
-288
-320
-400
-560
-400
-32
-16
0
0
0
16
528
832
624
240
80
32
-48
-144
-208
-272
-336
-416
-576
-464
-48
0
0
0
0
16
528
864
656
272
80
32
-48
-144
-224
-272
-304
-368
-544
-464
-48
-16
0
0
0
16
496
896
672
304
80
48
-48
-144
-208
-272
-304
-368
-512
-480
-64
-16
0
0
0
0
464
896
672
304
64
48
-32
-112
-192
-256
-288
-352
-496
-496
-80
0
-16
-16
-16
0
416
880
688
336
80
48
-32
-112
-192
-240
-288
-368
-512
-512
-96
-16
-16
-16
0
0
352
864
688
368
96
64
-16
-96
-192
-256
-320
-384
-528
-560
-112
0
-16
-16
-16
0
336
896
704
400
80
64
-32
-112
-192
-256
-320
-368
-496
-544
-128
0
0
-16
-16
0
288
880
720
416
80
48
-32
-112
-176
-240
-304
-352
-480
-560
-144
-16
-16
0
0
0
256
880
736
448
96
64
-16
-96
-176
-240
-304
-352
-480
-576
-160
-16
0
0
0
0
224
864
736
448
96
80
-16
-96
-176
-240
-304
-352
-480
-592
-192
-16
0
0
0
0
176
832
752
480
112
80
0
-96
-176
-240
-304
-352
-480
-624
-224
-16
0
-16
0
0
160
848
784
512
112
64
-16
-96
-192
-240
-304
-336
-448
-592
-240
-16
0
0
-16
0
144
832
816
528
96
48
-32
-96
-192
-240
-288
-336
-432
-592
-256
-16
-16
-16
-16
-16
112
784
832
544
128
64
-16
-96
-176
-240
-288
-320
-432
-592
-288
-16
-16
0
0
-16
80
752
848
576
144
64
-16
-96
-176
-240
-304
-352
-432
-592
-304
-16
-16
-16
-16
-16
64
688
816
576
176
80
0
-80
-160
-224
-288
-336
-432
-608
-368
-16
-16
0
-16
-16
48
672
848
608
192
80
0
-80
-160
-224
-288
-336
-416
-592
-368
-32
0
0
-16
-16
48
640
864
624
192
64
0
-80
-176
-240
-288
-320
-400
-576
-400
-32
-16
-16
-16
0
32
592
880
640
224
80
0
-80
-160
-224
-288
-336
-400
-560
-416
-32
0
0
0
0
16
560
896
640
240
80
16
-80
-160
-224
-288
-336
-400
-544
-432
-48
-16
-16
0
0
16
512
864
640
256
64
16
-64
-144
-224
-288
-336
-384
-528
-464
-48
-16
-16
-16
0
0
464
864
640
288
80
32
-64
-144
-208
-272
-320
-368
-512
-464
-64
0
0
-16
-16
0
416
864
672
320
80
32
-48
-128
-208
-256
-304
-368
-512
-512
-80
0
-16
-16
-16
0
384
896
704
352
80
48
-48
-128
-208
-256
-304
-368
-512
-528
-96
0
0
-16
-16
0
352
896
720
368
80
64
-32
-112
-192
-256
-304
-368
-528
-560
-112
0
0
0
0
0
320
896
736
400
80
64
-16
-112
-192
-256
-320
-384
-512
-576
-128
-16
-16
0
0
0
272
880
752
432
96
64
-16
-96
-192
-240
-288
-336
-480
-576
-144
-16
0
0
-16
0
240
864
736
448
96
80
-16
-96
-192
-240
-304
-352
-464
-576
-176
-16
-16
0
0
0
208
848
768
480
96
80
-16
-96
-192
-240
-304
-336
-448
-592
-192
-16
-16
0
-16
0
176
832
768
496
112
80
-16
-96
-192
-240
-304
-352
-448
-592
-224
-16
-16
-16
0
0
144
816
768
496
112
80
0
-96
-176
-240
-304
-352
-448
-592
-240
-16
-16
-16
-16
-16
128
784
784
528
128
80
0
-80
-176
-224
-288
-336
-448
-592
-272
-16
-16
-16
-16
-16
96
768
816
544
144
80
0
-80
-176
-240
-304
-352
-432
-592
-304
-16
0
0
-16
-16
80
720
816
560
144
80
0
-80
-176
-224
-288
-336
-432
-576
-320
-16
0
0
0
-16
64
688
832
592
160
80
16
-64
-160
-224
-288
-336
-416
-576
-336
-16
0
0
0
0
48
656
848
592
176
64
16
-64
-160
-224
-288
-320
-400
-576
-368
-32
-16
0
0
0
32
608
848
592
192
64
16
-64
-160
-224
-272
-320
-400
-560
-384
-32
0
-16
0
0
32
576
848
608
208
64
16
-64
-144
-224
-272
-320
-400
-560
-416
-32
-16
0
-16
-16
16
544
864
624
240
64
16
-64
-144
-224
-288
-336
-400
-544
-448
-48
0
-16
-16
0
16
496
864
640
272
80
32
-48
-144
-208
-272
-336
-384
-544
-480
-64
0
0
-16
-16
0
464
880
656
288
80
32
-48
-128
-208
-272
-320
-384
-528
-496
-64
0
0
0
0
0
416
896
672
320
80
48
-48
-128
-192
-256
-320
-384
-528
-512
-80
0
0
-16
-16
0
384
896
688
336
96
48
-32
-112
-192
-240
-304
-368
-496
-512
-96
-16
0
-16
-16
0
336
896
704
352
80
48
-32
-112
-192
-240
-304
-352
-480
-528
-112
-16
-16
0
0
0
288
848
704
384
96
64
-32
-96
-192
-240
-288
-336
-464
-528
-128
-16
-16
0
-16
0
256
848
720
400
80
64
-32
-112
-192
-240
-272
-320
-448
-544
-144
-16
-16
-16
-16
0
224
832
720
432
80
64
-32
-112
-192
-240
-288
-336
-448
-560
-160
-16
-16
-16
0
0
192
832
752
448
80
48
-32
-112
-192
-240
-304
-352
-464
-576
-192
-16
-16
-16
0
0
176
816
768
496
96
64
-32
-112
-192
-256
-304
-352
-464
-592
-224
-16
0
-16
-16
-16
144
816
784
512
96
64
-16
-112
-208
-256
-320
-368
-464
-592
-240
-16
0
0
0
-16
128
784
800
528
112
64
-32
-112
-192
-256
-320
-368
-464
-592
-256
-16
0
0
0
0
96
736
784
528
128
64
-16
-96
-176
-240
-288
-336
-432
-576
-288
-16
-16
-16
-16
0
80
704
800
544
144
64
0
-80
-176
-224
-288
-320
-416
-576
-320
-16
0
0
0
0
64
656
800
560
160
80
0
-80
-160
-224
-304
-368
-448
-592
-352
-16
-16
-16
-16
-16
48
624
800
576
176
80
16
-64
-160
-224
-288
-336
-416
-592
-384
-32
-16
-16
-16
-16
32
592
816
592
192
80
16
-64
-160
-224
-304
-368
-432
-592
-416
-32
-16
-16
0
0
32
560
848
608
208
80
16
-48
-144
-208
-272
-320
-400
-560
-432
-32
-16
-16
0
-16
16
528
880
640
240
80
16
-64
-144
-208
-240
-272
-352
-512
-432
-48
0
0
0
-16
16
512
896
672
256
80
32
-64
-144
-208
-240
-272
-352
-496
-448
-48
0
-16
-16
-16
0
464
896
672
288
80
32
-48
-128
-208
-240
-256
-320
-464
-448
-64
-16
-16
0
-16
0
416
864
672
304
80
48
-48
-128
-192
-240
-288
-352
-496
-496
-80
-16
-16
0
-16
0
384
880
672
336
80
48
-32
-112
-192
-256
-304
-352
-496
-496
-96
-16
-16
0
0
0
352
896
704
352
64
48
-32
-128
-192
-256
-320
-368
-496
-512
-96
-16
-16
-16
-16
0
304
864
704
368
80
48
-48
-128
-208
-240
-288
-352
-480
-544
-128
-16
0
-16
0
0
256
864
720
400
80
64
-32
-112
-208
-256
-304
-352
-464
-544
-144
-16
-16
-16
0
0
224
864
736
432
80
48
-32
-112
-192
-256
-304
-352
-464
-544
-160
-16
0
0
-16
0
192
832
752
464
96
64
-16
-96
-192
-240
-288
-336
-464
-576
-192
-16
-16
-16
-16
0
176
832
768
480
96
64
-16
-96
-192
-240
-304
-352
-448
-560
-208
-16
-16
0
0
0
144
784
768
496
112
80
0
-80
-176
-240
-304
-336
-448
-576
-240
-16
-16
-16
0
-16
112
768
784
512
112
80
0
-80
-176
-240
-304
-352
-432
-576
-256
-16
-16
-16
-16
-16
96
736
784
528
128
64
0
-96
-176
-240
-304
-336
-432
-560
-288
-16
0
0
-16
-16
80
704
800
544
128
64
-16
-80
-176
-240
-304
-352
-416
-560
-304
-16
0
-16
-16
0
64
672
800
544
144
64
0
-80
-160
-224
-288
-320
-400
-544
-320
-16
0
0
0
0
48
640
816
576
160
64
16
-64
-160
-224
-272
-320
-400
-544
-352
-16
-16
-16
-16
0
32
608
832
592
192
80
16
-64
-144
-208
-272
-304
-384
-528
-368
-32
-16
-16
0
0
32
560
848
624
208
80
32
-48
-144
-208
-256
-304
-384
-544
-384
-32
-16
-16
-16
-16
16
528
880
656
240
80
16
-48
-144
-208
-272
-320
-384
-528
-416
-48
-16
0
0
0
16
480
864
640
240
64
16
-64
-144
-208
-272
-320
-368
-512
-432
-48
-16
-16
0
-16
0
448
864
656
272
64
32
-64
-144
-208
-272
-304
-352
-496
-448
-64
-16
0
-16
-16
0
400
848
656
288
80
32
-48
-128
-192
-256
-304
-384
-528
-496
-80
0
0
-16
-16
0
368
864
688
320
64
32
-48
-128
-208
-272
-320
-384
-528
-512
-80
0
-16
0
0
0
336
864
688
352
64
48
-48
-128
-208
-272
-336
-400
-528
-544
-96
0
0
0
0
0
304
880
720
384
64
32
-48
-128
-208
-272
-320
-384
-496
-560
-128
0
0
0
-16
0
272
880
720
400
64
48
-48
-128
-208
-256
-304
-352
-480
-544
-144
-16
0
0
0
0
224
864
736
432
80
48
-48
-128
-192
-240
-304
-352
-464
-560
-160
-16
0
0
0
0
208
848
752
448
80
64
-32
-128
-208
-256
-304
-352
-464
-560
-176
-16
-16
0
0
0
176
832
752
480
96
64
-32
-112
-192
-256
-304
-352
-448
-576
-208
-16
-16
0
-16
-16
144
800
768
496
112
64
-16
-96
-192
-240
-304
-336
-448
-592
-240
-16
-16
-16
-16
-16
112
784
800
528
112
64
-16
-96
-192
-240
-288
-336
-432
-576
-256
-16
-16
-16
-16
0
96
736
800
544
128
80
0
-80
-176
-224
-288
-336
-432
-576
-272
-16
-16
-16
0
0
80
720
816
560
144
80
0
-80
-176
-224
-288
-336
-432
-576
-304
-16
-16
-16
0
0
64
688
832
576
160
64
0
-80
-176
-224
-288
-336
-416
-560
-320
-16
-16
-16
0
-16
48
640
832
576
160
64
0
-80
-160
-224
-288
-320
-400
-560
-352
-16
-16
0
0
-16
32
608
848
592
176
64
0
-80
-160
-224
-272
-320
-384
-544
-368
-32
0
0
-16
-16
32
560
864
624
208
64
16
-64
-144
-224
-272
-320
-384
-544
-400
-32
-16
-16
-16
-16
16
528
864
640
240
80
16
-64
-144
-208
-272
-320
-384
-544
-416
-48
0
-16
-16
0
16
496
880
640
256
64
16
-64
-144
-208
-272
-320
-384
-528
-432
-48
0
-16
-16
0
0
432
864
640
272
80
32
-48
-144
-208
-272
-320
-384
-528
-464
-64
0
-16
0
0
0
384
848
656
288
80
32
-48
-144
-208
-272
-336
-384
-512
-480
-80
0
0
0
0
0
352
848
672
304
80
32
-48
-128
-208
-272
-320
-368
-496
-480
-80
0
0
-16
-16
0
320
848
672
320
64
48
-48
-128
-208
-272
-320
-384
-496
-496
-96
-16
-16
-16
0
0
288
832
688
352
80
48
-48
-128
-192
-256
-320
-368
-496
-528
-112
-16
-16
0
0
0
256
832
704
384
80
64
-32
-112
-192
-256
-304
-368
-496
-576
-144
-16
-16
-16
-16
0
224
848
736
432
80
64
-32
-128
-208
-256
-304
-352
-464
-560
-144
-16
0
0
0
-16
192
832
720
432
80
64
-16
-96
-192
-256
-304
-352
-448
-560
-160
-16
0
0
0
-16
176
832
768
480
80
48
-32
-112
-192
-240
-288
-336
-432
-560
-192
-16
-16
-16
-16
0
144
800
768
496
80
48
-16
-96
-176
-240
-272
-304
-416
-544
-208
-16
-16
-16
0
0
112
768
768
496
96
64
-16
-80
-160
-224
-272
-336
-416
-560
-240
-16
-16
-16
-16
-16
96
736
800
544
128
80
0
-80
-160
-224
-288
-336
-432
-592
-288
-16
-16
-16
0
-16
80
720
832
576
144
80
0
-80
-176
-224
-304
-336
-432
-576
-304
-16
0
0
0
0
64
688
832
576
160
80
16
-80
-160
-224
-304
-352
-448
-592
-336
-16
0
0
0
-16
48
672
880
608
176
64
0
-80
-176
-224
-288
-320
-416
-576
-352
-16
0
0
0
0
32
608
848
608
192
80
16
-80
-160
-224
-288
-352
-432
-576
-384
-32
0
0
-16
-16
32
560
848
608
208
80
16
-64
-160
-224
-288
-336
-416
-592
-416
-32
0
-16
-16
-16
16
528
880
656
240
80
16
-80
-176
-240
-288
-336
-400
-576
-432
-48
0
-16
-16
-16
16
496
880
656
240
64
16
-80
-176
-240
-288
-336
-400
-544
-448
-48
0
0
-16
-16
0
464
912
672
272
64
16
-64
-160
-224
-288
-304
-384
-512
-464
-64
0
-16
-16
-16
0
400
880
672
288
64
32
-48
-144
-224
-288
-336
-400
-528
-496
-64
-16
0
0
-16
0
368
864
656
320
64
32
-32
-128
-208
-272
-336
-400
-528
-512
-80
0
0
0
0
0
320
848
672
336
80
48
-32
-112
-192
-256
-320
-384
-512
-528
-96
0
0
0
-16
0
288
848
704
384
80
64
-32
-112
-192
-256
-304
-368
-496
-544
-112
0
-16
-16
0
0
256
864
736
400
80
64
-32
-112
-192
-240
-288
-352
-464
-544
-128
-16
0
0
0
0
224
832
736
416
96
80
-16
-112
-192
-240
-304
-352
-464
-560
-160
-16
-16
-16
-16
0
192
848
752
432
80
64
-16
-96
-192
-240
-304
-336
-464
-544
-176
-16
-16
0
0
0
160
800
736
448
96
64
-16
-96
-176
-240
-304
-352
-464
-576
-192
-16
-16
0
0
-16
128
784
768
480
96
64
-16
-96
-192
-240
-288
-336
-432
-560
-224
-16
0
-16
0
-16
112
752
784
512
112
64
-16
-96
-176
-240
-288
-336
-432
-560
-240
-16
-16
-16
0
0
96
720
784
512
112
64
-16
-96
-176
-224
-288
-336
-432
-576
-272
-16
0
-16
-16
0
80
704
800
528
128
64
-16
-96
-192
-240
-304
-336
-416
-560
-304
-16
0
-16
-16
0
64
656
800
544
144
80
0
-80
-160
-224
-288
-336
-432
-592
-336
-16
-16
-16
-16
0
48
640
848
576
160
64
0
-96
-176
-224
-288
-336
-416
-576
-368
-16
0
-16
0
-16
32
592
832
592
192
80
16
-64
-160
-224
-288
-336
-416
-560
-384
-32
0
0
0
-16
32
576
864
624
208
80
16
-64
-160
-208
-272
-320
-400
-560
-400
-32
0
0
-16
0
16
528
864
640
224
80
16
-64
-160
-224
-272
-320
-384
-528
-416
-48
-16
-16
0
0
16
480
880
656
240
64
16
-64
-160
-224
-272
-304
-384
-512
-432
-48
-16
-16
-16
-16
0
464
896
672
256
64
16
-64
-144
-208
-256
-304
-368
-496
-432
-64
-16
-16
0
-16
0
416
880
672
288
64
32
-48
-128
-192
-240
-288
-352
-496
-480
-64
0
-16
-16
-16
0
368
880
688
320
80
48
-48
-128
-208
-256
-304
-352
-496
-496
-80
0
-16
-16
-16
0
336
880
704
352
80
64
-16
-128
-208
-256
-320
-368
-496
-512
-96
-16
-16
0
0
0
288
880
720
384
96
64
-32
-128
-208
-256
-304
-368
-496
-528
-112
-16
0
0
-16
0
256
864
720
400
80
64
-16
-112
-192
-256
-304
-352
-464
-528
-128
-16
0
0
-16
0
224
848
736
432
80
64
-16
-96
-176
-240
-288
-336
-464
-560
-160
-16
0
-16
-16
0
192
832
752
464
112
80
0
-96
-192
-240
-304
-352
-480
-592
-176
-16
0
-16
-16
-16
160
832
784
480
112
80
-16
-96
-192
-240
-304
-352
-464
-576
-208
-16
-16
-16
0
-16
144
816
800
512
112
80
-16
-96
-192
-240
-304
-352
-448
-576
-224
-16
-16
-16
0
0
112
800
816
512
112
64
-16
-96
-192
-240
-304
-336
-432
-560
-240
-16
0
0
0
0
96
736
784
512
112
64
-16
-96
-176
-240
-288
-320
-416
-560
-272
-16
0
0
0
0
80
704
816
544
112
48
-16
-96
-192
-240
-304
-336
-416
-560
-288
-16
-16
-16
-16
0
48
656
816
576
144
80
0
-96
-176
-240
-304
-336
-432
-576
-336
-16
-16
-16
-16
-16
48
640
848
608
160
64
0
-96
-176
-240
-304
-352
-432
-576
-368
-32
-16
-16
-16
0
32
608
880
624
176
64
0
-80
-160
-240
-304
-368
-432
-576
-384
-32
0
-16
-16
0
16
576
880
624
208
64
16
-80
-160
-224
-288
-336
-416
-544
-400
-32
-16
0
-16
-16
16
528
880
640
224
64
16
-48
-144
-224
-272
-320
-384
-528
-400
-48
0
0
-16
-16
0
464
880
656
256
80
32
-48
-144
-208
-272
-304
-384
-528
-432
-48
0
0
0
0
0
416
864
672
272
80
32
-48
-128
-208
-256
-304
-368
-512
-448
-64
-16
-16
-16
-16
0
384
848
656
288
80
48
-48
-128
-208
-256
-304
-384
-528
-480
-80
0
0
0
0
0
352
864
672
320
80
48
-48
-128
-208
-272
-352
-416
-544
-512
-96
-16
-16
0
-16
0
320
864
688
336
80
48
-32
-112
-192
-272
-336
-384
-528
-528
-112
-16
0
-16
-16
0
288
880
720
368
64
48
-32
-112
-192
-256
-320
-368
-496
-528
-112
-16
-16
-16
-16
0
256
864
736
400
64
48
-32
-112
-192
-256
-304
-352
-480
-528
-128
0
0
-16
0
0
224
848
736
416
64
48
-32
-112
-192
-240
-304
-352
-464
-528
-144
-16
0
0
0
0
176
816
720
432
80
64
-32
-112
-176
-240
-320
-368
-464
-560
-176
-16
0
0
0
-16
160
800
752
464
96
64
-16
-96
-176
-240
-304
-368
-480
-592
-208
-16
-16
0
0
0
128
816
800
496
96
64
-32
-112
-192
-240
-304
-352
-464
-592
-240
-16
-16
0
0
-16
112
768
816
544
112
80
0
-96
-192
-240
-288
-336
-432
-576
-256
-16
-16
0
-16
-16
96
768
864
560
112
64
-16
-96
-192
-240
-288
-336
-416
-560
-272
-16
-16
0
0
0
64
720
848
560
128
48
-16
-96
-192
-240
-288
-320
-400
-544
-288
-16
0
-16
-16
0
48
656
848
576
144
64
0
-80
-176
-224
-272
-320
-416
-576
-320
-16
0
0
-16
0
48
640
864
608
176
80
16
-80
-160
-224
-288
-336
-416
-576
-368
-16
-16
0
-16
-16
32
608
896
640
208
80
16
-80
-160
-224
-288
-336
-416
-576
-384
-32
0
-16
-16
-16
16
576
912
672
240
80
32
-80
-176
-240
-304
-352
-416
-576
-416
-32
-16
-16
-16
-16
16
528
912
672
256
80
32
-64
-160
-240
-288
-336
-400
-544
-432
-48
-16
-16
0
-16
0
496
928
688
272
64
16
-64
-160
-224
-288
-336
-400
-544
-464
-48
0
-16
-16
0
0
432
896
688
304
96
48
-32
-144
-208
-272
-320
-384
-528
-480
-64
-16
-16
0
-16
0
384
896
704
320
96
48
-32
-128
-208
-256
-304
-368
-512
-496
-80
0
0
-16
-16
0
336
896
704
352
96
64
-16
-112
-208
-256
-304
-368
-496
-512
-96
0
-16
0
0
0
304
896
736
384
96
64
-16
-112
-208
-256
-304
-368
-496
-528
-112
0
0
0
-16
0
272
896
736
400
80
64
-32
-112
-208
-256
-304
-368
-496
-544
-128
0
0
0
0
0
240
880
752
432
96
64
-32
-112
-208
-272
-336
-384
-496
-560
-144
-16
-16
0
0
0
192
848
752
448
80
64
-32
-112
-208
-272
-336
-384
-496
-576
-160
-16
0
0
0
0
160
816
768
480
80
64
-16
-112
-208
-256
-320
-368
-480
-576
-192
-16
-16
0
0
-16
144
800
784
496
96
64
-16
-112
-192
-256
-304
-352
-464
-576
-208
-16
0
-16
-16
-16
112
768
800
512
96
64
-16
-96
-192
-240
-304
-352
-448
-592
-240
-16
-16
0
-16
-16
96
752
816
528
112
80
0
-80
-176
-240
-320
-352
-464
-592
-272
-16
0
-16
-16
0
80
720
832
544
128
80
0
-64
-160
-240
-320
-368
-464
-592
-288
-16
0
0
-16
0
64
688
848
576
144
64
16
-64
-160
-224
-304
-352
-448
-576
-320
-16
-16
-16
-16
0
48
656
864
592
160
80
16
-80
-160
-224
-288
-336
-416
-560
-336
-16
0
0
-16
0
32
608
880
624
176
80
16
-64
-160
-208
-272
-320
-400
-544
-368
-32
-16
-16
0
0
16
560
880
640
208
80
32
-64
-144
-208
-272
-304
-384
-544
-400
-32
-16
0
0
0
16
528
896
640
224
80
32
-48
-144
-208
-272
-320
-384
-544
-416
-32
-16
0
0
-16
16
480
912
672
256
80
32
-64
-144
-208
-272
-304
-384
-528
-432
-48
-16
-16
-16
0
0
448
896
688
272
80
32
-64
-144
-208
-272
-320
-384
-528
-464
-64
0
0
0
0
0
400
896
704
304
80
32
-48
-144
-208
-256
-304
-368
-512
-480
-64
0
-16
-16
-16
0
352
896
720
336
80
48
-48
-144
-208
-272
-320
-384
-528
-512
-80
0
0
0
-16
0
320
896
720
352
80
48
-32
-128
-208
-272
-336
-384
-528
-528
-96
0
0
-16
-16
0
288
896
736
384
80
48
-48
-128
-208
-272
-320
-384
-512
-544
-112
-16
-16
-16
0
0
256
880
768
416
80
48
-32
-128
-208
-256
-320
-368
-496
-560
-144
-16
0
-16
0
0
208
864
768
448
80
48
-32
-128
-208
-256
-304
-352
-480
-576
-160
-16
-16
0
0
0
176
848
784
464
80
64
-32
-128
-208
-256
-304
-368
-464
-576
-176
-16
0
0
-16
-16
160
832
800
496
96
64
-32
-128
-208
-272
-304
-352
-464
-576
-192
-16
0
0
0
0
128
800
800
512
96
64
-16
-112
-208
-272
-336
-384
-464
-576
-224
-16
-16
0
-16
0
112
784
816
544
112
64
-16
-96
-192
-256
-320
-352
-432
-560
-240
-16
-16
-16
0
-16
80
736
816
544
128
80
0
-96
-192
-256
-304
-352
-432
-576
-272
-16
-16
-16
0
0
64
720
832
560
128
64
0
-80
-176
-240
-288
-336
-416
-560
-288
-16
0
-16
-16
-16
48
656
848
576
160
80
16
-64
-160
-224
-304
-352
-448
-592
-336
-16
0
0
-16
-16
32
640
880
608
176
80
16
-64
-160
-224
-304
-336
-416
-576
-352
-16
0
0
-16
-16
32
576
864
608
192
80
32
-64
-160
-224
-288
-320
-400
-544
-368
-32
-16
0
-16
-16
16
528
864
624
208
64
16
-64
-144
-224
-272
-320
-400
-544
-400
-32
-16
0
0
-16
16
480
864
640
240
80
32
-48
-144
-208
-272
-304
-400
-544
-448
-48
0
0
0
0
0
464
896
672
272
80
48
-32
-128
-208
-288
-336
-416
-560
-464
-48
-16
-16
0
0
0
432
928
688
288
80
32
-48
-128
-208
-288
-336
-416
-560
-496
-64
0
0
0
0
0
384
928
704
320
80
48
-48
-128
-208
-288
-352
-416
-544
-512
-80
-16
-16
-16
-16
0
336
928
720
336
64
32
-48
-128
-208
-272
-336
-384
-528
-528
-96
-16
0
-16
-16
0
288
896
736
368
48
32
-64
-144
-208
-272
-320
-384
-512
-544
-112
-16
-16
0
-16
0
240
864
720
384
64
48
-48
-144
-208
-272
-336
-400
-512
-560
-128
-16
0
-16
0
0
224
864
752
416
64
48
-48
-128
-208
-256
-320
-384
-512
-576
-144
-16
0
0
0
-16
192
848
768
448
80
64
-48
-128
-208
-256
-336
-400
-496
-592
-176
-16
0
0
0
0
160
832
768
464
80
64
-16
-112
-192
-256
-304
-352
-480
-576
-192
-16
0
0
0
0
128
816
816
496
96
64
-32
-112
-192
-240
-304
-352
-448
-560
-208
-16
-16
-16
-16
0
112
768
816
512
112
80
-16
-96
-192
-240
-288
-336
-432
-576
-240
-16
-16
0
-16
-16
96
752
832
544
128
80
0
-96
-176
-224
-288
-352
-432
-560
-256
-16
-16
-16
-16
-16
64
704
832
560
144
80
0
-80
-160
-224
-272
-320
-416
-576
-288
-16
-16
0
0
0
48
656
848
592
160
80
16
-80
-160
-224
-272
-304
-400
-560
-320
-16
-16
0
-16
-16
48
624
848
624
176
96
32
-64
-160
-224
-272
-304
-384
-544
-336
-16
-16
-16
0
0
32
576
832
624
208
96
32
-64
-160
-224
-288
-320
-400
-560
-368
-32
0
0
0
0
16
544
880
640
224
96
32
-64
-160
-240
-288
-336
-416
-560
-400
-32
0
-16
0
0
16
512
896
656
240
80
32
-64
-160
-240
-288
-336
-400
-560
-416
-32
-16
0
-16
-16
0
496
928
688
256
64
16
-64
-176
-240
-288
-336
-400
-528
-416
-48
-16
-16
-16
-16
0
448
896
688
272
80
32
-64
-144
-224
-288
-336
-400
-544
-464
-64
0
0
-16
-16
0
384
880
688
288
64
32
-48
-144
-224
-288
-336
-400
-528
-480
-64
0
-16
-16
-16
0
336
864
688
320
64
32
-48
-144
-208
-272
-320
-400
-528
-512
-80
0
0
-16
0
0
304
880
720
352
80
48
-32
-128
-208
-272
-320
-384
-512
-528
-96
0
-16
-16
0
0
272
896
720
384
64
48
-32
-128
-224
-288
-336
-400
-512
-544
-112
0
-16
-16
0
0
240
864
736
400
80
64
-16
-112
-208
-272
-336
-400
-512
-576
-144
-16
0
0
0
0
208
864
752
432
64
48
-32
-112
-208
-272
-336
-400
-496
-576
-160
-16
-16
0
0
0
176
832
752
464
80
64
-16
-96
-192
-256
-320
-384
-496
-592
-192
-16
0
0
0
0
144
816
784
480
80
64
-16
-96
-176
-240
-304
-352
-464
-576
-208
-16
-16
-16
-16
0
128
800
800
512
96
64
-16
-80
-176
-240
-304
-352
-464
-592
-240
-16
-16
-16
0
-16
96
752
816
528
112
64
0
-80
-176
-224
-288
-336
-448
-592
-256
-16
-16
-16
-16
-16
80
720
816
544
128
64
-16
-96
-176
-240
-304
-352
-448
-576
-288
-16
-16
-16
-16
-16
64
704
832
560
128
48
-16
-96
-176
-224
-288
-336
-416
-560
-288
-16
0
0
-16
-16
48
656
848
576
144
48
-16
-96
-176
-224
-288
-336
-400
-560
-320
-16
0
0
-16
0
32
608
848
592
176
80
0
-80
-160
-224
-288
-320
-400
-544
-352
-32
0
0
0
-16
32
592
896
624
192
80
16
-64
-160
-224
-288
-336
-400
-560
-384
-32
0
-16
-16
0
16
544
896
656
224
64
0
-80
-160
-224
-288
-336
-416
-560
-416
-32
-16
-16
0
-16
16
512
912
656
224
48
0
-80
-176
-240
-288
-336
-416
-560
-432
-48
-16
-16
-16
0
0
448
912
688
256
64
0
-80
-160
-240
-288
-336
-400
-544
-448
-48
-16
-16
0
0
0
400
896
704
288
64
16
-64
-160
-224
-272
-320
-384
-528
-464
-64
-16
-16
0
-16
0
352
880
704
320
80
48
-48
-144
-224
-272
-320
-384
-528
-512
-80
0
-16
-16
-16
0
320
912
736
368
80
64
-32
-128
-208
-272
-320
-384
-528
-528
-96
0
-16
-16
-16
0
288
896
752
400
96
64
-32
-128
-208
-256
-304
-368
-512
-544
-112
0
0
0
0
0
256
880
768
416
96
80
-32
-128
-208
-256
-304
-368
-480
-544
-128
-16
-16
0
0
0
224
880
768
448
96
80
-16
-112
-208
-256
-304
-352
-464
-560
-144
-16
0
-16
0
0
176
848
768
448
96
80
-16
-112
-208
-256
-320
-368
-480
-560
-160
-16
0
-16
0
0
144
800
752
464
112
80
0
-96
-192
-256
-320
-368
-464
-560
-192
-16
-16
-16
-16
-16
128
784
784
496
112
80
-16
-96
-192
-256
-320
-368
-464
-560
-208
-16
-16
-16
-16
-16
96
720
752
512
128
80
0
-96
-192
-240
-304
-352
-432
-576
-240
-16
0
0
-16
-16
80
736
816
544
112
80
0
-96
-192
-256
-304
-352
-432
-576
-256
-16
-16
0
-16
-16
64
704
832
560
128
80
0
-80
-176
-240
-304
-352
-432
-576
-288
-16
0
0
-16
0
48
688
864
592
144
80
16
-64
-176
-240
-304
-352
-432
-576
-320
-16
0
0
0
0
48
624
832
576
160
80
16
-64
-160
-224
-288
-336
-416
-544
-336
-16
-16
-16
0
0
32
576
832
592
192
96
32
-48
-144
-224
-288
-320
-400
-544
-368
-32
0
0
0
-16
16
544
848
608
192
64
16
-64
-144
-224
-288
-336
-416
-544
-384
-32
0
-16
-16
-16
16
496
864
624
208
48
0
-64
-144
-224
-272
-320
-400
-544
-416
-32
0
-16
-16
0
0
464
880
656
224
48
16
-80
-160
-224
-304
-352
-432
-576
-448
-48
0
0
0
0
0
432
896
672
256
48
16
-64
-160
-240
-304
-352
-416
-560
-464
-64
-16
0
0
-16
0
400
912
688
288
64
32
-64
-144
-224
-288
-336
-416
-560
-496
-64
-16
-16
-16
-16
0
352
928
720
336
64
32
-64
-144
-208
-272
-336
-400
-528
-512
-80
-16
-16
-16
-16
0
320
912
736
352
64
32
-48
-128
-192
-256
-304
-368
-496
-528
-96
-16
-16
-16
0
0
272
912
752
400
64
48
-48
-128
-208
-256
-320
-368
-496
-528
-112
0
-16
0
0
0
224
880
752
416
64
48
-32
-112
-192
-256
-304
-352
-464
-528
-128
-16
0
-16
-16
-16
192
816
720
416
80
48
-32
-112
-192
-240
-320
-368
-464
-528
-144
-16
-16
-16
0
0
160
800
752
448
80
64
-32
-112
-192
-240
-304
-368
-480
-576
-176
-16
0
-16
-16
0
144
800
768
480
96
64
-16
-112
-192
-240
-304
-368
-464
-592
-208
-16
0
0
-16
0
112
784
800
512
112
80
0
-112
-192
-256
-336
-384
-480
-592
-224
-16
-16
-16
-16
0
96
784
848
544
112
80
-16
-96
-192
-256
-304
-352
-464
-592
-256
-16
0
0
0
-16
80
720
832
560
144
80
-16
-96
-192
-256
-320
-368
-448
-576
-272
-16
-16
-16
0
-16
64
672
832
560
144
80
-16
-96
-192
-240
-304
-336
-432
-576
-304
-16
0
-16
0
-16
48
656
848
592
160
64
-16
-96
-192
-240
-304
-352
-432
-576
-336
-16
0
-16
-16
-16
32
608
864
608
176
64
-16
-96
-192
-240
-288
-336
-416
-560
-352
-16
-16
-16
-16
0
32
560
864
624
192
80
16
-80
-176
-240
-288
-336
-400
-544
-368
-32
0
-16
-16
0
16
528
880
640
224
80
16
-64
-160
-224
-272
-320
-384
-544
-416
-32
-16
-16
0
0
16
480
880
672
256
80
32
-64
-160
-224
-288
-320
-384
-544
-432
-48
0
0
0
0
0
448
896
672
272
80
48
-48
-144
-224
-272
-320
-384
-528
-448
-48
0
0
0
0
0
416
896
688
288
80
32
-48
-144
-224
-272
-320
-384
-528
-464
-64
-16
0
0
-16
0
352
848
656
304
80
48
-32
-128
-208
-272
-336
-400
-528
-496
-80
-16
-16
-16
-16
0
320
864
688
336
80
48
-32
-128
-208
-272
-320
-384
-528
-512
-96
0
0
0
-16
0
288
880
720
368
80
64
-16
-112
-192
-256
-304
-384
-512
-544
-112
0
0
0
-16
0
256
880
736
384
80
64
-16
-112
-192
-256
-304
-368
-496
-560
-128
-16
0
-16
-16
0
224
864
752
416
80
64
-16
-112
-192
-256
-304
-368
-496
-560
-144
-16
-16
-16
-16
-16
192
864
768
432
80
64
-16
-112
-192
-256
-304
-368
-480
-576
-176
-16
-16
0
0
0
160
848
800
480
80
48
-16
-112
-192
-256
-320
-352
-464
-560
-176
-16
0
0
0
0
128
816
800
480
80
64
-16
-112
-192
-256
-320
-368
-448
-560
-208
-16
0
0
0
-16
112
784
800
496
96
64
-16
-112
-192
-240
-304
-352
-432
-528
-224
-16
0
0
0
-16
80
720
784
496
96
64
0
-80
-176
-224
-288
-320
-416
-528
-240
-16
0
-16
0
0
64
688
800
528
128
64
0
-80
-160
-208
-288
-336
-416
-560
-272
-16
-16
-16
-16
0
48
656
832
576
144
64
0
-80
-176
-224
-288
-320
-400
-544
-304
-16
-16
-16
-16
0
32
608
832
576
160
80
0
-80
-160
-224
-288
-336
-416
-560
-336
-16
-16
0
0
0
32
576
880
624
176
64
16
-64
-160
-224
-304
-352
-432
-576
-368
-32
0
0
-16
-16
16
544
864
640
208
80
16
-80
-176
-240
-288
-352
-416
-560
-384
-32
0
0
0
0
16
512
896
640
224
64
16
-64
-160
-224
-288
-336
-416
-544
-400
-32
0
0
0
-16
0
480
896
656
240
64
16
-64
-160
-224
-288
-320
-384
-512
-416
-48
-16
-16
0
0
0
416
864
656
272
80
32
-64
-160
-224
-272
-320
-384
-512
-432
-48
-16
-16
0
-16
0
384
880
688
288
64
32
-64
-144
-224
-272
-320
-384
-512
-464
-64
-16
-16
-16
0
0
336
864
688
320
80
32
-64
-144
-224
-272
-320
-384
-512
-480
-80
-16
-16
-16
-16
0
304
880
720
352
80
48
-48
-144
-224
-272
-336
-384
-512
-512
-96
-16
0
-16
0
0
272
864
720
368
80
48
-32
-128
-208
-256
-320
-384
-512
-544
-112
-16
0
-16
0
0
224
832
736
416
80
64
-32
-112
-208
-256
-320
-384
-512
-544
-128
-16
-16
-16
-16
0
208
816
736
432
96
64
-16
-112
-192
-240
-288
-352
-480
-560
-144
-16
0
-16
-16
0
176
816
752
464
96
80
-16
-112
-192
-240
-304
-368
-464
-560
-160
-16
0
0
-16
0
144
800
768
480
112
80
0
-96
-192
-240
-288
-336
-448
-560
-192
-16
0
0
-16
0
128
784
768
496
112
80
0
-96
-192
-240
-304
-352
-448
-560
-208
-16
0
0
0
-16
96
736
768
512
112
80
0
-80
-176
-240
-304
-336
-448
-576
-240
-16
0
0
0
-16
80
720
800
528
112
64
0
-80
-176
-240
-304
-352
-448
-576
-256
-16
0
-16
0
-16
64
688
800
544
128
64
-16
-80
-176
-240
-304
-352
-448
-576
-288
-16
-16
-16
-16
-16
48
656
816
560
128
64
0
-80
-176
-240
-304
-352
-432
-560
-304
-16
-16
-16
-16
-16
32
624
848
576
160
64
0
-80
-160
-224
-288
-336
-432
-560
-336
-16
0
-16
-16
-16
32
576
832
592
176
64
16
-80
-160
-224
-288
-336
-416
-560
-368
-32
0
0
-16
-16
16
544
864
608
192
64
16
-64
-144
-208
-272
-320
-400
-560
-400
-32
0
0
0
0
16
512
880
640
224
80
32
-48
-144
-224
-272
-320
-400
-544
-416
-48
-16
-16
0
0
0
480
912
656
240
64
16
-64
-144
-224
-288
-320
-400
-528
-416
-48
-16
0
0
0
0
416
864
656
256
64
16
-64
-144
-208
-256
-304
-368
-512
-448
-48
-16
-16
0
-16
0
368
880
672
288
64
32
-48
-128
-208
-256
-304
-368
-496
-464
-64
-16
-16
-16
-16
0
336
864
672
320
64
32
-48
-128
-208
-256
-304
-352
-496
-480
-80
-16
-16
-16
0
0
304
880
704
336
64
48
-32
-128
-208
-256
-304
-368
-496
-512
-96
-16
-16
-16
0
0
272
896
736
368
64
32
-48
-128
-208
-256
-320
-368
-480
-496
-112
0
0
0
0
0
224
832
704
384
64
48
-48
-128
-192
-256
-320
-368
-496
-544
-128
-16
0
-16
-16
0
192
816
720
400
64
48
-32
-128
-192
-256
-320
-368
-480
-544
-144
-16
0
0
-16
0
160
784
720
416
80
48
-32
-112
-192
-240
-304
-336
-448
-544
-160
-16
0
-16
0
0
144
784
768
464
96
80
-16
-96
-192
-240
-304
-352
-464
-576
-192
-16
0
-16
0
0
112
800
816
528
96
64
-16
-112
-192
-240
-288
-320
-432
-560
-208
-16
-16
0
0
-16
96
752
832
544
112
64
-16
-96
-192
-240
-304
-352
-448
-576
-240
-16
-16
-16
-16
0
80
736
832
560
128
64
-16
-96
-192
-256
-336
-384
-448
-592
-272
-16
0
0
-16
-16
64
672
832
560
128
64
-16
-96
-176
-240
-320
-352
-432
-576
-288
-16
0
0
-16
0
48
624
816
560
144
80
0
-80
-176
-240
-304
-368
-432
-576
-320
-16
0
-16
0
0
32
608
848
608
176
80
0
-96
-176
-224
-288
-336
-416
-560
-352
-16
-16
-16
-16
-16
32
560
848
608
192
80
16
-80
-176
-240
-288
-352
-416
-544
-352
-32
-16
-16
-16
-16
16
512
848
608
208
80
16
-80
-176
-240
-288
-336
-416
-544
-384
-32
-16
0
0
0
16
464
832
624
224
80
32
-64
-144
-224
-272
-320
-400
-544
-432
-48
-16
0
0
0
0
432
848
640
240
80
32
-64
-144
-224
-272
-320
-400
-544
-448
-48
0
-16
0
0
0
400
880
672
272
80
32
-48
-144
-208
-256
-288
-368
-528
-464
-64
0
-16
-16
-16
0
368
880
688
304
80
48
-48
-128
-208
-256
-304
-368
-512
-464
-64
0
-16
-16
-16
0
336
880
704
336
80
48
-32
-128
-208
-256
-304
-368
-496
-480
-80
0
-16
-16
-16
0
304
864
704
352
80
64
-16
-112
-192
-256
-304
-368
-480
-512
-96
-16
-16
0
-16
0
256
864
720
384
80
64
-32
-112
-192
-256
-320
-368
-496
-512
-112
-16
-16
-16
0
0
224
864
736
400
80
64
-32
-112
-192
-256
-304
-368
-480
-528
-128
-16
-16
0
0
0
192
848
736
416
80
48
-32
-112
-192
-240
-304
-352
-464
-544
-144
-16
0
-16
-16
0
160
832
752
448
80
48
-32
-112
-192
-256
-304
-368
-464
-560
-176
-16
0
0
0
0
128
784
752
448
80
64
-16
-112
-192
-240
-304
-352
-448
-560
-192
-16
0
0
0
-16
112
752
768
496
96
64
-16
-112
-192
-240
-304
-352
-464
-592
-224
-16
-16
-16
-16
-16
96
736
800
512
96
48
-32
-112
-192
-240
-304
-352
-432
-560
-240
-16
-16
-16
-16
0
64
704
816
544
112
64
-16
-96
-192
-240
-288
-336
-432
-576
-272
-16
0
-16
-16
-16
64
672
832
560
128
64
-16
-96
-176
-240
-288
-320
-416
-560
-304
-16
0
-16
0
-16
48
640
832
576
144
64
0
-80
-160
-224
-288
-320
-400
-544
-304
-16
0
-16
0
0
32
592
848
592
176
80
16
-80
-160
-224
-288
-320
-400
-544
-352
-16
0
0
0
0
16
560
864
608
192
80
16
-64
-160
-224
-288
-320
-400
-528
-352
-32
0
0
0
0
16
528
880
640
208
80
32
-64
-160
-224
-288
-336
-400
-544
-384
-32
0
0
-16
-16
16
480
880
656
240
80
32
-64
-144
-208
-272
-320
-400
-544
-432
-48
-16
0
-16
-16
0
448
896
672
272
96
48
-48
-144
-208
-272
-320
-400
-544
-432
-48
0
-16
-16
-16
0
400
880
688
272
80
32
-48
-144
-208
-256
-304
-384
-528
-464
-64
0
0
0
0
0
352
880
688
304
80
48
-48
-144
-208
-272
-320
-384
-512
-464
-80
0
0
0
0
0
320
864
688
320
80
48
-48
-128
-208
-272
-320
-368
-496
-480
-80
0
-16
0
0
0
288
864
688
336
64
48
-32
-128
-208
-256
-304
-368
-480
-496
-96
-16
-16
0
-16
0
240
832
720
384
80
48
-32
-128
-208
-256
-304
-368
-496
-544
-112
-16
-16
-16
0
0
208
832
720
400
80
48
-32
-128
-192
-256
-320
-368
-480
-544
-144
-16
0
-16
0
0
192
832
736
432
80
64
-16
-112
-192
-256
-320
-368
-480
-576
-160
-16
-16
-16
-16
-16
160
848
784
464
80
64
-32
-112
-192
-256
-304
-352
-464
-576
-176
-16
0
-16
0
0
144
832
800
496
96
64
-16
-112
-192
-256
-304
-352
-448
-560
-208
-16
0
-16
-16
-16
112
784
816
512
96
64
-16
-96
-192
-240
-320
-368
-464
-576
-224
-16
-16
-16
-16
0
80
736
816
512
112
64
-16
-96
-176
-240
-304
-352
-432
-560
-240
-16
-16
-16
-16
0
64
688
816
544
128
64
0
-96
-176
-224
-288
-336
-416
-560
-272
-16
-16
0
0
0
48
656
816
560
144
80
-16
-96
-176
-224
-272
-320
-400
-544
-288
-16
-16
-16
0
0
32
624
832
576
160
80
16
-80
-160
-224
-272
-320
-400
-560
-336
-16
0
0
0
-16
32
592
864
624
192
96
16
-80
-176
-240
-288
-336
-416
-560
-352
-32
0
0
-16
0
16
560
896
640
208
80
16
-64
-160
-224
-304
-352
-432
-576
-384
-32
0
0
-16
-16
16
528
896
656
224
80
16
-64
-160
-240
-304
-352
-416
-560
-416
-32
0
0
-16
-16
0
496
928
672
240
64
16
-64
-160
-240
-288
-336
-384
-512
-400
-48
-16
0
-16
0
0
432
880
656
256
80
32
-48
-144
-208
-272
-320
-368
-496
-416
-48
-16
-16
0
-16
0
384
864
672
288
80
32
-48
-128
-208
-256
-304
-368
-480
-448
-64
0
-16
0
0
0
336
864
688
320
96
64
-32
-128
-208
-256
-320
-384
-496
-464
-80
0
-16
0
-16
0
304
864
688
336
80
64
-32
-112
-192
-256
-320
-384
-496
-480
-80
-16
-16
-16
-16
0
272
864
720
368
80
64
-32
-112
-208
-272
-320
-384
-512
-528
-112
-16
-16
0
-16
0
240
864
736
384
64
48
-48
-128
-208
-272
-320
-384
-496
-528
-112
-16
0
0
0
0
192
816
736
416
64
48
-32
-128
-208
-272
-320
-400
-528
-592
-160
-16
0
0
0
0
176
816
768
448
64
48
-32
-128
-224
-272
-336
-400
-512
-592
-160
-16
0
0
0
0
144
800
768
448
64
48
-32
-128
-208
-272
-336
-400
-512
-592
-192
-16
0
0
0
0
128
784
784
496
80
48
-32
-128
-208
-256
-320
-384
-480
-592
-208
-16
0
-16
-16
-16
96
752
784
496
96
64
-16
-112
-192
-240
-304
-352
-448
-576
-240
-16
-16
-16
-16
-16
80
704
784
528
112
64
0
-96
-176
-224
-288
-320
-432
-560
-256
-16
0
-16
-16
-16
64
688
816
544
128
80
0
-80
-176
-240
-288
-336
-416
-560
-288
-16
-16
0
0
-16
48
672
832
560
144
64
0
-64
-160
-224
-288
-336
-416
-560
-304
-16
-16
-16
0
0
32
608
832
576
160
80
16
-64
-160
-224
-288
-336
-432
-576
-336
-16
-16
-16
-16
0
32
576
848
592
176
80
16
-64
-160
-224
-272
-336
-416
-560
-368
-32
-16
0
-16
-16
16
528
848
624
208
80
16
-64
-144
-208
-288
-336
-416
-560
-384
-32
-16
-16
-16
-16
16
496
864
640
224
80
16
-64
-160
-224
-272
-336
-400
-560
-416
-48
0
-16
0
-16
0
448
864
640
240
80
32
-48
-144
-224
-272
-336
-400
-544
-432
-48
0
0
0
0
0
416
896
672
256
80
32
-48
-144
-224
-272
-320
-384
-528
-464
-64
0
0
0
0
0
384
896
672
272
64
16
-64
-144
-208
-256
-304
-368
-496
-464
-64
0
0
-16
0
0
352
896
704
320
80
48
-48
-144
-224
-272
-320
-368
-496
-480
-80
0
0
-16
-16
0
304
880
704
336
80
48
-48
-144
-208
-256
-320
-368
-480
-496
-96
-16
-16
-16
0
0
256
848
720
368
80
64
-32
-128
-208
-256
-304
-368
-480
-528
-112
-16
-16
-16
-16
0
224
864
752
400
64
48
-48
-128
-208
-256
-304
-352
-464
-528
-128
-16
-16
-16
-16
0
192
848
752
432
80
64
-16
-112
-208
-256
-288
-352
-464
-560
-160
-16
-16
-16
-16
-16
176
864
800
464
80
64
-32
-128
-208
-256
-304
-352
-464
-544
-176
-16
0
-16
-16
-16
144
832
800
496
96
64
-16
-112
-208
-256
-320
-368
-464
-560
-192
-16
0
0
0
0
112
784
800
512
112
80
0
-96
-192
-256
-304
-352
-448
-560
-208
-16
-16
0
-16
-16
96
752
816
528
112
80
0
-96
-176
-240
-304
-352
-448
-560
-240
-16
0
0
0
0
80
720
832
560
128
80
16
-80
-176
-240
-304
-352
-432
-576
-272
-16
-16
0
-16
-16
64
672
832
576
144
80
16
-80
-176
-240
-304
-368
-432
-560
-288
-16
-16
-16
-16
-16
48
640
848
576
144
80
0
-80
-176
-240
-320
-368
-448
-576
-320
-16
-16
-16
-16
-16
32
608
864
608
160
64
0
-80
-176
-240
-288
-336
-416
-560
-336
-16
0
-16
-16
-16
16
560
864
608
176
64
0
-64
-160
-224
-288
-320
-416
-544
-368
-32
0
0
0
0
16
528
880
640
208
80
32
-64
-160
-224
-288
-320
-416
-560
-400
-32
0
0
-16
-16
16
496
896
672
240
80
32
-48
-144
-208
-272
-320
-400
-528
-416
-48
-16
0
0
0
0
432
880
656
256
96
48
-48
-128
-208
-272
-320
-400
-528
-448
-48
-16
0
0
0
0
400
896
672
288
80
32
-48
-128
-208
-272
-320
-384
-528
-464
-64
-16
-16
-16
-16
0
352
880
672
288
64
32
-48
-128
-208
-256
-320
-368
-512
-464
-80
-16
-16
-16
-16
0
304
864
704
320
64
32
-48
-144
-208
-272
-320
-384
-528
-512
-96
0
0
0
0
0
288
880
720
336
48
16
-64
-144
-224
-272
-336
-384
-512
-512
-96
-16
-16
0
0
0
240
848
704
368
48
32
-48
-128
-208
-256
-336
-384
-528
-560
-128
-16
0
0
0
0
208
880
768
432
64
48
-48
-144
-224
-272
-320
-384
-496
-560
-144
-16
-16
0
0
0
176
848
784
448
80
64
-32
-128
-208
-272
-320
-368
-496
-576
-160
-16
-16
-16
0
0
160
848
816
496
96
64
-32
-128
-208
-256
-304
-352
-464
-576
-192
-16
-16
-16
-16
-16
128
800
816
496
96
64
-16
-112
-192
-240
-304
-352
-448
-576
-208
-16
0
-16
-16
0
96
768
816
528
112
80
-16
-112
-192
-240
-288
-336
-448
-576
-240
-16
0
-16
-16
-16
80
736
832
560
128
80
0
-96
-192
-240
-288
-352
-432
-560
-256
-16
0
0
0
0
64
688
832
560
144
80
0
-96
-176
-240
-288
-336
-416
-560
-272
-16
0
0
-16
-16
48
672
848
576
144
80
0
-80
-176
-240
-304
-352
-432
-560
-304
-16
-16
0
0
0
32
624
848
608
176
80
16
-80
-176
-240
-304
-352
-416
-576
-336
-16
-16
-16
-16
-16
32
576
848
608
192
96
32
-64
-160
-240
-320
-384
-448
-592
-368
-32
0
0
-16
-16
16
544
880
640
208
96
32
-64
-176
-240
-304
-352
-432
-576
-384
-32
0
-16
0
-16
16
512
896
656
224
80
16
-64
-160
-224
-288
-320
-384
-528
-400
-32
0
-16
-16
-16
0
448
848
640
240
64
16
-48
-144
-224
-272
-304
-368
-512
-400
-48
-16
0
0
0
0
416
864
656
256
64
16
-64
-144
-208
-272
-304
-368
-496
-432
-48
-16
0
0
0
0
368
864
672
288
80
48
-32
-128
-208
-272
-336
-400
-528
-496
-80
0
0
0
0
0
336
880
704
320
80
48
-48
-144
-224
-288
-336
-400
-512
-512
-80
0
0
0
0
0
304
912
736
352
80
48
-32
-128
-208
-272
-336
-416
-528
-528
-96
0
-16
0
-16
0
272
896
752
384
80
48
-48
-128
-224
-272
-336
-384
-512
-544
-112
0
-16
-16
-16
0
224
848
736
416
80
64
-32
-112
-208
-256
-304
-368
-496
-560
-144
-16
-16
-16
-16
0
192
848
752
432
80
64
-32
-112
-192
-256
-320
-384
-496
-560
-144
-16
-16
-16
-16
-16
160
848
784
448
80
48
-32
-112
-192
-256
-320
-368
-480
-560
-176
-16
-16
-16
0
-16
128
800
752
464
80
48
-32
-112
-192
-256
-304
-352
-432
-528
-176
-16
0
0
0
0
112
768
784
496
96
64
-16
-96
-192
-240
-304
-352
-448
-560
-208
-16
-16
0
0
0
96
736
800
528
112
64
-16
-96
-176
-240
-304
-336
-432
-560
-224
-16
0
0
0
-16
64
688
800
544
128
80
0
-80
-176
-240
-304
-352
-464
-608
-288
-16
-16
0
-16
-16
64
704
864
576
128
64
-16
-96
-176
-240
-304
-352
-448
-592
-304
-16
0
0
0
-16
48
656
864
592
144
64
0
-96
-176
-240
-304
-352
-432
-576
-320
-16
-16
-16
0
0
32
608
880
608
160
64
0
-96
-176
-224
-288
-336
-416
-576
-352
-16
-16
0
0
0
16
560
880
624
176
64
0
-80
-160
-224
-272
-304
-400
-560
-384
-32
-16
-16
-16
-16
16
512
880
640
224
80
16
-64
-160
-224
-288
-336
-416
-576
-416
-32
-16
-16
-16
-16
0
464
880
656
256
96
48
-48
-144
-208
-288
-352
-416
-576
-432
-48
-16
-16
0
0
0
432
896
672
272
96
48
-48
-144
-208
-288
-352
-416
-560
-464
-48
0
-16
0
0
0
384
896
688
288
80
32
-64
-144
-224
-272
-336
-400
-528
-464
-64
-16
-16
0
0
0
352
896
704
304
80
32
-48
-144
-224
-272
-320
-384
-512
-480
-80
0
0
-16
-16
0
320
880
704
320
64
32
-64
-144
-224
-256
-304
-352
-480
-480
-80
0
0
-16
-16
0
272
832
704
368
80
48
-32
-144
-224
-272
-320
-368
-496
-528
-112
0
-16
-16
0
0
240
864
736
400
80
48
-48
-144
-224
-272
-320
-384
-496
-544
-128
-16
-16
0
0
0
208
864
768
432
80
64
-32
-128
-224
-272
-320
-384
-512
-576
-160
-16
0
-16
0
0
176
880
816
464
80
64
-32
-128
-224
-272
-320
-368
-480
-560
-160
-16
0
0
-16
-16
144
832
800
496
80
64
-16
-112
-208
-272
-320
-368
-464
-560
-176
-16
0
-16
-16
0
112
768
784
512
112
80
-16
-112
-208
-256
-320
-368
-464
-592
-224
-16
0
0
-16
-16
96
768
816
528
112
64
-16
-112
-192
-256
-336
-384
-464
-576
-240
-16
-16
-16
-16
-16
80
736
816
528
112
64
-16
-96
-192
-256
-304
-368
-448
-592
-272
-16
0
0
0
-16
64
704
832
576
144
80
0
-96
-176
-240
-304
-336
-432
-592
-304
-16
0
0
0
0
48
656
848
592
160
80
16
-64
-176
-240
-304
-352
-432
-576
-320
-16
-16
0
0
0
32
608
864
608
176
80
16
-64
-160
-224
-304
-336
-432
-576
-352
-16
-16
0
0
0
32
576
880
608
192
80
16
-64
-160
-224
-288
-336
-416
-560
-352
-32
-16
-16
0
-16
16
544
880
624
192
64
16
-64
-160
-224
-288
-320
-400
-528
-368
-32
-16
-16
-16
0
16
480
864
624
224
80
32
-64
-144
-208
-272
-320
-400
-528
-400
-48
0
-16
0
-16
0
448
880
656
256
96
48
-48
-144
-208
-272
-320
-400
-544
-448
-48
0
-16
0
-16
0
416
912
688
272
80
48
-48
-144
-208
-288
-352
-416
-544
-464
-64
-16
-16
-16
-16
0
384
944
720
304
80
32
-48
-144
-224
-288
-352
-416
-560
-512
-80
0
0
-16
-16
0
336
928
736
320
64
32
-64
-144
-224
-288
-336
-384
-528
-528
-96
-16
-16
-16
-16
0
288
912
752
368
64
32
-48
-144
-208
-272
-320
-384
-528
-544
-112
-16
-16
-16
-16
0
240
880
752
400
80
64
-32
-128
-208
-272
-320
-368
-512
-560
-128
-16
0
-16
-16
0
224
880
784
432
80
64
-32
-112
-208
-256
-320
-384
-512
-576
-144
-16
-16
0
0
0
192
880
800
464
80
64
-16
-128
-208
-256
-320
-384
-496
-576
-160
-16
0
0
0
-16
160
848
800
480
80
64
-32
-112
-208
-256
-304
-368
-464
-560
-192
-16
-16
0
0
-16
128
832
816
496
96
64
-16
-112
-192
-240
-304
-352
-448
-560
-208
-16
0
0
0
0
96
768
816
512
112
64
-16
-112
-192
-240
-304
-352
-448
-560
-240
-16
-16
-16
-16
0
80
720
832
544
128
80
0
-96
-192
-240
-304
-352
-448
-560
-256
-16
0
0
0
-16
64
688
832
560
144
80
0
-80
-176
-240
-304
-352
-448
-592
-304
-16
0
0
0
0
48
656
864
608
160
96
16
-80
-192
-240
-304
-352
-448
-608
-336
-16
0
0
0
0
32
640
896
624
176
80
16
-80
-192
-256
-304
-336
-432
-592
-352
-16
0
0
0
0
32
592
896
640
176
80
0
-80
-176
-240
-288
-336
-416
-560
-368
-32
-16
-16
-16
-16
16
544
912
640
192
64
16
-80
-176
-240
-304
-352
-400
-528
-368
-32
0
0
-16
-16
16
496
880
656
224
64
16
-80
-160
-224
-288
-336
-400
-528
-400
-48
-16
-16
-16
-16
0
432
880
672
272
96
48
-48
-144
-224
-272
-336
-400
-544
-464
-48
-16
0
0
-16
0
400
896
704
288
96
48
-48
-144
-224
-288
-352
-416
-560
-480
-64
-16
-16
-16
-16
0
368
928
720
320
96
48
-32
-144
-208
-272
-336
-416
-560
-496
-80
0
-16
-16
-16
0
336
912
720
352
96
64
-32
-128
-208
-272
-320
-384
-528
-512
-96
0
0
-16
-16
0
288
896
736
368
80
64
-16
-128
-208
-272
-320
-384
-512
-512
-96
-16
0
0
0
0
256
896
752
400
80
64
-32
-128
-208
-272
-304
-368
-496
-544
-128
-16
-16
-16
0
0
224
880
768
416
80
64
-32
-112
-208
-272
-320
-384
-496
-544
-144
-16
0
0
0
0
192
864
784
448
80
64
-32
-128
-208
-272
-336
-384
-496
-560
-160
-16
0
0
-16
0
160
832
784
464
80
48
-32
-112
-208
-272
-336
-400
-496
-560
-176
-16
0
-16
-16
-16
128
800
800
496
96
64
-16
-112
-208
-256
-320
-368
-480
-576
-208
-16
0
-16
-16
-16
112
800
832
528
96
64
-16
-112
-192
-256
-320
-352
-464
-576
-224
-16
-16
-16
-16
-16
80
752
848
544
112
80
0
-96
-192
-240
-320
-352
-464
-592
-272
-16
-16
0
0
0
64
720
880
576
128
64
-16
-96
-176
-240
-304
-352
-432
-576
-288
-16
-16
-16
-16
-16
48
656
848
576
144
80
16
-64
-160
-224
-320
-384
-464
-592
-320
-16
-16
0
-16
0
32
608
864
608
176
80
0
-80
-160
-224
-304
-352
-432
-576
-352
-16
0
-16
-16
-16
32
592
880
624
176
80
16
-64
-160
-224
-288
-336
-416
-560
-368
-32
0
0
-16
-16
16
528
880
656
208
80
16
-80
-160
-224
-288
-336
-416
-576
-400
-32
0
0
0
0
16
496
896
672
224
80
16
-80
-160
-224
-272
-336
-400
-544
-416
-32
0
0
0
0
0
448
912
688
256
80
32
-64
-144
-224
-288
-336
-400
-560
-448
-48
-16
0
-16
-16
0
416
912
704
288
80
32
-64
-144
-224
-288
-336
-400
-544
-464
-64
-16
-16
0
0
0
384
944
736
320
80
32
-48
-144
-224
-272
-320
-384
-528
-496
-80
-16
-16
-16
-16
0
336
912
736
352
80
48
-48
-144
-224
-288
-352
-400
-544
-512
-80
-16
-16
0
0
0
288
896
736
368
80
48
-64
-144
-224
-288
-352
-416
-528
-528
-96
-16
-16
0
-16
0
256
864
720
384
80
48
-48
-144
-224
-288
-352
-400
-512
-544
-112
-16
-16
-16
-16
0
224
864
736
400
64
48
-48
-144
-224
-272
-352
-400
-496
-528
-128
-16
0
0
0
0
176
800
720
416
64
48
-32
-128
-208
-256
-304
-352
-464
-544
-144
-16
0
-16
-16
-16
160
816
768
464
80
48
-32
-128
-208
-256
-304
-368
-464
-560
-176
-16
-16
-16
-16
-16
128
768
784
496
112
80
0
-112
-208
-256
-320
-384
-496
-608
-224
-16
0
-16
-16
0
112
784
816
528
112
80
-16
-112
-208
-272
-320
-384
-480
-608
-240
-16
0
-16
-16
-16
96
768
848
560
128
80
0
-96
-192
-256
-320
-368
-464
-592
-256
-16
0
0
0
0
64
704
848
576
128
80
0
-80
-176
-240
-288
-336
-448
-592
-304
-16
-16
0
0
0
48
688
880
608
144
64
0
-80
-176
-240
-288
-320
-416
-560
-304
-16
-16
-16
0
0
32
640
848
592
144
80
16
-64
-160
-224
-272
-320
-400
-544
-304
-16
-16
0
0
0
32
608
880
608
176
80
16
-64
-160
-240
-304
-352
-416
-544
-336
-16
0
-16
-16
0
16
544
864
608
192
80
32
-64
-160
-224
-288
-352
-432
-576
-400
-32
0
0
0
0
16
496
880
656
224
96
32
-64
-160
-224
-304
-352
-432
-576
-432
-32
0
0
0
0
0
464
928
672
240
80
32
-64
-144
-224
-288
-336
-432
-576
-464
-48
-16
0
0
-16
0
432
928
704
272
64
16
-80
-160
-224
-288
-320
-384
-528
-448
-48
-16
-16
-16
-16
0
384
896
688
272
64
16
-48
-144
-224
-288
-320
-384
-512
-464
-64
0
-16
0
-16
0
336
880
704
320
64
32
-48
-144
-208
-272
-320
-384
-528
-512
-80
0
-16
-16
0
0
288
896
736
368
80
64
-32
-128
-224
-288
-352
-400
-528
-544
-96
0
-16
-16
0
0
272
912
768
384
64
48
-48
-128
-208
-272
-352
-400
-528
-560
-112
-16
0
0
0
0
224
896
768
416
80
48
-48
-128
-208
-256
-336
-384
-496
-544
-128
-16
-16
0
0
0
192
848
768
432
80
48
-32
-112
-192
-240
-304
-352
-464
-528
-144
-16
-16
-16
-16
-16
160
816
768
464
96
64
-16
-112
-192
-240
-288
-336
-448
-544
-176
-16
-16
-16
0
0
128
816
800
496
96
64
-16
-112
-192
-240
-288
-336
-448
-576
-208
-16
0
0
0
-16
112
800
848
544
96
64
-16
-112
-208
-256
-288
-336
-448
-576
-224
-16
0
0
0
-16
96
768
848
544
96
64
-16
-112
-208
-256
-320
-384
-464
-592
-256
-16
-16
-16
0
-16
64
704
848
576
112
64
-32
-112
-208
-256
-320
-368
-464
-576
-272
-16
-16
-16
-16
-16
48
672
864
592
128
48
-16
-96
-192
-256
-320
-352
-432
-560
-304
-16
-16
-16
-16
-16
48
640
848
576
144
64
-16
-96
-176
-240
-304
-336
-416
-560
-320
-16
-16
0
-16
-16
32
608
896
640
176
64
0
-96
-176
-240
-304
-336
-432
-560
-352
-32
0
0
0
0
16
544
880
640
224
96
16
-80
-176
-240
-304
-352
-432
-576
-384
-32
0
0
0
0
16
512
896
672
240
96
32
-80
-160
-224
-304
-336
-416
-560
-400
-32
0
-16
0
-16
0
448
864
656
256
96
32
-48
-160
-224
-304
-352
-432
-560
-432
-48
-16
0
0
-16
0
416
896
672
272
80
32
-48
-144
-224
-272
-336
-400
-544
-448
-48
0
0
0
-16
0
384
880
688
304
96
48
-48
-144
-224
-272
-336
-400
-544
-496
-64
0
0
0
0
0
336
880
704
336
96
64
-32
-144
-224
-272
-336
-384
-512
-480
-80
0
0
-16
-16
0
304
896
720
352
80
48
-32
-128
-208
-256
-304
-368
-512
-512
-96
0
-16
0
0
0
272
880
736
384
96
64
-32
-128
-224
-272
-320
-368
-496
-528
-112
-16
-16
0
0
0
224
864
736
400
80
64
-32
-112
-208
-272
-320
-368
-496
-544
-128
-16
-16
0
0
0
192
864
768
432
80
64
-16
-112
-208
-272
-320
-384
-512
-576
-160
-16
-16
0
0
-16
160
848
784
448
80
64
-32
-112
-208
-256
-320
-368
-480
-560
-176
-16
-16
-16
-16
-16
128
800
784
480
96
64
-16
-96
-192
-256
-320
-384
-480
-576
-192
-16
0
-16
-16
-16
112
800
800
496
80
48
-16
-112
-192
-256
-320
-352
-448
-560
-208
-16
0
-16
0
0
96
720
784
512
112
80
0
-80
-176
-240
-304
-352
-448
-576
-240
-16
0
-16
0
0
80
720
848
544
112
64
-16
-96
-176
-240
-304
-352
-448
-592
-272
-16
-16
-16
0
0
64
688
848
560
128
64
-16
-96
-176
-240
-304
-352
-448
-576
-288
-16
0
-16
-16
-16
48
640
832
576
144
64
0
-96
-176
-224
-304
-368
-448
-592
-320
-16
-16
0
-16
-16
32
608
880
608
160
64
-16
-96
-176
-240
-304
-336
-416
-576
-352
-16
-16
0
-16
-16
16
544
848
608
192
80
16
-80
-160
-224
-288
-336
-416
-560
-384
-32
-16
0
0
-16
16
528
912
656
208
80
0
-80
-160
-224
-288
-336
-416
-576
-416
-32
-16
0
-16
-16
0
480
896
656
240
64
16
-64
-160
-224
-272
-320
-400
-544
-432
-48
-16
-16
0
0
0
432
880
656
256
64
32
-64
-144
-224
-272
-336
-384
-528
-432
-48
-16
-16
0
0
0
400
896
688
288
64
32
-48
-144
-224
-272
-320
-384
-544
-464
-64
-16
-16
0
0
0
352
896
704
304
80
32
-48
-144
-224
-272
-320
-384
-512
-480
-80
0
0
0
-16
0
304
880
704
336
80
48
-48
-144
-224
-272
-320
-384
-512
-512
-80
0
0
0
0
0
288
896
720
368
64
32
-48
-144
-224
-272
-336
-384
-512
-528
-96
-16
-16
0
0
0
240
864
720
384
48
32
-48
-144
-208
-256
-320
-368
-480
-512
-112
0
-16
-16
0
0
208
848
736
416
64
48
-32
-128
-208
-256
-320
-368
-496
-560
-144
-16
-16
-16
0
0
176
832
768
448
80
64
-32
-128
-208
-272
-336
-384
-480
-560
-160
-16
0
0
0
0
144
816
784
480
96
80
-16
-112
-208
-256
-336
-400
-480
-576
-192
-16
0
0
-16
-16
112
800
800
512
112
80
0
-96
-192
-240
-320
-368
-464
-576
-208
-16
0
0
-16
-16
96
768
816
528
128
80
0
-96
-176
-224
-288
-336
-432
-576
-240
-16
-16
-16
-16
-16
80
736
832
544
128
80
-16
-96
-192
-240
-304
-352
-432
-576
-256
-16
-16
-16
-16
-16
64
688
832
560
144
64
-16
-96
-192
-256
-304
-352
-432
-560
-272
-16
0
-16
-16
0
48
624
832
576
144
80
-16
-112
-192
-256
-320
-368
-432
-560
-304
-16
0
0
-16
-16
32
592
816
576
160
80
0
-80
-176
-256
-304
-352
-432
-576
-336
-16
0
0
0
0
32
560
864
608
176
64
0
-96
-176
-240
-288
-336
-416
-544
-352
-32
0
0
0
0
16
528
864
624
192
64
16
-64
-160
-224
-288
-304
-384
-512
-368
-32
-16
-16
0
-16
16
480
864
640
224
80
16
-64
-144
-224
-272
-320
-384
-512
-400
-32
-16
0
0
0
0
448
896
672
256
80
32
-48
-144
-208
-256
-304
-368
-512
-416
-48
-16
-16
-16
-16
0
384
848
656
288
112
64
-32
-128
-208
-272
-320
-400
-544
-448
-48
-16
-16
-16
0
0
368
880
688
288
80
48
-32
-128
-208
-272
-336
-416
-544
-480
-64
-16
-16
-16
0
0
336
880
704
320
80
48
-48
-128
-208
-272
-320
-400
-544
-496
-80
-16
-16
-16
-16
0
288
864
704
336
64
48
-48
-128
-208
-272
-336
-400
-512
-496
-96
-16
0
0
0
0
256
848
704
352
64
32
-48
-128
-208
-256
-304
-368
-496
-512
-112
0
0
0
-16
0
224
832
720
384
64
48
-48
-128
-208
-256
-288
-336
-464
-512
-112
-16
0
-16
0
0
176
800
704
416
80
64
-16
-112
-192
-240
-304
-368
-480
-560
-160
-16
-16
-16
-16
0
160
832
768
448
64
48
-32
-112
-192
-256
-304
-352
-480
-560
-160
-16
-16
-16
0
-16
144
800
768
464
64
48
-32
-112
-192
-256
-320
-368
-464
-576
-192
-16
0
0
0
-16
112
768
784
480
80
48
-32
-112
-192
-256
-320
-352
-448
-560
-208
-16
0
0
-16
-16
96
752
784
496
80
48
-16
-96
-192
-240
-288
-336
-432
-560
-240
-16
0
0
-16
-16
80
704
800
544
128
80
0
-96
-176
-240
-304
-352
-448
-592
-272
-16
-16
-16
-16
0
64
688
848
576
128
64
0
-96
-176
-224
-288
-336
-448
-592
-304
-16
-16
-16
0
0
48
656
864
592
160
80
0
-96
-176
-240
-304
-336
-416
-560
-320
-16
0
0
0
0
32
608
848
592
160
64
0
-80
-176
-224
-304
-336
-400
-544
-336
-16
0
0
0
-16
16
576
864
608
192
80
16
-64
-160
-224
-288
-336
-400
-528
-368
-32
0
0
0
-16
16
512
864
640
224
96
32
-64
-160
-224
-288
-336
-400
-544
-384
-32
-16
0
-16
-16
0
480
880
656
240
80
32
-64
-160
-224
-288
-320
-400
-544
-416
-48
-16
-16
-16
0
0
448
896
672
256
80
16
-64
-160
-240
-288
-320
-384
-512
-416
-48
0
-16
-16
-16
0
384
880
656
272
64
32
-64
-144
-224
-288
-320
-384
-512
-448
-64
0
0
0
-16
0
352
864
672
304
80
32
-48
-144
-208
-272
-336
-400
-528
-480
-64
0
0
0
0
0
304
864
704
336
80
48
-48
-144
-224
-272
-336
-400
-544
-512
-80
0
0
0
0
0
272
864
720
368
80
48
-32
-128
-224
-272
-336
-400
-512
-528
-96
-16
-16
-16
0
0
256
880
736
384
64
48
-48
-128
-224
-272
-336
-384
-496
-528
-112
-16
0
-16
-16
0
208
848
736
400
64
48
-32
-112
-208
-256
-320
-368
-464
-528
-128
-16
-16
-16
-16
-16
176
832
736
416
64
48
-16
-112
-192
-240
-304
-352
-432
-512
-144
-16
0
0
-16
-16
144
784
736
448
96
64
-16
-96
-176
-224
-288
-336
-448
-528
-176
-16
-16
0
-16
-16
128
784
768
480
96
80
0
-96
-176
-240
-304
-368
-448
-544
-192
-16
0
0
0
-16
96
752
784
496
112
80
-16
-96
-176
-240
-304
-352
-448
-544
-208
-16
-16
0
0
0
80
704
784
512
112
80
0
-80
-176
-240
-304
-368
-464
-576
-240
-16
0
0
0
0
64
688
816
528
112
64
-16
-96
-192
-240
-320
-368
-448
-576
-272
-16
-16
-16
0
0
48
624
784
528
128
48
-16
-96
-192
-240
-304
-352
-432
-560
-288
-16
-16
-16
-16
0
32
608
800
544
128
64
-16
-96
-176
-240
-288
-336
-416
-544
-304
-16
0
-16
-16
-16
32
576
816
576
144
64
0
-96
