-80
-144
-192
-192
-176
-112
-16
-176
-400
-304
560
640
528
368
320
288
272
192
112
16
-64
-128
-176
-192
-160
-64
48
-176
-432
-352
592
688
592
432
320
272
208
128
64
-16
-96
-176
-240
-288
-272
-144
-16
-192
-400
-400
512
720
640
480
336
256
192
144
112
64
-32
-144
-224
-272
-272
-192
-96
-144
-256
-304
368
624
544
368
224
160
144
112
96
32
-64
-144
-224
-272
-288
-272
-176
-80
-112
-192
288
592
528
368
240
192
176
128
96
16
-80
-144
-208
-288
-368
-400
-320
-96
-48
-144
192
512
496
384
272
240
224
160
96
32
-16
-64
-128
-240
-352
-384
-304
-64
-16
-128
128
416
448
368
272
208
160
64
0
-32
-80
-128
-208
-288
-384
-400
-320
-80
-32
-144
96
432
496
448
336
240
176
112
48
0
-80
-144
-224
-304
-384
-400
-336
-112
-32
-144
48
368
448
384
272
224
192
144
96
16
-80
-160
-208
-240
-288
-304
-272
-96
-32
-144
48
432
480
416
304
272
256
208
128
32
-80
-144
-160
-192
-240
-240
-192
-48
-16
-128
112
576
592
528
464
448
432
336
240
144
48
-32
-96
-144
-192
-192
-112
0
-16
-112
80
576
576
544
464
432
400
336
256
176
96
32
-48
-112
-160
-112
-16
64
16
-96
96
640
640
560
448
384
336
272
208
128
16
-112
-224
-288
-304
-240
-144
16
32
-80
48
528
544
432
288
224
208
176
144
64
-64
-192
-288
-352
-384
-368
-288
-64
32
-64
0
384
384
256
96
48
48
16
-16
-112
-208
-304
-368
-416
-464
-480
-400
-144
32
-48
-32
320
336
224
96
32
16
-32
-96
-176
-256
-336
-400
-480
-560
-592
-512
-192
32
-48
-64
256
320
256
128
64
16
-32
-80
-128
-176
-224
-304
-416
-512
-544
-464
-192
16
-48
-80
240
352
304
160
48
-16
-80
-96
-128
-176
-256
-320
-400
-480
-496
-432
-192
16
-32
-64
288
432
384
208
112
64
0
-32
-96
-176
-272
-352
-400
-464
-512
-496
-272
0
-48
-96
208
352
320
192
112
80
48
0
-80
-160
-240
-272
-304
-384
-464
-464
-288
-16
-48
-112
192
336
320
208
160
128
64
-16
-128
-208
-256
-304
-352
-416
-480
-464
-272
-16
-48
-112
176
336
368
304
256
224
144
48
-32
-112
-192
-272
-352
-432
-480
-448
-272
-16
-32
-128
112
288
336
256
208
176
144
80
0
-80
-176
-272
-352
-400
-416
-368
-224
0
-16
-96
160
320
352
256
192
176
144
96
32
-80
-224
-336
-400
-432
-448
-416
-272
-16
-16
-96
176
336
352
240
192
208
208
176
80
-48
-176
-272
-352
-400
-448
-432
-288
-32
-32
-96
192
336
320
224
208
208
208
144
64
-32
-144
-224
-320
-384
-432
-400
-256
-32
-32
-96
208
352
336
224
160
144
128
64
0
-80
-160
-256
-368
-464
-512
-464
-288
-48
-32
-112
208
368
368
256
176
128
112
80
48
0
-96
-224
-336
-416
-448
-416
-288
-64
-32
-112
192
384
368
208
80
32
16
16
-16
-64
-160
-256
-336
-384
-416
-384
-272
-64
-32
-112
256
480
432
272
144
96
80
32
-16
-96
-176
-240
-304
-352
-416
-416
-320
-96
-48
-128
240
496
464
336
224
176
160
96
32
-48
-96
-144
-192
-256
-336
-352
-256
-64
-48
-144
208
464
464
336
240
176
112
16
-48
-80
-128
-176
-224
-288
-352
-336
-240
-64
-32
-144
176
512
544
448
320
224
160
80
16
-48
-112
-192
-256
-320
-352
-320
-240
-80
-32
-128
128
448
496
384
256
192
160
96
48
-32
-112
-208
-240
-272
-272
-256
-192
-64
-32
-128
112
448
480
368
240
192
160
96
16
-96
-192
-256
-272
-304
-320
-320
-240
-64
-16
-112
96
448
464
384
304
288
272
192
80
-32
-128
-192
-256
-304
-352
-368
-272
-80
0
-112
32
336
384
336
256
224
208
144
80
0
-80
-160
-240
-304
-368
-368
-256
-48
16
-96
32
368
416
368
256
208
176
128
80
0
-80
-208
-320
-400
-448
-416
-320
-112
16
-64
16
368
432
368
240
192
176
176
144
80
-48
-192
-304
-384
-432
-432
-368
-144
16
-64
0
336
384
288
144
112
128
112
96
16
-80
-176
-272
-336
-400
-432
-384
-160
16
-48
16
384
416
336
208
176
160
128
64
-16
-96
-176
-256
-352
-464
-512
-464
-208
16
-48
-16
336
400
352
240
192
176
112
64
32
-16
-80
-176
-304
-416
-464
-416
-208
16
-48
-48
304
400
368
240
144
96
32
16
-16
-80
-160
-240
-336
-416
-432
-384
-192
0
-48
-32
352
464
432
288
192
128
80
32
-32
-96
-192
-288
-352
-416
-432
-416
-256
-16
-48
-64
304
416
384
256
192
160
112
64
-16
-112
-176
-224
-256
-304
-368
-368
-224
-16
-48
-64
304
400
368
256
192
176
96
16
-96
-176
-224
-256
-288
-352
-384
-352
-208
-16
-48
-64
304
416
416
336
288
256
160
64
-32
-112
-176
-240
-288
-352
-384
-336
-192
-16
-48
-96
240
384
400
304
240
208
144
80
16
-64
-160
-240
-304
-336
-320
-240
-112
0
-48
-80
304
416
416
304
224
176
144
96
16
-96
-224
-320
-384
-384
-368
-304
-160
-16
-64
-96
320
448
432
304
240
240
224
176
80
-48
-160
-256
-320
-352
-368
-336
-192
-32
-64
-112
288
416
368
240
208
208
192
128
48
-48
-128
-208
-272
-336
-368
-320
-176
-16
-48
-112
304
448
416
288
224
192
160
96
32
-32
-112
-192
-304
-400
-448
-384
-224
-32
-48
-112
288
464
448
320
240
192
160
128
96
48
-32
-144
-256
-352
-400
-352
-224
-48
-48
-112
256
448
432
288
160
96
96
80
48
0
-96
-192
-272
-336
-384
-352
-256
-48
-32
-128
288
512
464
320
208
160
144
96
48
-32
-128
-224
-288
-368
-432
-448
-352
-96
-32
-128
224
464
448
320
224
192
160
112
64
0
-48
-112
-176
-256
-368
-400
-320
-80
0
-96
144
384
400
304
224
176
144
64
0
-32
-80
-144
-224
-304
-400
-400
-320
-64
0
-112
112
400
448
400
304
224
176
112
64
0
-64
-144
-224
-304
-384
-384
-320
-96
0
-96
64
336
416
352
256
208
192
128
80
0
-96
-176
-240
-288
-320
-320
-272
-96
-16
-128
80
368
416
320
224
192
160
112
16
-96
-224
-288
-304
-336
-384
-384
-304
-112
-32
-128
80
400
432
352
272
256
240
160
48
-64
-176
-256
-320
-368
-416
-416
-336
-128
-32
-128
32
320
368
320
240
224
192
128
48
-48
-128
-192
-272
-336
-400
-384
-272
-80
-16
-112
48
368
400
336
240
176
144
96
48
-32
-112
-224
-336
-416
-448
-400
-320
-112
-16
-96
48
400
448
368
240
192
192
176
144
64
-48
-176
-272
-352
-400
-384
-320
-128
-16
-96
32
384
400
288
144
112
128
112
80
16
-80
-160
-240
-288
-352
-384
-320
-144
0
-80
48
464
448
352
208
160
144
112
64
-16
-96
-176
-240
-320
-416
-448
-384
-160
-16
-80
16
432
464
400
272
224
176
128
64
32
-16
-64
-144
-256
-352
-384
-336
-144
-16
-80
-16
384
448
400
256
160
96
16
0
-32
-80
-144
-208
-288
-352
-352
-288
-128
-16
-80
-16
432
512
480
304
208
144
80
48
-16
-80
-176
-240
-288
-336
-352
-336
-192
-32
-80
-48
368
448
416
272
192
160
112
64
-16
-96
-160
-192
-208
-256
-304
-304
-176
-16
-64
-64
336
416
384
256
192
160
96
16
-96
-176
-208
-240
-272
-320
-352
-320
-176
-16
-64
-64
320
416
432
336
304
272
176
80
-16
-96
-176
-240
-304
-368
-400
-352
-192
-16
-64
-96
224
352
384
288
240
208
160
80
16
-64
-160
-256
-320
-352
-336
-272
-128
0
-48
-96
272
400
400
272
208
176
144
96
16
-96
-224
-336
-384
-400
-384
-336
-192
-16
-48
-96
272
416
384
272
208
208
208
176
80
-48
-176
-272
-336
-384
-400
-368
-224
-32
-32
-96
240
352
336
208
160
160
160
112
48
-48
-144
-240
-304
-368
-400
-368
-208
-16
-32
-96
256
384
368
256
208
192
160
96
32
-48
-128
-224
-336
-432
-496
-432
-256
-32
-32
-112
240
400
400
304
224
192
160
128
96
48
-48
-176
-288
-384
-432
-384
-256
-32
-32
-112
224
400
400
272
160
112
96
80
64
0
-80
-176
-272
-336
-368
-352
-256
-48
-32
-96
272
496
464
320
208
160
128
96
48
-32
-112
-192
-256
-320
-400
-416
-336
-80
-32
-112
224
448
448
320
224
176
160
96
32
-48
-96
-128
-176
-256
-352
-384
-288
-80
-32
-128
192
416
432
320
240
192
128
32
-32
-96
-128
-176
-240
-320
-384
-384
-272
96
16
-80
-208
-272
-304
-336
-368
-352
-272
-80
-16
-112
112
416
432
336
272
256
240
176
64
-48
-144
-224
-288
-336
-384
-384
-288
-96
-16
-128
64
336
368
304
224
208
208
144
64
-16
-112
-176
-256
-336
-384
-368
-256
-64
0
-112
64
400
416
336
240
192
176
112
64
0
-96
-208
-320
-400
-448
-400
-288
-96
0
-96
64
400
432
352
224
176
176
160
144
80
-48
-176
-288
-368
-400
-400
-320
-112
-16
-112
32
384
400
288
144
96
128
112
80
16
-80
-176
-256
-320
-384
-400
-336
-128
0
-96
48
448
432
336
208
160
144
112
48
-16
-96
-176
-240
-336
-432
-480
-432
-176
-16
-96
0
384
432
368
240
192
160
112
64
16
-32
-80
-160
-272
-384
-416
-368
-160
0
-80
-16
368
432
384
256
160
96
32
0
-32
-80
-144
-224
-304
-368
-384
-336
-160
0
-64
-16
416
496
464
304
208
144
80
48
-16
-96
-192
-272
-336
-384
-400
-368
-208
-16
-80
-64
352
448
416
272
192
160
112
64
-16
-112
-176
-208
-240
-288
-336
-336
-192
-16
-80
-64
336
416
384
256
192
160
96
16
-96
-176
-240
-272
-320
-368
-384
-352
-192
-16
-64
-64
304
400
400
320
272
256
160
64
-32
-112
-192
-256
-320
-384
-416
-368
-208
-16
-48
-96
208
336
368
288
224
192
144
64
0
-80
-176
-272
-336
-368
-352
-272
-144
0
-48
-80
272
384
384
272
192
160
128
64
0
-112
-240
-352
-416
-416
-400
-336
-192
-16
-48
-96
288
416
400
272
208
208
192
160
64
-80
-192
-288
-336
-384
-416
-368
-224
-32
-48
-96
272
368
320
176
144
160
144
96
16
-80
-176
-256
-320
-384
-416
-368
-208
-16
-32
-96
288
416
368
240
176
160
128
64
0
-80
-160
-240
-336
-432
-480
-432
-240
-32
-48
-112
256
416
416
304
224
176
144
112
80
16
-64
-176
-288
-368
-416
-368
-240
-48
-32
-112
240
416
416
272
144
80
64
48
32
-32
-112
-208
-288
-352
-384
-352
-240
-48
-48
-112
288
480
464
304
192
144
128
80
32
-48
-144
-224
-288
-352
-416
-432
-336
-80
-32
-112
224
432
432
304
192
160
128
80
16
-64
-112
-160
-208
-288
-384
-400
-304
-80
-32
-112
176
384
400
288
208
160
96
0
-64
-112
-160
-208
-272
-336
-400
-384
-288
-64
-16
-128
160
416
464
400
304
224
160
80
16
-64
-128
-224
-304
-368
-400
-384
-288
-80
-16
-112
96
368
416
336
240
192
160
96
48
-32
-128
-224
-272
-304
-320
-304
-240
-64
-16
-112
112
384
416
320
208
176
160
112
32
-80
-208
-288
-304
-336
-368
-368
-288
-80
-16
-112
112
384
416
320
256
240
240
160
64
-32
-144
-224
-288
-336
-400
-400
-304
-96
0
-112
64
304
336
272
208
192
176
112
48
-32
-112
-192
-272
-336
-400
-384
-272
-64
0
-112
80
368
400
336
240
208
176
112
64
-16
-96
-224
-336
-432
-464
-416
-304
-96
0
-96
64
384
432
352
224
176
176
160
128
64
-48
-176
-288
-368
-432
-416
-336
-112
0
-96
64
384
416
304
160
112
128
112
80
16
-80
-176
-256
-320
-384
-400
-336
-144
0
-80
80
464
464
352
208
144
128
96
48
-32
-112
-192
-256
-336
-432
-480
-416
-176
0
-80
32
400
432
352
224
176
144
96
48
0
-48
-96
-160
-288
-384
-416
-368
-160
0
-80
0
368
432
384
256
160
112
48
0
-32
-80
-128
-208
-288
-368
-384
-336
-144
0
-64
0
416
496
480
320
208
144
96
48
-16
-96
-160
-240
-288
-352
-368
-352
-192
-16
-80
-32
368
464
432
288
208
176
128
80
0
-96
-160
-192
-224
-272
-320
-320
-176
-16
-64
-32
368
448
400
272
208
176
112
16
-80
-176
-224
-256
-288
-336
-352
-320
-176
-16
-64
-48
336
416
416
320
272
240
144
64
-32
-112
-192
-256
-304
-368
-400
-352
-192
-16
-64
-96
240
352
368
272
224
192
144
80
0
-80
-176
-256
-320
-352
-336
-272
-128
0
-48
-80
288
384
384
272
208
176
128
80
16
-96
-224
-336
-384
-400
-384
-320
-176
-16
-48
-80
304
416
400
272
208
208
192
160
80
-64
-176
-272
-320
-368
-384
-352
-208
-32
-48
-96
288
368
320
192
160
160
144
96
32
-64
-160
-240
-304
-368
-400
-368
-208
-16
-48
-80
288
400
368
240
176
160
128
64
0
-64
-160
-256
-352
-448
-496
-432
-256
-32
-32
-96
256
400
400
272
208
160
128
96
64
16
-64
-192
-304
-400
-448
-400
-256
-32
-32
-96
240
400
400
256
144
80
48
48
16
-48
-128
-224
-320
-368
-400
-384
-256
-48
-32
-96
288
480
480
304
192
128
112
64
16
-80
-160
-224
-288
-352
-416
-432
-336
-80
-32
-96
240
432
432
304
208
160
144
80
0
-80
-128
-160
-208
-272
-368
-384
-288
-80
-32
-128
208
400
416
304
224
160
96
0
-80
-128
-160
-208
-272
-336
-384
-384
-272
-64
-32
-128
192
416
464
384
304
224
144
64
0
-80
-144
-224
-288
-352
-384
-368
-272
-80
-32
-128
128
384
416
336
240
192
160
96
32
-32
-128
-224
-288
-304
-320
-288
-224
-64
-16
-112
144
384
416
320
224
176
160
112
32
-80
-208
-288
-320
-352
-368
-352
-272
-80
-16
-112
144
416
416
320
256
256
240
176
80
-32
-144
-240
-304
-352
-400
-384
-304
-96
-16
-112
96
336
352
272
224
208
208
144
64
-16
-112
-192
-272
-352
-400
-384
-272
-64
0
-112
112
384
400
320
224
192
160
112
64
-16
-96
-224
-336
-432
-464
-416
-304
-96
0
-96
96
400
432
352
240
176
160
160
128
64
-48
-176
-288
-368
-416
-400
-320
-112
-16
-112
64
400
416
304
160
96
112
96
80
16
-80
-160
-256
-320
-384
-400
-336
-128
0
-96
96
480
464
352
208
160
144
112
64
-16
-96
-176
-256
-336
-432
-480
-416
-176
-16
-96
48
400
448
352
240
192
176
112
48
0
-48
-80
-160
-272
-384
-432
-368
-160
-16
-96
16
384
432
384
240
160
96
32
-16
-32
-80
-144
-224
-320
-384
-400
-336
-160
0
-80
16
432
512
464
304
208
144
96
48
-16
-96
-176
-256
-336
-384
-400
-368
-192
-32
-96
-32
368
448
416
272
192
160
128
64
-16
-96
-176
-224
-256
-304
-336
-336
-192
-16
-80
-32
352
432
384
256
208
176
112
32
-80
-176
-240
-272
-304
-352
-384
-352
-192
-16
-64
-48
336
400
400
304
272
240
160
64
-32
-112
-192
-256
-304
-384
-400
-352
-192
-16
-64
-80
240
352
384
272
224
192
128
64
0
-80
-160
-240
-304
-352
-336
-256
-128
0
-48
-64
304
400
400
288
208
176
144
80
16
-96
-224
-320
-384
-400
-384
-320
-176
-16
-48
-64
320
432
400
272
224
224
208
176
80
-48
-176
-256
-320
-368
-384
-352
-208
-32
-48
-64
304
384
336
192
160
160
160
112
32
-64
-160
-240
-304
-368
-400
-352
-192
-16
-32
-64
304
400
368
240
176
160
128
64
0
-64
-144
-240
-336
-432
-496
-432
-256
-32
-32
-80
272
400
400
272
192
144
112
80
48
0
-80
-192
-304
-400
-432
-400
-256
-32
-32
-80
256
416
416
272
160
96
64
64
16
-32
-128
-224
-304
-384
-416
-384
-256
-48
-32
-80
304
480
480
304
192
160
128
80
32
-64
-144
-240
-304
-368
-432
-448
-336
-80
-32
-96
256
432
432
304
208
176
144
96
16
-64
-128
-176
-224
-304
-384
-384
-304
-64
-16
-96
208
384
400
288
208
160
96
0
-64
-128
-160
-208
-272
-336
-400
-384
-288
-64
-16
-96
192
400
464
384
304
208
144
48
-16
-80
-144
-224
-304
-368
-400
-384
-272
-80
-16
-112
128
352
416
336
256
208
160
96
32
-48
-144
-224
-288
-320
-336
-304
-224
-64
-16
-112
160
384
416
320
224
176
160
96
16
-96
-208
-288
-336
-352
-368
-352
-272
-80
-16
-112
160
400
416
320
256
240
240
176
64
-48
-160
-240
-304
-352
-384
-384
-288
-96
-16
-112
112
320
336
256
208
176
176
112
48
-48
-128
-192
-272
-336
-400
-368
-256
-64
-16
-112
128
368
384
304
208
176
144
80
32
-32
-112
-224
-336
-432
-464
-400
-304
-96
-16
-112
112
384
416
336
224
176
176
160
128
64
-48
-176
-288
-368
-416
-400
-320
-112
-16
-112
96
400
416
288
160
112
128
112
80
16
-80
-176
-272
-336
-384
-400
-336
-128
0
-96
128
464
448
336
208
160
144
112
64
-16
-112
-192
-272
-352
-448
-464
-416
-192
-16
-96
80
416
448
352
240
192
160
96
48
0
-48
-112
-176
-304
-400
-432
-368
-160
-16
-96
32
368
432
368
240
160
96
16
-16
-48
-96
-144
-224
-304
-384
-400
-336
-144
-16
-80
32
432
512
464
320
224
160
96
48
-16
-96
-176
-256
-320
-368
-384
-352
-192
-32
-96
-16
384
480
416
288
208
176
128
80
0
-96
-160
-208
-240
-288
-320
-320
-176
-16
-80
-16
384
448
400
256
208
176
128
32
-80
-176
-224
-256
-304
-352
-368
-336
-176
-16
-80
-32
368
432
416
304
272
256
176
80
-32
-128
-192
-256
-320
-384
-400
-352
-192
-16
-80
-80
256
352
368
256
224
192
144
80
0
-80
-160
-256
-320
-368
-352
-272
-128
0
-64
-48
304
400
384
256
192
160
128
80
16
-96
-224
-336
-400
-416
-400
-320
-176
-16
-48
-48
320
416
384
256
192
192
192
160
80
-48
-160
-256
-320
-368
-400
-352
-224
-32
-48
-64
304
368
320
176
144
144
144
96
32
-64
-160
-240
-320
-368
-400
-368
-208
-16
-48
-64
336
416
368
240
176
160
128
80
0
-64
-160
-240
-336
-432
-480
-432
-256
-32
-48
-80
304
416
400
272
208
160
128
80
48
0
-64
-192
-304
-384
-432
-384
-256
-32
-32
-80
288
416
416
256
144
80
48
48
16
-32
-128
-208
-288
-352
-384
-368
-256
-48
-32
-80
336
496
496
320
208
160
128
80
32
-48
-128
-208
-272
-336
-400
-416
-320
-80
-32
-96
272
432
448
320
208
160
128
80
0
-64
-128
-176
-208
-272
-368
-368
-288
-64
-32
-96
240
400
416
304
224
176
112
16
-64
-128
-160
-224
-272
-336
-400
-384
-288
-64
-16
-112
208
400
464
368
288
224
144
48
-16
-80
-160
-240
-320
-384
-416
-384
-272
-80
-16
-112
128
368
416
320
240
192
144
80
32
-48
-144
-224
-288
-320
-320
-288
-208
-64
-16
-112
160
384
432
320
224
192
160
112
32
-80
-192
-272
-320
-336
-368
-336
-256
-80
-16
-112
176
400
416
320
256
240
240
176
80
-48
-144
-224
-288
-336
-384
-384
-288
-96
-16
-112
128
320
336
256
208
192
192
128
64
-32
-128
-208
-272
-352
-416
-384
-272
-64
-16
-112
128
352
384
304
208
176
160
96
48
-32
-112
-224
-352
-448
-480
-432
-320
-96
0
-96
128
384
416
336
224
176
160
144
128
48
-48
-192
-288
-384
-432
-400
-320
-128
-16
-112
112
400
432
320
176
112
128
112
80
16
-80
-176
-256
-320
-384
-400
-336
-128
-16
-96
144
480
464
352
224
160
160
112
64
-16
-112
-192
-256
-336
-432
-464
-416
-192
-16
-96
96
416
464
368
240
192
176
112
48
0
-64
-112
-176
-288
-400
-432
-368
-160
-16
-96
48
384
448
368
240
160
96
16
-32
-48
-96
-160
-240
-320
-400
-400
-336
-160
-16
-80
48
416
496
448
304
192
128
64
32
-32
-112
-192
-272
-336
-384
-400
-352
-192
-32
-96
0
368
448
416
288
224
176
144
80
0
-96
-176
-224
-256
-304
-336
-320
-176
-16
-80
0
368
432
384
256
208
176
112
32
-80
-176
-240
-272
-304
-352
-384
-352
-192
-16
-64
-16
336
416
400
304
272
256
176
80
-32
-128
-192
-256
-320
-400
-416
-368
-192
-16
-64
-64
256
352
368
256
224
192
128
64
-16
-96
-176
-272
-336
-384
-368
-288
-144
0
-48
-32
304
400
368
240
176
144
112
64
0
-112
-224
-352
-432
-448
-416
-336
-192
-16
-64
-48
336
432
416
272
208
208
208
176
80
-64
-176
-272
-352
-400
-416
-368
-224
-32
-48
-48
320
384
336
192
144
160
160
112
32
-64
-160
-240
-304
-368
-400
-368
-208
-16
-32
-48
352
432
400
256
192
176
144
80
16
-64
-144
-224
-320
-432
-480
-432
-256
-32
-48
-64
320
416
416
288
208
160
128
80
48
0
-64
-176
-288
-384
-416
-384
-256
-48
-32
-80
288
416
416
256
144
80
48
32
0
-48
-128
-224
-320
-384
-416
-368
-256
-48
-32
-80
336
480
480
304
192
144
112
80
16
-64
-144
-224
-288
-352
-416
-416
-336
-96
-32
-80
272
432
448
304
208
176
144
96
16
-64
-128
-176
-208
-272
-368
-368
-288
-80
-32
-96
256
400
432
320
224
176
112
16
-64
-128
-160
-208
-256
-320
-384
-368
-272
-80
-32
-96
224
416
464
384
304
224
144
64
-16
-80
-144
-224
-304
-368
-400
-368
-272
-80
-32
-112
160
368
432
336
240
192
144
80
32
-48
-144
-240
-320
-352
-352
-304
-224
-80
-32
-112
176
384
432
320
224
176
160
112
32
-80
-208
-304
-336
-352
-384
-352
-288
-96
-16
-96
192
400
432
320
256
240
240
176
80
-48
-160
-256
-320
-384
-400
-384
-304
-96
-16
-96
144
336
352
256
208
192
176
128
48
-48
-128
-208
-288
-368
-416
-384
-272
-80
0
-96
160
368
400
304
208
176
144
96
32
-48
-128
-240
-352
-448
-496
-432
-320
-96
0
-96
144
400
432
336
224
176
160
128
112
48
-64
-192
-304
-400
-448
-416
-320
-128
-16
-96
128
400
416
304
160
96
112
96
80
0
-96
-176
-272
-336
-400
-400
-336
-144
-16
-96
160
480
464
352
224
160
144
112
64
-32
-112
-192
-256
-336
-432
-464
-416
-192
-16
-96
112
432
448
368
256
192
176
112
48
-16
-64
-112
-160
-272
-384
-416
-368
-176
-16
-96
64
400
448
384
256
176
112
32
-32
-48
-96
-160
-240
-304
-384
-400
-336
-160
-16
-96
64
432
512
464
320
224
160
96
32
-32
-96
-192
-272
-336
-384
-384
-352
-192
-32
-96
16
368
464
400
272
208
176
112
64
-16
-96
-192
-224
-272
-304
-320
-320
-176
-16
-80
16
384
448
384
256
208
176
112
32
-80
-176
-240
-272
-304
-352
-368
-320
-176
-16
-80
0
368
432
400
304
272
256
176
80
-32
-128
-192
-256
-320
-384
-416
-352
-192
-32
-80
-48
272
352
368
272
240
208
144
80
0
-80
-160
-256
-336
-384
-368
-288
-144
0
-64
-32
320
400
384
272
208
176
144
96
16
-80
-208
-320
-416
-432
-416
-352
-192
-16
-48
-32
320
416
400
256
208
208
192
176
96
-48
-160
-272
-352
-400
-416
-368
-240
-32
-48
-48
320
400
336
192
144
160
144
112
32
-64
-160
-240
-304
-368
-416
-384
-224
-32
-48
-32
368
432
384
240
176
160
144
80
16
-80
-144
-224
-336
-432
-496
-448
-272
-48
-48
-64
320
432
416
272
208
176
128
96
48
0
-64
-176
-288
-384
-432
-400
-256
-48
-32
-64
304
416
416
272
160
96
64
48
16
-32
-128
-224
-304
-384
-416
-384
-272
-64
-32
-64
336
480
496
320
192
144
112
80
16
-64
-144
-224
-304
-368
-432
-432
-336
-96
-32
-80
288
464
480
320
224
192
160
96
16
-64
-128
-176
-224
-288
-368
-384
-304
-80
-32
-96
272
432
448
320
224
192
128
32
-64
-128
-160
-208
-256
-320
-384
-384
-272
-80
-32
-112
256
432
480
400
304
240
160
80
0
-80
-144
-208
-288
-352
-384
-368
-272
-80
-32
-112
160
368
416
336
240
192
144
80
32
-48
-144
-224
-288
-320
-336
-304
-224
-80
-16
-96
176
384
432
320
224
176
160
112
32
-80
-192
-288
-336
-352
-384
-352
-272
-96
-16
-96
192
400
432
336
256
240
240
192
80
-48
-160
-256
-320
-384
-416
-400
-320
-112
-16
-112
160
336
368
272
224
208
208
144
48
-48
-128
-208
-288
-352
-416
-384
-272
-80
-16
-96
176
368
400
304
208
160
128
80
32
-48
-128
-240
-352
-448
-480
-432
-320
-112
0
-80
160
384
432
336
208
144
128
112
96
32
-64
-192
-304
-384
-432
-416
-320
-128
-16
-96
128
368
400
288
144
64
64
64
32
-32
-112
-192
-272
-336
-400
-416
-352
-160
-16
-80
176
464
464
368
224
160
144
96
48
-48
-128
-208
-272
-352
-432
-480
-432
-208
-16
-80
112
400
448
368
240
192
160
96
32
-32
-96
-128
-192
-288
-400
-432
-384
-192
-16
-96
80
384
432
368
256
176
112
16
-32
-64
-112
-176
-240
-304
-384
-384
-320
-160
-16
-80
80
416
496
448
320
208
144
64
16
-32
-112
-192
-272
-336
-384
-384
-336
-192
-32
-96
32
368
448
400
272
208
160
112
64
-16
-112
-192
-240
-256
-288
-320
-304
-176
-32
-80
32
368
432
384
256
224
192
144
48
-64
-160
-240
-272
-304
-336
-352
-320
-176
-32
-80
16
368
416
400
304
288
272
192
96
-16
-112
-192
-256
-304
-368
-384
-336
-192
-32
-80
-32
272
336
352
256
240
208
144
80
0
-80
-160
-240
-320
-368
-336
-256
-128
-16
-64
-16
320
384
368
256
192
160
128
80
16
-96
-208
-320
-400
-416
-400
-320
-176
-32
-64
-32
336
416
384
256
192
192
176
160
80
-48
-160
-272
-352
-384
-400
-368
-224
-48
-64
-32
320
368
320
176
144
160
160
112
32
-64
-160
-240
-304
-368
-400
-368
-224
-32
-48
-16
384
432
384
240
192
176
144
80
16
-80
-144
-224
-336
-432
-496
-448
-272
-48
-48
-48
336
416
400
272
208
176
128
96
48
0
-64
-160
-288
-384
-432
-400
-272
-48
-32
-64
304
416
416
272
160
96
48
48
16
-48
-128
-224
-320
-400
-416
-384
-272
-64
-48
-64
336
496
496
320
208
144
112
80
16
-64
-144
-224
-304
-368
-416
-432
-336
-96
-48
-80
304
448
464
304
224
176
160
96
32
-64
-128
-176
-224
-288
-368
-384
-304
-96
-32
-80
288
432
432
304
224
176
128
32
-48
-128
-160
-224
-272
-336
-400
-384
-288
-80
-32
-96
256
432
480
384
304
240
160
80
0
-80
-160
-240
-304
-368
-416
-384
-288
-96
-32
-112
176
368
432
336
256
192
160
96
32
-48
-144
-240
-304
-336
-352
-304
-224
-80
-16
-96
192
384
432
320
224
176
160
112
32
-80
-192
-288
-352
-368
-384
-368
-288
-96
-16
-96
208
416
432
320
240
240
240
192
80
-32
-144
-224
-304
-352
-400
-384
-304
-112
-16
-96
176
336
352
256
208
192
192
128
64
-32
-112
-192
-272
-352
-416
-384
-288
-96
-16
-96
192
384
416
320
224
176
160
96
48
-32
-112
-224
-336
-448
-496
-432
-320
-112
-16
-96
176
400
448
352
224
176
160
128
112
48
-48
-192
-304
-384
-432
-416
-336
-144
-16
-96
144
400
432
304
160
96
96
96
64
0
-96
-192
-272
-336
-400
-400
-336
-144
-16
-96
192
480
480
368
208
160
128
96
48
-32
-112
-192
-272
-336
-416
-448
-400
-208
-32
-96
144
416
448
352
240
192
160
96
32
-32
-80
-112
-160
-256
-384
-416
-368
-176
-16
-96
96
384
432
368
240
176
112
16
-48
-64
-112
-176
-240
-320
-384
-400
-336
-176
-16
-80
80
400
480
448
304
208
160
80
16
-48
-112
-208
-288
-368
-416
-416
-368
-224
-32
-80
32
352
448
400
272
192
160
112
64
-16
-112
-208
-256
-288
-320
-336
-320
-192
-32
-80
32
352
416
368
240
192
176
112
32
-80
-176
-256
-288
-320
-352
-368
-336
-192
-16
-64
32
352
416
400
304
288
272
192
80
-32
-128
-192
-256
-320
-384
-400
-352
-208
-32
-64
-16
272
352
368
272
240
224
160
96
0
-80
-160
-240
-320
-384
-368
-288
-144
-16
-64
0
320
400
384
272
208
176
144
80
0
-96
-208
-336
-416
-448
-416
-336
-192
-32
-64
-16
336
432
400
256
192
192
176
160
80
-48
-160
-272
-352
-400
-416
-352
-224
-48
-64
-16
336
384
320
176
112
144
128
96
32
-64
-160
-240
-304
-368
-400
-368
-224
-32
-48
0
368
416
368
224
176
160
128
80
16
-80
-144
-224
-336
-432
-496
-464
-288
-64
-48
-48
336
416
416
288
208
176
144
96
48
0
-64
-160
-288
-384
-432
-400
-272
-64
-48
-48
320
432
432
272
176
112
64
48
16
-48
-128
-224
-320
-384
-416
-368
-256
-64
-48
-48
368
512
512
336
208
144
112
80
16
-64
-160
-240
-304
-368
-416
-416
-336
-112
-48
-80
320
464
464
320
224
176
144
96
16
-64
-144
-192
-224
-272
-352
-368
-288
-96
-32
-80
288
432
448
320
240
208
144
64
-48
-128
-160
-208
-240
-304
-384
-368
-272
-80
-32
-96
272
432
480
384
320
256
176
96
16
-64
-144
-208
-272
-336
-384
-368
-272
-96
-32
-96
176
368
448
352
272
208
160
96
32
-48
-128
-208
-288
-320
-336
-288
-208
-80
-32
-96
208
384
432
320
224
176
144
96
32
-80
-192
-288
-352
-368
-384
-352
-288
-112
-16
-96
208
400
432
320
240
224
224
176
80
-32
-144
-256
-336
-384
-416
-400
-320
-128
-16
-96
176
336
368
256
208
208
208
144
64
-32
-112
-208
-272
-352
-416
-400
-288
-96
-16
-96
192
384
416
320
224
192
176
112
48
-32
-112
-224
-336
-432
-496
-448
-336
-128
-16
-80
192
416
464
368
240
192
160
144
112
48
-32
-176
-288
-384
-432
-416
-320
-144
-16
-96
160
400
448
320
176
96
96
96
64
0
-96
-192
-272
-352
-400
-400
-336
-160
-16
-96
208
496
496
368
224
160
144
96
48
-32
-112
-208
-288
-352
-432
-464
-416
-224
-32
-96
160
432
464
384
256
208
176
128
64
-16
-64
-112
-176
-272
-384
-416
-368
-192
-32
-96
112
400
448
384
272
192
128
32
-16
-64
-96
-160
-240
-320
-384
-384
-320
-176
-16
-80
96
416
512
464
336
224
160
96
32
-32
-96
-176
-256
-336
-384
-384
-336
-208
-32
-96
48
352
448
416
288
208
176
128
80
0
-96
-176
-224
-272
-304
-320
-304
-192
-32
-80
48
368
432
384
256
208
192
128
48
-64
-160
-240
-272
-320
-352
-368
-336
-192
-32
-80
48
368
432
400
304
288
272
208
96
-16
-112
-192
-256
-320
-384
-416
-352
-208
-32
-80
0
288
368
368
272
240
224
160
96
0
-80
-160
-256
-336
-400
-368
-288
-144
-16
-64
0
352
416
400
272
208
176
128
80
16
-80
-208
-320
-416
-448
-416
-336
-192
-32
-64
-16
368
448
416
272
208
208
192
176
96
-32
-160
-272
-352
-400
-416
-368
-240
-48
-64
-16
352
416
352
208
144
160
144
112
48
-64
-160
-240
-320
-384
-416
-384
-240
-48
-48
0
400
448
400
256
192
176
144
80
16
-64
-144
-240
-336
-432
-496
-464
-304
-64
-48
-48
352
432
432
288
224
176
128
80
48
-16
-80
-176
-304
-400
-448
-416
-272
-80
-48
-48
320
432
448
288
176
112
64
32
0
-48
-128
-224
-304
-384
-416
-384
-272
-80
-48
-64
352
496
512
336
224
160
112
80
16
-64
-144
-224
-288
-352
-416
-416
-352
-128
-48
-80
304
464
480
320
224
192
160
112
32
-64
-128
-176
-224
-272
-352
-384
-304
-96
-32
-80
288
432
448
304
224
192
144
48
-48
-128
-176
-224
-256
-320
-384
-384
-288
-96
-32
-96
256
432
496
384
320
256
176
80
0
-80
-160
-240
-304
-368
-416
-384
-288
-112
-32
-96
176
368
448
352
272
224
176
112
48
-48
-144
-240
-304
-352
-368
-320
-224
-80
-32
-96
208
400
448
336
224
192
160
112
48
-64
-192
-288
-352
-368
-400
-368
-288
-112
-16
-80
224
400
448
320
240
224
240
192
96
-32
-144
-240
-304
-368
-416
-400
-320
-128
-16
-80
176
336
352
256
192
176
176
128
64
-32
-128
-208
-288
-368
-432
-416
-304
-112
-16
-96
192
384
432
320
224
176
160
96
32
-32
-128
-240
-352
-448
-512
-464
-336
-144
-16
-80
192
416
464
368
256
192
176
144
112
48
-48
-176
-288
-384
-448
-416
-336
-160
-32
-96
160
416
464
336
176
112
96
96
64
0
-96
-176
-256
-320
-384
-400
-336
-176
-16
-80
208
480
496
368
224
160
144
96
64
-16
-112
-192
-256
-320
-416
-448
-416
-240
-32
-80
144
400
448
368
240
176
160
96
48
-16
-80
-112
-160
-256
-368
-400
-368
-192
-32
-96
96
384
432
384
272
192
128
48
-32
-64
-112
-176
-240
-320
-384
-400
-336
-192
-32
-80
96
416
496
480
336
240
176
96
32
-32
-96
-192
-272
-336
-400
-400
-352
-224
-48
-96
32
352
448
432
288
224
176
128
64
0
-96
-192
-240
-288
-320
-320
-304
-208
-32
-80
48
368
432
400
256
192
176
128
32
-64
-176
-256
-288
-336
-368
-368
-336
-208
-32
-80
32
352
416
400
304
272
256
176
80
-32
-128
-208
-272
-320
-384
-416
-352
-224
-48
-80
-16
288
352
368
288
256
240
176
96
0
-80
-160
-240
-320
-384
-368
-288
-144
-16
-64
16
336
400
400
272
224
192
144
96
16
-80
-208
-320
-416
-448
-416
-352
-208
-32
-64
0
352
432
416
272
208
208
192
160
96
-32
-160
-272
-352
-416
-416
-368
-240
-48
-48
-16
352
400
352
192
128
144
128
96
32
-80
-176
-256
-336
-400
-432
-384
-256
-48
-48
0
400
432
384
240
176
160
128
64
0
-80
-160
-240
-352
-448
-512
-480
-304
-64
-48
-32
352
432
416
304
224
192
160
96
48
-16
-80
-160
-288
-384
-448
-416
-272
-80
-32
-48
320
432
432
288
192
112
64
32
16
-48
-128
-208
-304
-384
-416
-384
-272
-80
-32
-48
352
496
512
336
224
160
128
80
16
-64
-144
-224
-304
-368
-416
-432
-352
-128
-48
-80
288
448
464
320
224
176
144
96
16
-64
-144
-192
-240
-304
-368
-384
-320
-112
-32
-64
288
432
448
320
224
192
128
48
-48
-144
-192
-224
-272
-336
-400
-400
-304
-112
-32
-80
272
432
480
400
336
288
208
112
16
-64
-144
-208
-288
-352
-400
-384
-288
-112
-32
-96
192
384
448
352
272
224
176
112
48
-48
-128
-224
-304
-336
-352
-304
-224
-80
-32
-96
208
384
448
336
240
192
160
112
48
-64
-176
-288
-352
-368
-400
-368
-288
-128
-16
-80
224
416
448
320
240
224
224
192
96
-32
-144
-256
-320
-384
-416
-400
-320
-144
-16
-80
176
352
368
256
192
176
176
128
64
-32
-128
-208
-288
-368
-432
-416
-304
-112
-16
-96
208
400
432
320
224
192
160
112
48
-32
-112
-224
-336
-432
-512
-464
-336
-144
-16
-80
192
416
464
368
240
176
160
128
112
48
-32
-160
-272
-368
-432
-416
-336
-160
-32
-96
160
400
448
336
176
96
96
96
64
0
-80
-176
-256
-336
-384
-400
-336
-176
-32
-80
208
496
512
384
224
160
144
96
48
-16
-112
-192
-256
-336
-416
-448
-416
-256
-48
-80
144
416
464
384
240
192
176
112
48
-16
-64
-128
-176
-272
-384
-416
-384
-224
-32
-80
112
400
448
400
272
192
128
48
-32
-64
-112
-176
-240
-320
-384
-400
-352
-192
-32
-80
96
416
512
480
352
240
176
96
32
-32
-112
-192
-256
-336
-384
-384
-352
-224
-48
-96
48
368
464
432
304
224
176
128
64
-16
-112
-192
-256
-288
-320
-320
-304
-208
-48
-80
48
368
448
400
272
208
176
128
48
-64
-176
-256
-288
-320
-352
-368
-336
-208
-48
-64
48
368
416
400
304
272
256
192
96
-16
-112
-192
-256
-320
-384
-400
-352
-224
-48
-64
0
288
352
352
272
224
208
144
80
0
-80
-160
-240
-320
-384
-368
-288
-160
-16
-48
16
320
400
384
272
208
176
128
80
16
-80
-192
-320
-416
-448
-416
-352
-208
-48
-64
0
336
432
432
288
208
192
176
144
80
-48
-160
-272
-368
-416
-432
-400
-272
-64
-48
-16
336
400
368
208
144
160
144
112
32
-64
-176
-272
-352
-400
-432
-400
-272
-64
-32
16
384
432
416
256
192
176
128
80
0
-80
-176
-256
-352
-464
-512
-480
-336
-80
-32
-32
336
432
432
288
224
176
128
80
32
-32
-80
-160
-288
-400
-448
-416
-304
-96
-32
-32
304
416
432
288
192
112
64
32
0
-48
-128
-208
-304
-368
-416
-384
-272
-96
-32
-48
336
496
528
352
224
176
128
80
16
-64
-128
-208
-288
-352
-400
-416
-352
-144
-48
-64
288
448
464
336
240
208
160
112
32
-48
-128
-176
-208
-272
-336
-368
-304
-128
-32
-64
288
416
432
320
240
192
144
64
-48
-128
-176
-224
-272
-320
-384
-384
-304
-112
-32
-80
256
416
480
384
320
272
192
96
0
-80
-144
-224
-288
-352
-416
-384
-288
-128
-32
-96
176
368
448
352
288
240
192
128
48
-48
-128
-224
-304
-336
-352
-320
-224
-96
-32
-96
208
400
448
336
240
208
176
128
64
-48
-176
-288
-368
-384
-400
-368
-288
-128
-32
-96
224
432
464
352
256
240
256
208
112
-16
-128
-240
-320
-368
-416
-400
-320
-144
-32
-96
208
368
384
272
208
192
208
160
80
-32
-128
-208
-288
-352
-416
-400
-288
-112
-16
-96
224
400
432
320
224
176
160
112
48
-32
-112
-224
-336
-432
-496
-448
-320
-144
-16
-80
208
416
464
368
256
208
192
160
128
64
-32
-160
-272
-368
-432
-416
-336
-176
-32
-80
160
416
464
352
208
128
112
128
96
32
-64
-160
-240
-320
-384
-400
-352
-192
-32
-64
192
480
496
384
240
160
144
112
64
-16
-96
-176
-256
-320
-416
-448
-432
-256
-48
-80
144
416
464
384
240
192
160
112
48
-16
-80
-128
-160
-256
-384
-416
-384
-224
-48
-80
96
384
432
384
240
176
112
16
-32
-80
-112
-176
-240
-320
-400
-416
-352
-208
-48
-80
96
400
496
464
336
240
176
112
48
-32
-96
-192
-272
-352
-400
-400
-368
-240
-64
-80
32
336
448
416
288
208
176
128
64
0
-96
-192
-256
-288
-320
-320
-320
-224
-48
-64
48
352
432
400
256
192
176
112
48
-64
-176
-272
-304
-352
-368
-384
-336
-224
-48
-64
48
352
416
384
288
256
240
176
80
-32
-128
-224
-288
-352
-400
-416
-368
-240
-64
-80
0
288
336
352
256
208
192
128
64
-16
-96
-176
-272
-352
-400
-384
-304
-160
-32
-64
16
336
400
384
272
208
176
128
80
16
-80
-192
-304
-400
-432
-400
-336
-208
-48
-64
0
352
416
416
272
192
192
176
160
96
-16
-144
-240
-336
-384
-400
-368
-256
-64
-48
0
352
400
368
208
128
144
128
112
48
-48
-144
-224
-288
-352
-384
-368
-256
-64
-48
16
400
432
400
256
192
176
128
80
16
-64
-144
-208
-304
-400
-480
-464
-320
-96
-48
-32
352
432
432
304
224
192
128
80
48
-16
-80
-160
-288
-384
-448
-416
-304
-96
-32
-32
320
432
448
304
192
128
64
32
0
-48
-112
-208
-304
-368
-416
-384
-288
-96
-32
-48
336
496
528
368
240
176
128
80
16
-64
-144
-240
-320
-368
-432
-416
-352
-160
-48
-80
304
464
496
352
240
192
160
96
16
-64
-144
-192
-224
-272
-352
-384
-320
-128
-48
-80
288
432
464
336
240
208
144
48
-48
-144
-192
-240
-288
-352
-416
-400
-320
-128
-48
-96
272
432
496
400
336
288
208
112
16
-80
-144
-240
-320
-384
-432
-416
-320
-144
-32
-96
192
384
464
368
288
224
192
112
48
-48
-128
-240
-320
-368
-384
-336
-240
-112
-32
-80
208
400
464
352
256
208
176
128
48
-64
-176
-304
-384
-400
-432
-384
-304
-144
-32
-80
224
432
464
352
256
240
256
208
112
-32
-144
-256
-336
-384
-432
-416
-336
-176
-32
-80
192
368
384
272
208
208
208
160
80
-32
-128
-208
-288
-368
-448
-432
-320
-144
-16
-80
208
416
448
336
240
208
176
128
64
-16
-112
-208
-320
-432
-512
-480
-368
-176
-16
-80
192
416
464
384
256
192
176
144
112
48
-32
-160
-288
-384
-464
-448
-368
-192
-32
-80
160
400
464
352
192
112
96
96
64
0
-80
-192
-288
-368
-432
-416
-368
-208
-32
-80
192
496
528
400
240
176
160
112
64
-16
-112
-208
-288
-352
-448
-480
-432
-288
-64
-80
144
432
480
400
256
208
192
128
64
-16
-80
-144
-192
-272
-400
-448
-400
-256
-48
-80
112
400
464
416
272
208
144
64
-16
-64
-112
-176
-240
-320
-400
-416
-368
-224
-48
-80
96
416
528
496
368
256
176
112
48
-32
-96
-176
-256
-336
-384
-400
-352
-240
-64
-80
32
368
464
448
304
224
192
144
80
16
-96
-176
-240
-288
-320
-336
-320
-224
-64
-64
48
368
464
432
272
208
192
144
64
-48
-160
-240
-288
-320
-352
-384
-352
-240
-48
-64
48
368
432
432
320
272
272
224
112
16
-112
-192
-256
-320
-384
-416
-384
-256
-64
-64
0
288
368
384
288
240
224
176
96
16
-64
-160
-240
-320
-384
-384
-320
-176
-32
-48
16
336
416
432
304
224
192
144
96
16
-80
-176
-304
-400
-448
-432
-368
-224
-64
-64
0
368
464
464
320
224
208
208
176
112
0
-144
-240
-336
-400
-432
-384
-272
-80
-64
-16
368
432
416
240
144
160
160
128
64
-48
-144
-240
-320
-368
-416
-384
-272
-80
-48
0
416
464
448
288
208
176
144
96
32
-64
-144
-240
-320
-416
-496
-464
-320
-96
-48
-32
352
448
448
304
224
176
128
80
32
-16
-80
-160
-288
-384
-448
-416
-304
-112
-48
-48
320
432
448
304
192
112
48
16
0
-64
-128
-208
-304
-368
-416
-384
-288
-112
-48
-64
336
496
528
368
240
160
112
64
16
-48
-128
-208
-288
-336
-400
-416
-352
-176
-48
-80
288
448
480
352
256
208
176
128
48
-48
-112
-176
-208
-256
-320
-368
-304
-144
-48
-80
256
416
448
336
256
208
160
64
-32
-112
-176
-208
-256
-320
-384
-384
-320
-144
-32
-80
240
400
480
400
336
288
208
112
16
-64
-144
-224
-288
-368
-416
-400
-320
-144
-32
-96
160
336
448
368
272
224
176
112
32
-48
-128
-224
-304
-352
-384
-336
-240
-128
-32
-96
192
400
464
368
256
224
192
144
64
-48
-160
-288
-368
-384
-416
-384
-304
-160
-32
-96
224
432
480
368
272
256
256
224
128
-16
-128
-240
-336
-384
-432
-416
-336
-176
-32
-96
192
368
384
288
208
208
208
160
80
-16
-112
-208
-288
-352
-432
-416
-320
-144
-16
-96
192
416
432
336
240
192
176
112
48
-32
-112
-224
-352
-464
-544
-496
-368
-192
-32
-80
176
400
448
368
256
192
176
128
96
48
-48
-176
-288
-400
-464
-448
-368
-208
-48
-96
144
400
464
368
208
144
128
128
80
16
-80
-176
-272
-352
-416
-416
-368
-224
-48
-80
176
496
544
432
272
192
176
128
80
0
-96
-192
-256
-336
-416
-464
-432
-288
-64
-80
128
432
496
432
288
224
208
160
80
0
-64
-128
-176
-256
-368
-432
-400
-256
-64
-80
80
400
464
416
288
208
144
64
-16
-80
-112
-176
-240
-320
-400
-432
-384
-240
-64
-80
64
400
512
496
352
256
192
112
48
-16
-96
-192
-272
-352
-416
-432
-384
-272
-80
-80
0
336
448
432
288
224
176
128
80
16
-96
-176
-240
-288
-320
-336
-320
-240
-64
-64
16
352
448
432
272
208
176
144
64
-32
-160
-256
-288
-336
-368
-384
-352
-256
-64
-64
16
368
448
432
320
272
272
224
112
16
-96
-192
-272
-336
-400
-432
-400
-272
-80
-64
-16
272
352
368
272
224
208
160
96
16
-80
-160
-256
-352
-416
-416
-352
-208
-48
-48
0
320
400
416
288
224
192
160
112
32
-64
-176
-304
-416
-480
-448
-384
-256
-80
-48
-16
320
416
432
288
192
176
176
160
112
0
-144
-256
-352
-416
-448
-400
-288
-96
-48
-32
320
400
400
224
128
128
128
112
48
-48
-144
-240
-320
-368
-416
-400
-288
-96
-32
-16
384
432
432
272
176
160
128
80
16
-64
-144
-224
-320
-416
-512
-496
-368
-128
-48
-48
336
432
448
304
224
176
128
80
32
-16
-80
-160
-288
-384
-464
-448
-336
-144
-32
-48
288
416
448
320
208
128
64
16
0
-48
-112
-208
-304
-384
-432
-400
-304
-144
-32
-64
320
496
544
384
240
176
128
64
16
-64
-144
-224
-304
-352
-416
-416
-368
-192
-48
-80
272
448
496
368
256
192
160
96
32
-64
-144
-192
-224
-272
-336
-368
-320
-160
-48
-80
256
416
464
352
256
208
160
64
-32
-128
-192
-224
-272
-320
-384
-384
-320
-160
-32
-80
240
416
480
400
336
288
208
112
16
-64
-144
-224
-304
-352
-416
-400
-320
-160
-32
-80
144
336
432
368
272
224
176
112
48
-48
-128
-224
-304
-352
-368
-320
-240
-112
-32
-80
176
368
448
352
256
192
176
112
48
-48
-160
-288
-384
-400
-416
-384
-320
-176
-32
-80
176
400
448
352
256
224
240
208
128
-16
-128
-240
-304
-368
-416
-416
-336
-192
-48
-80
160
352
384
288
208
192
208
160
80
-16
-112
-208
-272
-352
-416
-432
-336
-160
-32
-80
176
400
432
352
240
208
192
128
64
-16
-96
-192
-304
-416
-496
-480
-368
-208
-32
-80
160
416
464
400
272
208
176
144
112
64
-32
-144
-272
-384
-448
-448
-368
-224
-48
-80
128
400
464
384
224
128
112
112
80
16
-80
-176
-272
-352
-432
-432
-384
-240
-64
-80
160
480
528
432
272
192
176
128
80
0
-96
-192
-272
-352
-432
-480
-448
-320
-80
-80
112
416
480
416
272
224
192
144
80
0
-80
-144
-192
-272
-384
-432
-416
-288
-80
-80
80
368
432
416
288
208
160
64
0
-64
-96
-176
-240
-320
-400
-416
-384
-256
-64
-64
64
368
480
480
352
256
176
112
48
-16
-96
-192
-272
-352
-416
-416
-384
-272
-96
-80
0
320
432
448
304
224
176
128
64
0
-96
-192
-256
-304
-336
-352
-320
-256
-80
-64
16
352
448
448
304
224
208
160
80
-32
-144
-240
-304
-336
-368
-384
-368
-256
-80
-64
32
352
432
432
320
288
288
240
128
16
-96
-176
-240
-304
-368
-416
-384
-272
-96
-64
-16
288
368
384
288
240
224
176
112
32
-64
-144
-224
-320
-384
-400
-336
-192
-48
-48
0
320
400
432
288
224
176
144
80
32
-64
-176
-288
-400
-464
-448
-384
-256
-96
-48
-16
336
416
448
288
208
176
176
160
112
0
-144
-256
-368
-432
-448
-416
-304
-112
-48
-32
336
416
416
256
160
176
176
144
80
-32
-128
-224
-320
-368
-416
-400
-304
-112
-32
0
400
448
448
288
192
176
160
112
48
-48
-128
-208
-304
-416
-496
-496
-368
-144
-32
-48
320
432
464
336
240
192
144
96
48
0
-64
-128
-256
-368
-448
-432
-320
-144
-32
-48
288
416
464
320
192
112
48
0
0
-48
-112
-192
-288
-368
-432
-400
-320
-144
-48
-64
304
480
528
384
240
160
112
64
16
-48
-128
-224
-304
-352
-416
-432
-368
-224
-64
-80
256
448
496
384
256
208
176
128
48
-48
-128
-176
-224
-256
-336
-368
-320
-176
-48
-80
240
416
464
352
256
208
160
80
-16
-112
-176
-224
-256
-304
-384
-384
-320
-176
-48
-80
224
416
480
416
336
288
208
112
16
-64
-128
-208
-288
-352
-416
-400
-320
-176
-48
-80
144
336
432
368
288
224
176
112
48
-48
-112
-224
-304
-352
-384
-336
-256
-144
-32
-80
176
384
448
368
256
192
160
112
64
-48
-160
-288
-384
-400
-432
-400
-320
-192
-32
-80
192
416
464
368
256
240
240
208
128
-16
-128
-256
-336
-384
-448
-432
-352
-224
-48
-64
160
368
384
304
208
192
192
144
80
-16
-112
-208
-288
-352
-432
-448
-352
-192
-16
-64
176
400
448
368
256
208
176
128
48
-32
-112
-192
-304
-416
-512
-512
-400
-240
-48
-64
144
400
464
400
288
208
176
144
112
48
-32
-144
-256
-368
-448
-448
-384
-240
-48
-64
112
384
464
384
224
144
112
96
80
16
-64
-160
-240
-336
-400
-416
-384
-256
-64
-64
160
480
544
448
288
192
176
144
80
0
-96
-176
-256
-320
-416
-464
-448
-320
-96
-64
112
416
480
432
288
224
208
160
80
0
-64
-128
-160
-240
-368
-416
-400
-288
-80
-64
80
400
464
448
304
240
176
96
0
-64
-96
-160
-208
-288
-384
-416
-368
-256
-80
-64
64
384
496
512
384
288
224
144
64
0
-80
-160
-240
-336
-400
-400
-368
-272
-112
-64
0
320
448
464
336
256
208
160
96
32
-64
-160
-240
-288
-320
-320
-304
-240
-96
-64
16
352
448
448
304
224
208
160
96
-16
-128
-240
-288
-320
-352
-368
-352
-256
-96
-64
16
352
432
432
320
272
288
240
144
32
-96
-176
-256
-320
-368
-416
-384
-272
-112
-64
-16
288
352
384
288
240
240
208
128
48
-64
-144
-224
-304
-384
-400
-336
-208
-64
-48
0
320
416
432
304
240
208
160
112
48
-48
-160
-272
-400
-464
-448
-384
-256
-96
-48
-32
320
432
464
320
224
192
192
176
128
16
-128
-224
-336
-400
-432
-400
-304
-128
-48
-32
320
416
416
240
144
144
144
128
80
-32
-128
-224
-304
-368
-400
-400
-288
-112
-48
-16
400
448
448
288
192
160
144
96
48
-48
-128
-208
-304
-400
-480
-480
-368
-160
-48
-48
320
448
464
336
240
208
160
112
64
0
-48
-128
-240
-352
-432
-432
-320
-160
-48
-64
288
432
480
352
224
144
80
32
16
-32
-96
-176
-272
-352
-416
-400
-304
-160
-48
-64
304
496
560
416
256
176
128
80
32
-32
-112
-208
-288
-352
-416
-416
-368
-224
-64
-80
240
448
512
384
256
208
160
112
48
-48
-128
-192
-224
-256
-336
-368
-336
-192
-48
-80
240
416
480
368
272
224
192
96
-16
-112
-176
-208
-256
-304
-384
-400
-336
-192
-48
-96
224
416
496
432
352
304
240
128
32
-64
-128
-208
-288
-352
-416
-400
-320
-192
-48
-96
128
336
448
384
288
240
192
128
48
-32
-112
-224
-304
-352
-384
-336
-256
-144
-32
-80
144
368
432
368
256
176
144
112
48
-48
-160
-288
-384
-416
-432
-400
-336
-208
-48
-80
160
384
448
368
256
224
208
192
128
0
-112
-240
-320
-384
-448
-432
-368
-240
-48
-80
144
352
400
320
224
208
208
176
96
0
-96
-192
-272
-352
-432
-448
-368
-208
-32
-64
144
400
448
384
272
224
192
144
80
-16
-96
-192
-304
-416
-512
-512
-400
-240
-48
-64
128
400
480
432
304
224
192
144
112
64
-16
-128
-240
-352
-448
-448
-384
-240
-64
-80
96
400
464
400
240
128
96
96
64
16
-64
-160
-256
-336
-416
-432
-384
-272
-80
-64
128
480
544
464
288
192
160
112
64
-16
-112
-208
-272
-352
-432
-480
-464
-352
-128
-80
80
416
496
464
320
240
224
176
80
0
-80
-144
-176
-256
-368
-432
-432
-304
-112
-64
48
384
448
448
304
224
176
80
0
-80
-128
-192
-240
-320
-400
-432
-400
-288
-96
-48
32
368
480
512
384
288
208
128
48
-16
-96
-192
-272
-352
-416
-432
-384
-304
-128
-64
-16
304
432
464
320
240
192
144
80
16
-80
-176
-256
-304
-336
-352
-320
-272
-112
-64
0
320
432
448
304
208
192
144
80
-16
-144
-256
-320
-352
-384
-400
-384
-288
-112
-48
0
336
432
448
352
304
304
272
176
48
-80
-176
-256
-336
-400
-432
-416
-304
-128
-48
-32
288
368
400
304
256
240
208
128
48
-64
-144
-240
-336
-400
-432
-368
-240
-80
-32
-16
320
416
448
320
240
208
176
112
48
-48
-160
-288
-416
-480
-480
-416
-288
-128
-48
-32
320
432
480
320
224
192
192
176
128
16
-112
-240
-352
-416
-448
-432
-320
-160
-48
-48
320
432
432
256
144
144
160
128
80
-16
-128
-224
-304
-368
-432
-416
-320
-144
-32
-32
384
464
480
320
208
192
176
128
64
-32
-128
-208
-304
-400
-496
-496
-400
-176
-48
-64
320
448
496
352
256
208
176
112
64
16
-48
-128
-240
-352
-432
-448
-352
-192
-48
-64
272
432
480
368
224
144
96
32
16
-32
-96
-176
-272
-352
-416
-400
-320
-176
-48
-64
272
480
560
448
272
192
144
96
48
-16
-112
-192
-288
-336
-416
-432
-384
-256
-64
-80
224
448
512
400
272
208
176
128
64
-32
-112
-192
-240
-272
-336
-384
-336
-224
-48
-80
208
416
480
384
272
224
176
96
0
-96
-176
-224
-272
-336
-400
-416
-352
-208
-48
-80
192
416
496
432
336
288
224
128
48
-48
-128
-224
-288
-368
-432
-432
-352
-208
-64
-80
112
320
448
400
304
240
192
128
64
-16
-96
-208
-288
-352
-384
-352
-272
-160
-48
-80
144
384
464
400
272
208
176
144
80
-16
-128
-256
-352
-400
-432
-400
-336
-224
-64
-80
144
416
480
416
272
240
240
224
160
16
-96
-224
-304
-368
-416
-416
-368
-240
-64
-64
128
384
416
336
224
192
192
160
96
0
-96
-176
-256
-320
-400
-416
-352
-208
-48
-64
144
416
464
400
272
208
192
144
64
0
-80
-176
-272
-384
-480
-496
-384
-256
-64
-64
112
400
480
448
304
224
192
144
112
64
0
-112
-224
-336
-416
-432
-384
-256
-80
-80
80
400
480
432
256
144
112
96
80
32
-48
-144
-240
-320
-400
-416
-384
-272
-96
-64
96
464
544
480
304
192
160
128
80
0
-80
-176
-256
-336
-416
-464
-448
-352
-144
-64
64
400
480
464
304
224
192
144
80
0
-80
-128
-176
-240
-352
-432
-416
-304
-112
-64
16
368
448
448
320
240
176
96
0
-64
-112
-176
-224
-304
-384
-416
-400
-288
-112
-64
16
352
480
528
400
304
224
144
64
-16
-96
-160
-240
-320
-384
-416
-384
-304
-144
-64
-32
288
448
480
352
256
224
176
96
32
-64
-160
-240
-288
-320
-336
-320
-272
-128
-48
-32
320
448
464
336
240
208
176
96
0
-128
-240
-320
-352
-384
-400
-384
-304
-128
-48
-16
320
432
464
352
288
288
240
144
32
-96
-192
-272
-352
-416
-464
-432
-336
-144
-48
-48
256
352
400
320
256
240
192
128
32
-64
-160
-256
-336
-416
-448
-400
-256
-96
-32
-32
288
400
448
336
256
208
176
112
32
-64
-176
-288
-416
-480
-480
-432
-304
-144
-48
-48
288
432
480
352
240
208
192
176
128
16
-112
-240
-352
-416
-448
-416
-320
-176
-48
-48
288
432
432
272
160
144
144
128
80
-16
-128
-224
-320
-368
-416
-416
-320
-160
-48
-48
352
448
464
320
208
176
160
112
48
-48
-128
-208
-304
-400
-496
-512
-416
-208
-48
-64
288
448
496
368
256
224
192
128
80
16
-48
-128
-240
-352
-448
-448
-368
-208
-48
-64
240
416
496
384
240
160
96
48
32
-32
-96
-176
-272
-352
-416
-416
-336
-192
-48
-80
256
480
560
464
288
208
144
96
48
-16
-112
-192
-288
-352
-400
-416
-384
-272
-80
-80
192
432
512
416
272
192
160
128
64
-32
-112
-176
-224
-272
-336
-368
-336
-240
-64
-80
176
400
464
384
256
208
176
96
0
-96
-176
-208
-272
-320
-384
-416
-352
-224
-64
-80
160
400
480
432
352
304
240
160
64
-32
-112
-208
-288
-352
-416
-432
-368
-240
-64
-80
80
320
432
400
304
256
208
144
80
0
-96
-192
-288
-352
-384
-352
-272
-176
-64
-80
112
368
464
416
288
208
176
144
80
-16
-128
-256
-368
-400
-432
-416
-352
-240
-64
-80
112
400
480
416
272
240
240
224
160
32
-96
-208
-304
-368
-432
-432
-368
-256
-80
-80
112
368
400
336
208
192
208
176
112
16
-80
-176
-256
-336
-416
-448
-368
-224
-48
-64
112
400
448
400
272
224
208
176
96
16
-64
-160
-272
-384
-496
-496
-416
-272
-80
-64
80
400
464
432
304
224
192
160
128
80
0
-96
-224
-336
-432
-448
-384
-272
-96
-64
48
384
464
432
256
144
96
96
80
32
-48
-144
-240
-336
-400
-432
-400
-288
-112
-64
64
464
544
480
304
192
144
112
64
0
-80
-176
-256
-320
-400
-464
-464
-368
-160
-64
32
400
480
480
320
224
192
144
80
0
-64
-128
-176
-240
-352
-432
-432
-336
-144
-64
0
368
464
480
336
240
192
112
16
-64
-96
-160
-224
-304
-384
-432
-400
-304
-128
-48
0
352
480
544
416
304
208
144
64
0
-80
-176
-256
-336
-416
-432
-400
-320
-160
-64
-64
272
432
496
368
256
208
160
96
32
-64
-160
-240
-304
-336
-352
-336
-288
-144
-64
-48
288
432
464
336
240
208
160
96
0
-128
-240
-320
-368
-400
-416
-400
-320
-160
-48
-48
304
416
464
352
288
272
256
160
48
-80
-176
-272
-352
-416
-464
-448
-352
-176
-48
-64
240
352
400
320
240
224
208
128
48
-64
-160
-256
-352
-416
-464
-400
-272
-128
-32
-48
272
384
448
336
240
192
160
96
32
-64
-160
-288
-416
-480
-496
-432
-320
-160
-48
-64
272
432
480
352
240
192
192
160
128
16
-112
-224
-336
-416
-464
-448
-352
-192
-64
-80
256
416
432
288
160
128
144
112
64
-32
-128
-224
-320
-384
-432
-448
-352
-192
-48
-64
304
448
480
336
208
176
144
96
32
-64
-144
-224
-320
-416
-512
-544
-448
-256
-64
-80
240
416
464
368
240
192
144
80
32
-32
-80
-160
-256
-368
-464
-480
-400
-240
-64
-80
208
416
480
384
240
144
80
16
-16
-64
-128
-208
-304
-384
-448
-448
-368
-224
-64
-80
208
464
560
464
288
208
160
96
48
-16
-112
-208
-288
-352
-416
-432
-400
-304
-96
-80
160
432
528
448
288
224
192
144
96
0
-96
-176
-240
-272
-336
-384
-352
-240
-64
-64
160
400
480
416
288
224
192
112
16
-80
-160
-208
-272
-320
-384
-416
-352
-240
-64
-64
144
400
496
464
352
304
256
160
64
-32
-112
-208
-288
-368
-432
-432
-368
-256
-80
-64
64
304
432
416
304
240
208
144
80
0
-96
-192
-288
-352
-400
-368
-304
-192
-64
-80
80
352
448
432
288
224
192
144
96
0
-112
-240
-352
-400
-432
-416
-368
-256
-80
-64
80
384
464
432
288
240
240
240
176
48
-80
-192
-288
-352
-416
-416
-384
-272
-96
-64
80
352
416
368
240
208
192
176
112
32
-64
-160
-224
-304
-384
-432
-368
-240
-64
-64
80
400
448
432
288
224
192
160
80
16
-64
-160
-256
-368
-480
-496
-416
-272
-96
-64
64
400
464
464
320
224
192
144
112
80
0
-96
-224
-336
-416
-448
-400
-288
-112
-64
32
368
464
448
272
160
112
96
80
32
-32
-144
-240
-336
-400
-432
-400
-320
-144
-64
32
432
528
496
320
208
160
144
80
16
-64
-160
-256
-336
-400
-464
-464
-384
-192
-64
0
368
464
480
320
224
192
160
96
16
-64
-128
-176
-240
-336
-432
-432
-352
-160
-64
-16
320
432
464
336
240
176
112
16
-48
-96
-160
-224
-304
-384
-432
-416
-320
-144
-48
-32
336
480
560
448
336
240
176
96
16
-64
-144
-224
-304
-368
-416
-400
-320
-176
-64
-64
256
432
512
400
288
240
192
128
64
-48
-144
-224
-272
-320
-336
-336
-288
-160
-48
-48
288
448
496
384
272
224
192
128
32
-96
-208
-288
-336
-368
-400
-384
-304
-160
-48
-48
304
432
480
384
304
304
272
176
64
-64
-160
-240
-320
-384
-448
-432
-336
-176
-48
-64
224
352
416
336
272
256
224
144
64
-48
-128
-224
-320
-400
-448
-400
-272
-128
-32
-48
272
400
464
384
288
240
224
144
80
-16
-128
-256
-384
-464
-480
-432
-320
-176
-48
-80
256
432
496
384
272
224
224
192
160
64
-80
-208
-336
-400
-448
-432
-352
-208
-64
-64
240
432
464
320
192
144
176
144
96
0
-112
-208
-304
-368
-432
-432
-352
-208
-48
-64
304
480
480
368
224
192
160
128
64
-32
-112
-208
-304
-400
-512
-528
-448
-256
-64
-80
224
432
496
400
272
224
176
128
80
16
-48
-128
-224
-352
-448
-480
-400
-256
-64
-80
192
432
496
432
288
208
144
80
48
-16
-80
-160
-256
-336
-416
-432
-368
-240
-64
-80
192
480
576
496
320
224
176
112
64
0
-96
-176
-272
-336
-400
-432
-416
-304
-112
-96
144
432
528
464
304
224
192
144
80
-16
-96
-176
-224
-272
-336
-384
-368
-272
-96
-80
128
400
480
416
272
208
176
96
0
-96
-176
-240
-288
-352
-416
-448
-400
-288
-96
-80
96
384
480
464
352
288
240
144
48
-48
-128
-208
-288
-368
-448
-464
-400
-288
-96
-64
32
288
432
432
320
256
224
160
80
0
-96
-192
-272
-352
-400
-384
-304
-208
-80
-64
48
336
448
448
304
224
176
144
96
0
-112
-240
-336
-400
-416
-416
-368
-256
-96
-64
48
384
464
448
304
240
240
224
176
64
-64
-192
-288
-368
-432
-432
-400
-288
-112
-64
48
352
400
368
224
192
192
176
112
32
-64
-176
-256
-336
-432
-464
-416
-272
-96
-48
48
384
448
432
288
208
192
144
80
16
-64
-160
-272
-400
-496
-528
-464
-320
-128
-48
32
368
464
480
336
240
192
176
128
96
16
-80
-208
-336
-432
-464
-432
-320
-144
-48
0
352
464
480
304
176
112
112
96
48
-32
-128
-208
-304
-384
-448
-432
-336
-160
-48
0
432
544
544
368
224
176
160
96
32
-64
-160
-224
-304
-384
-464
-480
-416
-224
-64
-16
368
480
512
352
240
208
176
96
32
-64
-128
-176
-240
-336
-448
-448
-384
-208
-64
-48
320
432
480
336
240
176
112
0
-64
-112
-176
-240
-320
-400
-448
-448
-352
-192
-48
-32
272
448
528
416
304
208
144
48
-16
-96
-176
-272
-368
-432
-464
-432
-368
-240
-64
-80
192
384
480
368
240
192
144
80
16
-80
-176
-256
-320
-352
-368
-368
-320
-208
-64
-64
224
400
448
336
224
176
144
80
-16
-128
-240
-320
-352
-384
-416
-416
-336
-224
-64
-64
224
368
432
336
256
240
224
144
32
-80
-176
-272
-320
-384
-448
-448
-368
-224
-80
-96
144
288
352
288
208
192
160
96
32
-64
-144
-224
-304
-384
-432
-400
-304
-160
-48
-80
192
336
416
336
224
176
160
96
48
-32
-128
-240
-368
-448
-480
-432
-336
-192
-64
-96
208
400
480
384
256
208
208
176
160
80
-64
-176
-272
-352
-416
-416
-336
-208
-80
-80
224
432
480
352
208
160
192
160
128
32
-64
-160
-240
-304
-368
-400
-336
-208
-64
-80
288
496
528
416
272
224
208
176
112
16
-80
-160
-240
-320
-432
-480
-416
-256
-80
-80
208
448
512
448
304
240
208
144
96
48
-16
-80
-176
-288
-384
-432
-368
-240
-80
-80
160
416
496
448
304
208
128
80
48
0
-64
-144
-224
-320
-400
-416
-352
-240
-96
-96
144
448
576
528
352
256
208
144
96
16
-64
-160
-240
-320
-384
-416
-400
-320
-144
-96
96
400
512
480
320
240
208
176
112
16
-80
-160
-208
-256
-320
-368
-368
-288
-128
-80
80
384
480
448
320
256
224
160
64
-48
-144
-208
-256
-320
-384
-432
-400
-288
-112
-80
64
368
464
480
368
320
272
176
96
0
-96
-192
-272
-352
-416
-448
-400
-288
-128
-80
0
272
416
448
336
272
240
176
112
32
-64
-176
-272
-352
-400
-400
-336
-224
-112
-64
16
320
432
448
320
240
208
176
112
32
-80
-208
-320
-400
-416
-432
-384
-288
-128
-64
16
352
464
464
320
256
256
256
208
96
-32
-160
-256
-336
-400
-432
-400
-304
-144
-48
16
320
384
368
240
192
192
192
128
48
-48
-144
-240
-320
-400
-464
-416
-288
-112
-48
16
352
432
432
304
224
192
160
96
32
-64
-160
-272
-384
-496
-544
-480
-352
-160
-48
0
320
416
448
320
224
176
144
112
80
16
-80
-224
-336
-448
-496
-464
-352
-176
-64
-32
304
432
464
320
176
128
112
96
64
-16
-112
-224
-320
-400
-448
-432
-352
-192
-64
-16
368
512
512
352
224
176
144
112
48
-48
-128
-224
-304
-368
-448
-480
-416
-256
-80
-32
320
464
496
352
240
192
176
112
48
-32
-96
-144
-208
-304
-416
-432
-368
-208
-64
-48
288
432
480
368
240
176
128
32
-48
-96
-144
-192
-256
-336
-416
-416
-336
-192
-64
-48
288
464
544
448
336
240
176
96
32
-48
-112
-192
-272
-336
-400
-384
-320
-224
-80
-80
224
448
528
448
320
256
224
160
96
0
-96
-192
-256
-288
-320
-320
-288
-192
-64
-64
240
432
512
416
288
224
208
144
64
-64
-176
-272
-304
-352
-384
-384
-320
-208
-64
-64
256
432
496
416
320
288
272
208
96
-32
-144
-224
-304
-368
-432
-432
-368
-224
-64
-80
176
336
416
368
256
240
208
144
80
-16
-112
-208
-304
-384
-448
-416
-304
-176
-32
-48
192
384
448
384
256
208
176
128
80
-16
-112
-240
-368
-464
-496
-448
-352
-208
-64
-64
176
400
496
432
288
224
224
208
176
96
-48
-192
-304
-384
-448
-448
-384
-256
-80
-64
176
400
464
368
208
144
160
144
112
32
-80
-176
-272
-352
-416
-432
-384
-240
-64
-48
224
464
512
432
272
208
192
144
96
0
-96
-176
-256
-352
-464
-528
-464
-304
-96
-64
160
432
496
448
304
224
192
128
80
32
-32
-96
-192
-320
-416
-464
-416
-288
-112
-64
128
400
496
464
304
192
128
64
32
-16
-80
-160
-240
-336
-416
-448
-384
-288
-112
-80
112
432
560
544
352
240
176
128
80
0
-80
-176
-272
-352
-416
-448
-432
-352
-176
-80
64
384
512
496
320
240
192
144
96
0
-96
-176
-240
-272
-336
-384
-384
-304
-144
-64
64
368
480
464
320
240
208
144
32
-64
-176
-224
-272
-320
-384
-432
-400
-304
-128
-64
48
368
480
512
400
336
288
192
96
-16
-96
-176
-256
-336
-400
-432
-400
-288
-144
-64
0
288
432
480
368
288
240
176
112
32
-64
-160
-256
-336
-368
-384
-320
-208
-112
-64
0
320
448
480
336
240
208
176
112
48
-80
-208
-320
-400
-416
-432
-384
-288
-160
-64
0
336
464
480
336
256
256
256
192
96
-32
-160
-272
-352
-416
-448
-416
-320
-176
-64
-16
320
400
416
272
208
208
208
144
64
-32
-144
-240
-320
-400
-464
-432
-320
-144
-48
-16
352
448
464
336
240
208
192
112
48
-32
-128
-240
-384
-480
-544
-480
-352
-192
-64
-16
336
448
512
384
272
208
176
144
112
48
-48
-192
-320
-416
-480
-448
-352
-192
-64
-48
320
464
512
352
208
128
112
96
64
0
-112
-208
-304
-384
-448
-432
-352
-208
-80
-48
384
544
576
400
256
176
160
112
48
-48
-144
-224
-304
-368
-448
-480
-432
-272
-96
-64
320
464
512
400
256
208
192
112
48
-48
-112
-160
-224
-304
-432
-464
-400
-256
-80
-64
256
416
496
400
256
192
128
32
-48
-112
-160
-224
-288
-368
-448
-448
-384
-240
-64
-48
224
432
544
480
352
240
160
80
0
-64
-144
-240
-320
-384
-448
-432
-368
-272
-80
-80
160
384
512
432
288
208
176
112
48
-32
-144
-240
-304
-336
-368
-368
-336
-240
-80
-64
192
416
512
432
288
224
192
128
48
-80
-208
-288
-320
-352
-400
-400
-352
-240
-80
-64
208
416
496
432
320
288
288
224
112
-16
-128
-224
-304
-368
-432
-448
-384
-256
-80
-64
144
336
416
400
288
256
240
176
96
0
-96
-192
-288
-368
-432
-416
-320
-176
-48
-48
160
368
464
432
304
224
192
144
96
0
-96
-240
-368
-464
-512
-464
-368
-240
-80
-64
144
400
480
448
304
224
208
192
160
96
-32
-176
-288
-384
-448
-464
-400
-288
-112
-64
128
400
464
400
224
160
176
160
128
48
-64
-176
-272
-352
-416
-448
-400
-272
-96
-48
176
448
480
432
272
208
192
160
96
16
-80
-160
-256
-352
-464
-528
-496
-336
-128
-64
112
400
480
464
320
256
224
160
112
48
-16
-80
-176
-304
-416
-464
-432
-304
-128
-48
80
368
480
480
320
208
144
80
32
16
-64
-144
-240
-336
-400
-432
-400
-288
-144
-64
80
416
544
560
384
256
192
144
80
16
-64
-160
-256
-336
-400
-448
-432
-368
-208
-80
48
384
512
528
368
272
240
192
128
32
-64
-144
-208
-240
-288
-368
-384
-320
-176
-80
32
368
480
496
352
256
224
160
64
-48
-144
-192
-240
-288
-352
-416
-400
-304
-160
-80
16
368
480
544
432
352
304
208
112
16
-80
-160
-256
-336
-400
-448
-400
-304
-160
-80
-32
288
416
496
384
304
256
192
112
48
-48
-160
-256
-352
-384
-400
-336
-224
-128
-64
-32
320
448
496
352
256
208
176
112
48
-80
-208
-336
-416
-432
-448
-400
-304
-176
-48
-16
336
464
496
368
272
256
256
208
112
-32
-160
-288
-368
-416
-448
-432
-336
-192
-48
-32
304
416
432
304
224
224
224
160
80
-32
-144
-224
-304
-384
-448
-432
-320
-160
-32
-32
336
448
464
352
240
192
176
112
32
-48
-144
-240
-368
-464
-544
-496
-368
-208
-64
-48
288
432
496
384
256
192
176
128
96
48
-48
-208
-336
-432
-496
-464
-384
-224
-64
-64
256
432
496
352
192
112
96
80
48
-16
-112
-224
-320
-400
-464
-448
-384
-256
-80
-48
304
496
544
400
240
176
160
112
64
-32
-128
-224
-304
-384
-464
-496
-464
-320
-96
-48
240
432
496
400
256
192
176
112
48
-32
-96
-160
-224
-304
-432
-480
-432
-288
-96
-64
192
400
480
400
272
192
128
32
-32
-96
-144
-208
-272
-352
-448
-464
-416
-272
-96
-64
176
400
512
480
336
240
176
80
16
-48
-128
-240
-336
-416
-480
-480
-416
-320
-144
-96
96
352
480
432
288
208
176
112
64
-16
-112
-224
-304
-352
-400
-384
-368
-288
-128
-80
128
368
480
432
288
224
208
144
64
-64
-176
-288
-336
-384
-432
-432
-384
-288
-128
-64
144
368
464
432
320
288
272
208
96
-16
-128
-224
-304
-368
-432
-464
-432
-304
-128
-64
96
288
384
384
288
240
224
160
80
-16
-112
-192
-288
-368
-432
-432
-368
-240
-80
-48
112
336
448
448
288
224
176
128
80
0
-96
-224
-336
-448
-496
-480
-416
-272
-112
-64
96
368
464
480
304
208
192
176
144
96
-48
-176
-304
-400
-464
-480
-416
-320
-144
-64
96
368
448
432
240
144
160
144
112
48
-64
-176
-256
-352
-416
-448
-400
-288
-112
-48
144
464
496
480
304
224
192
160
96
16
-80
-160
-240
-336
-448
-528
-496
-336
-160
-64
96
400
480
496
336
240
208
160
96
48
-16
-80
-160
-288
-384
-448
-432
-304
-160
-64
64
368
464
496
336
208
128
64
32
0
-48
-128
-224
-304
-384
-416
-384
-288
-160
-64
48
384
528
560
384
256
176
128
64
16
-64
-160
-256
-336
-384
-432
-432
-368
-240
-96
16
336
480
512
368
256
192
160
96
32
-64
-160
-208
-256
-304
-368
-384
-320
-208
-80
0
336
448
496
368
272
224
160
64
-48
-144
-192
-240
-288
-336
-416
-416
-320
-192
-64
-16
320
448
528
432
352
304
224
128
16
-80
-160
-224
-304
-368
-432
-416
-320
-208
-80
-48
224
384
496
400
304
256
208
128
48
-32
-128
-224
-304
-352
-384
-336
-256
-160
-64
-48
256
416
496
384
272
208
176
128
64
-64
-192
-304
-384
-400
-432
-400
-320
-208
-80
-32
272
432
496
384
272
256
256
208
128
-16
-144
-256
-336
-384
-448
-432
-352
-224
-80
-48
256
368
416
304
224
208
208
160
96
-16
-128
-208
-288
-368
-448
-448
-336
-192
-48
-32
288
416
464
368
256
224
208
144
64
-16
-112
-224
-336
-448
-528
-496
-384
-240
-80
-48
256
416
480
400
272
208
192
160
128
64
-32
-160
-288
-400
-464
-448
-368
-240
-96
-64
224
416
480
384
224
128
112
112
80
16
-80
-192
-304
-384
-448
-432
-384
-272
-96
-48
272
480
544
432
256
176
160
128
64
-16
-112
-208
-288
-368
-448
-480
-464
-336
-128
-64
224
432
512
432
288
224
208
144
64
0
-80
-144
-192
-288
-416
-448
-416
-288
-112
-80
192
416
496
448
304
224
160
80
-16
-64
-112
-176
-240
-320
-400
-432
-384
-256
-96
-64
176
432
544
544
400
272
208
128
48
-16
-112
-192
-272
-352
-416
-416
-368
-288
-144
-96
112
384
512
496
336
240
208
144
80
0
-96
-208
-272
-320
-352
-352
-320
-256
-128
-80
128
400
496
464
304
224
208
160
64
-48
-176
-272
-320
-368
-400
-416
-368
-272
-128
-64
144
400
480
464
336
304
288
240
128
16
-112
-224
-288
-368
-432
-448
-400
-288
-128
-80
80
320
400
416
304
256
240
176
112
16
-80
-176
-256
-352
-416
-416
-352
-224
-80
-48
96
368
448
464
320
240
192
144
96
32
-80
-208
-336
-448
-496
-464
-400
-272
-128
-64
64
368
480
480
320
224
192
192
160
112
-16
-160
-288
-384
-448
-464
-432
-320
-176
-80
48
352
432
416
240
144
144
144
128
64
-48
-160
-272
-352
-416
-464
-448
-336
-160
-64
80
416
480
480
320
224
192
176
112
48
-64
-144
-256
-352
-464
-544
-528
-400
-208
-80
32
352
448
480
336
240
192
144
80
48
-16
-80
-160
-304
-400
-496
-480
-384
-224
-80
0
304
448
496
352
224
128
64
16
0
-64
-128
-224
-336
-416
-464
-448
-352
-224
-80
0
352
496
576
416
256
176
128
64
16
-64
-160
-256
-336
-400
-464
-480
-432
-304
-112
-32
288
464
528
384
256
192
160
96
32
-64
-160
-224
-272
-320
-384
-432
-384
-272
-96
-32
272
432
496
384
272
224
176
96
-32
-128
-192
-256
-304
-368
-448
-448
-368
-240
-96
-48
272
416
512
432
336
288
208
112
16
-80
-160
-240
-320
-384
-464
-448
-368
-256
-112
-64
176
352
480
400
304
256
208
128
48
-48
-128
-240
-320
-384
-400
-368
-288
-192
-96
-64
224
400
480
400
272
208
176
128
64
-48
-176
-304
-400
-416
-448
-416
-352
-240
-96
-48
256
432
496
400
288
256
256
208
128
0
-128
-256
-336
-384
-448
-432
-368
-256
-96
-48
240
384
432
336
240
224
224
176
96
0
-112
-208
-288
-368
-448
-448
-352
-208
-64
-48
256
432
480
400
272
224
192
144
64
-16
-112
-208
-320
-448
-528
-512
-400
-256
-96
-48
224
416
512
448
304
224
208
160
128
80
-16
-160
-288
-384
-464
-464
-400
-272
-112
-80
208
416
512
432
256
160
128
128
96
32
-64
-176
-272
-352
-416
-432
-400
-288
-128
-64
240
496
576
480
304
208
176
144
96
16
-96
-192
-272
-352
-432
-480
-464
-352
-160
-80
192
432
512
480
320
240
224
160
96
16
-64
-128
-176
-256
-384
-448
-432
-320
-144
-80
144
400
480
480
320
240
176
96
0
-48
-96
-176
-240
-336
-416
-448
-416
-304
-144
-80
128
400
528
560
416
288
224
144
64
0
-80
-176
-272
-368
-432
-448
-416
-320
-192
-96
48
352
480
512
352
256
208
160
96
32
-80
-192
-272
-336
-368
-384
-368
-304
-176
-96
64
352
480
480
320
240
208
160
80
-16
-144
-256
-304
-352
-400
-416
-400
-304
-176
-80
80
352
464
480
352
304
288
240
144
32
-96
-192
-272
-352
-416
-464
-432
-320
-176
-80
32
272
368
432
320
256
240
192
112
32
-64
-160
-256
-352
-416
-432
-384
-256
-128
-48
64
320
432
480
336
256
208
176
112
48
-64
-176
-304
-432
-480
-480
-432
-304
-176
-80
32
336
464
512
352
240
224
208
192
128
16
-144
-256
-368
-432
-480
-448
-352
-208
-80
16
336
448
464
272
160
160
160
128
80
-32
-144
-256
-336
-400
-464
-448
-336
-176
-64
48
432
480
512
336
224
192
160
112
48
-64
-144
-240
-352
-448
-544
-528
-400
-224
-80
16
368
464
512
384
256
208
160
112
64
0
-64
-160
-288
-400
-480
-464
-368
-240
-80
-16
304
448
512
384
240
160
96
32
16
-32
-112
-208
-320
-400
-448
-432
-352
-240
-96
-16
336
496
592
448
272
192
144
96
32
-32
-128
-240
-320
-384
-448
-464
-416
-320
-144
-48
272
448
528
416
272
208
176
112
48
-48
-128
-208
-256
-304
-368
-416
-368
-272
-112
-48
272
432
496
400
288
224
176
80
-16
-112
-176
-240
-288
-336
-416
-432
-368
-256
-96
-48
256
432
528
480
368
304
224
128
32
-64
-144
-240
-304
-368
-448
-448
-384
-272
-128
-80
128
352
496
448
336
256
208
144
64
-16
-112
-224
-304
-368
-400
-368
-288
-208
-96
-64
192
384
496
448
304
224
192
144
80
-32
-160
-304
-384
-416
-448
-432
-368
-256
-112
-64
192
416
496
448
304
256
272
224
144
16
-112
-240
-320
-384
-448
-448
-400
-272
-128
-64
192
368
416
368
256
224
224
192
112
16
-96
-192
-288
-368
-448
-464
-384
-240
-80
-48
224
400
464
432
288
240
208
160
96
16
-80
-192
-304
-432
-512
-512
-432
-288
-128
-48
176
400
480
464
320
240
208
176
144
96
0
-128
-272
-384
-464
-464
-416
-304
-144
-80
144
384
480
448
256
160
128
128
96
48
-48
-176
-272
-368
-432
-464
-432
-320
-160
-64
192
464
544
496
304
208
176
160
96
32
-80
-176
-256
-352
-432
-496
-496
-400
-208
-64
144
416
512
512
336
256
224
176
112
32
-48
-112
-160
-256
-384
-464
-464
-352
-192
-80
112
384
496
528
368
272
208
128
48
-16
-80
-144
-208
-304
-384
-448
-416
-320
-176
-80
96
384
544
592
448
320
240
160
96
32
-64
-160
-240
-336
-400
-432
-416
-320
-224
-112
16
336
480
544
400
288
224
176
112
48
-64
-160
-240
-304
-336
-368
-352
-304
-192
-96
48
336
464
496
352
256
224
192
112
0
-128
-240
-304
-352
-384
-416
-400
-320
-192
-80
48
352
464
512
384
320
304
256
160
48
-64
-176
-256
-336
-400
-448
-432
-336
-192
-80
16
272
384
464
368
304
288
240
160
80
-32
-128
-208
-320
-384
-432
-384
-256
-144
-48
32
320
448
512
384
288
240
192
144
64
-32
-144
-288
-416
-480
-480
-448
-320
-192
-80
0
336
464
528
400
272
240
224
208
160
32
-112
-240
-352
-432
-480
-464
-368
-240
-96
-16
336
448
480
320
176
176
176
144
96
-16
-128
-240
-320
-400
-464
-464
-368
-224
-80
16
400
480
528
368
240
192
176
128
64
-32
-128
-224
-320
-416
-528
-544
-432
-272
-96
-16
320
464
528
416
304
240
208
144
96
32
-32
-128
-256
-368
-464
-464
-384
-256
-96
-32
272
448
544
432
272
176
112
64
48
-16
-80
-176
-272
-368
-432
-432
-368
-256
-112
-48
304
496
608
496
304
208
176
128
64
-16
-112
-208
-288
-368
-432
-464
-432
-352
-176
-80
224
448
544
464
304
224
192
144
80
-16
-112
-176
-224
-272
-368
-416
-384
-304
-144
-64
208
416
512
448
304
240
192
112
0
-96
-160
-224
-272
-336
-416
-448
-400
-288
-128
-64
208
400
528
512
384
320
240
160
64
-32
-128
-208
-288
-352
-432
-432
-384
-288
-144
-96
96
336
496
480
352
272
224
160
80
0
-96
-208
-288
-352
-384
-368
-304
-224
-128
-80
144
368
480
464
304
224
192
144
80
-16
-144
-272
-368
-400
-432
-432
-368
-272
-144
-80
160
400
496
464
320
256
256
240
160
32
-96
-224
-320
-384
-432
-448
-400
-304
-160
-64
128
352
416
384
256
224
208
176
112
16
-96
-208
-288
-368
-448
-480
-400
-256
-96
-48
176
384
448
448
304
224
192
144
64
0
-96
-208
-320
-448
-528
-544
-448
-320
-160
-64
128
368
480
480
336
240
192
160
112
80
-16
-144
-272
-384
-464
-496
-448
-320
-192
-80
80
352
480
480
288
160
128
128
80
48
-48
-160
-256
-352
-416
-464
-448
-336
-192
-80
128
448
544
528
352
224
192
160
96
32
-80
-176
-256
-336
-416
-496
-496
-416
-240
-80
80
368
480
512
352
256
224
176
112
32
-48
-112
-160
-256
-368
-448
-464
-368
-224
-96
48
336
448
512
384
272
192
128
32
-32
-80
-144
-224
-320
-400
-448
-432
-336
-208
-80
32
336
496
576
464
336
256
176
96
32
-48
-144
-240
-336
-400
-448
-432
-352
-256
-128
-64
256
448
544
416
304
240
208
144
80
-32
-144
-224
-288
-320
-368
-368
-320
-224
-112
-16
304
448
528
400
288
240
208
128
32
-96
-208
-288
-336
-368
-416
-400
-320
-208
-96
16
320
432
496
416
336
320
288
176
80
-48
-160
-256
-336
-400
-464
-448
-352
-224
-96
-16
240
368
448
384
288
272
240
176
96
-16
-112
-224
-320
-400
-448
-400
-288
-160
-64
0
288
416
496
400
288
240
208
160
96
0
-128
-256
-400
-464
-480
-448
-336
-208
-96
-16
288
448
528
416
288
240
240
224
176
80
-80
-208
-320
-400
-448
-448
-368
-256
-112
-32
288
432
496
368
224
192
192
176
128
32
-80
-192
-288
-368
-432
-448
-368
-224
-80
16
384
464
528
416
272
208
192
144
80
-16
-96
-192
-288
-400
-512
-544
-448
-288
-112
-32
320
448
528
448
304
256
208
160
112
48
-16
-96
-224
-352
-448
-480
-400
-272
-128
-48
240
432
512
448
272
176
112
64
48
0
-64
-160
-272
-352
-432
-432
-384
-272
-128
-64
256
496
592
528
320
208
160
112
80
0
-80
-192
-272
-336
-416
-448
-432
-352
-208
-96
176
432
528
480
304
224
176
144
64
-16
-96
-160
-208
-256
-336
-400
-384
-304
-176
-80
160
400
496
448
304
224
176
96
0
-96
-160
-208
-272
-336
-416
-448
-416
-304
-160
-80
160
400
512
528
416
336
272
176
80
-16
-96
-192
-272
-352
-432
-448
-416
-304
-192
-96
32
304
480
496
368
272
224
176
96
16
-80
-192
-288
-368
-400
-400
-336
-256
-160
-80
80
352
480
496
336
240
192
160
96
0
-128
-272
-368
-400
-432
-448
-400
-304
-176
-80
96
368
480
496
336
256
256
240
160
48
-80
-208
-304
-368
-432
-464
-432
-320
-176
-80
80
320
400
400
272
224
208
176
112
32
-80
-176
-272
-352
-432
-480
-416
-288
-128
-48
128
368
448
464
336
240
208
160
96
32
-64
-160
-288
-400
-496
-528
-448
-336
-176
-64
64
336
464
512
368
256
208
176
144
112
32
-96
-240
-352
-432
-480
-432
-336
-208
-80
32
336
464
496
320
192
128
128
96
64
-32
-144
-240
-336
-400
-448
-432
-352
-224
-80
80
432
528
544
384
240
192
160
112
48
-64
-160
-240
-320
-384
-480
-496
-416
-272
-96
32
352
464
528
400
272
224
192
112
48
-32
-96
-144
-224
-336
-432
-464
-384
-240
-96
0
320
448
512
400
272
208
128
32
-32
-64
-128
-208
-288
-368
-432
-432
-352
-224
-96
-16
288
480
592
496
352
256
192
112
32
-48
-144
-240
-336
-400
-464
-448
-384
-288
-144
-96
208
432
544
448
304
240
192
128
64
-48
-160
-256
-320
-352
-400
-400
-352
-272
-128
-64
240
432
512
416
288
240
208
128
16
-112
-224
-304
-352
-384
-432
-432
-368
-256
-112
-32
272
416
496
432
336
304
272
176
80
-48
-160
-240
-320
-384
-448
-448
-384
-256
-112
-48
176
336
432
400
304
256
224
160
80
-16
-112
-208
-304
-384
-432
-400
-304
-176
-64
-32
224
400
496
432
320
256
224
176
112
16
-112
-240
-368
-432
-464
-432
-352
-224
-112
-48
256
432
528
448
304
240
240
224
192
80
-64
-208
-320
-400
-464
-464
-400
-288
-144
-48
240
416
480
384
224
192
208
176
128
32
-80
-192
-304
-384
-464
-480
-416
-256
-112
-16
336
464
512
432
272
224
192
160
96
0
-80
-192
-304
-416
-528
-560
-496
-320
-144
-48
240
432
512
464
304
224
192
144
96
48
-16
-112
-224
-352
-464
-496
-432
-304
-160
-64
176
400
512
496
304
192
128
96
64
16
-48
-144
-240
-336
-416
-448
-400
-288
-160
-80
208
480
592
576
352
240
192
144
96
32
-64
-160
-240
-320
-400
-464
-448
-384
-240
-112
112
416
544
528
352
256
224
192
112
32
-64
-144
-192
-240
-320
-416
-416
-336
-192
-96
112
384
496
496
352
256
208
144
48
-48
-128
-192
-240
-304
-384
-448
-416
-320
-176
-80
96
368
496
544
432
336
256
176
80
0
-80
-176
-256
-352
-416
-448
-416
-320
-208
-112
-16
272
448
512
384
288
224
176
112
48
-48
-160
-256
-336
-368
-384
-336
-256
-160
-80
64
336
464
528
368
256
224
192
128
48
-80
-224
-336
-384
-416
-432
-400
-320
-192
-80
64
368
480
512
384
288
272
272
208
96
-32
-176
-272
-336
-400
-448
-432
-336
-192
-80
48
320
400
432
320
256
224
208
144
64
-48
-144
-240
-336
-416
-480
-432
-304
-144
-48
80
368
432
496
368
256
208
176
112
48
-48
-144
-272
-384
-496
-544
-480
-368
-208
-80
16
320
448
528
400
272
208
192
160
128
48
-64
-224
-352
-432
-480
-464
-368
-240
-96
-16
304
448
528
368
208
144
144
112
80
0
-112
-224
-304
-384
-448
-448
-384
-256
-96
16
400
528
560
432
272
208
192
128
64
-32
-128
-224
-304
-384
-480
-512
-448
-304
-112
-32
320
464
528
416
288
224
192
112
48
-32
-96
-144
-224
-336
-448
-480
-400
-272
-128
-48
272
416
512
416
288
208
128
48
-16
-64
-128
-192
-272
-352
-432
-448
-384
-256
-112
-48
240
448
576
512
352
240
192
96
32
-32
-128
-224
-320
-384
-432
-448
-400
-304
-176
-112
144
416
528
464
320
240
208
144
80
-16
-112
-224
-272
-320
-368
-384
-368
-288
-144
-80
208
416
528
464
320
256
224
160
64
-80
-192
-272
-320
-368
-416
-432
-368
-272
-128
-48
240
416
512
480
368
320
288
208
96
-32
-144
-240
-320
-384
-448
-464
-400
-272
-144
-80
144
336
432
432
320
272
240
176
96
0
-96
-208
-304
-384
-448
-432
-352
-224
-96
-48
160
368
480
464
320
240
208
144
96
0
-112
-256
-384
-464
-496
-480
-400
-272
-144
-64
176
400
512
480
320
240
240
224
176
96
-64
-208
-320
-400
-464
-480
-432
-320
-176
-80
160
384
480
416
256
192
192
176
128
32
-80
-192
-272
-368
-432
-480
-432
-288
-128
-32
256
448
496
464
304
224
208
160
96
16
-80
-176
-272
-384
-496
-560
-512
-336
-176
-64
176
416
496
496
336
256
208
160
112
64
0
-80
-208
-336
-432
-496
-448
-336
-192
-80
112
368
496
512
336
208
144
96
64
32
-32
-128
-240
-336
-432
-464
-432
-336
-192
-96
128
448
576
608
400
272
208
160
112
48
-48
-160
-256
-336
-416
-480
-480
-416
-288
-128
48
384
512
560
384
272
224
192
128
32
-64
-128
-192
-240
-320
-416
-432
-368
-240
-112
48
368
480
528
384
272
224
160
64
-48
-128
-176
-240
-304
-384
-448
-448
-352
-224
-96
32
352
480
560
448
352
288
208
96
16
-64
-160
-240
-336
-416
-464
-448
-352
-256
-128
-64
224
432
528
416
304
240
192
128
48
-48
-144
-256
-336
-384
-400
-352
-288
-208
-96
-16
304
464
544
416
288
224
208
144
48
-80
-208
-320
-384
-400
-432
-416
-336
-224
-96
0
352
480
544
416
320
288
288
224
112
-32
-160
-256
-336
-384
-448
-432
-352
-224
-96
0
320
416
464
368
288
256
240
176
80
-16
-128
-224
-304
-384
-448
-432
-320
-176
-48
32
352
448
512
416
288
240
208
144
80
-16
-112
-240
-352
-464
-528
-480
-384
-224
-96
-16
304
448
528
448
304
240
208
176
144
80
-48
-208
-320
-432
-480
-464
-384
-256
-112
-48
288
448
512
400
224
160
160
160
112
32
-80
-208
-304
-384
-464
-464
-400
-272
-112
-32
352
512
544
448
272
208
192
144
80
-16
-112
-224
-320
-400
-496
-528
-480
-352
-144
-64
272
448
528
448
304
240
208
144
80
0
-64
-144
-224
-336
-464
-496
-448
-304
-144
-64
208
416
528
480
320
208
144
64
0
-32
-112
-176
-272
-368
-448
-464
-400
-288
-144
-64
192
448
592
576
400
256
192
112
64
-16
-96
-208
-304
-384
-448
-448
-416
-320
-192
-112
112
400
528
512
352
256
224
160
112
16
-96
-208
-272
-320
-368
-384
-384
-304
-176
-96
144
400
512
496
320
256
224
160
64
-64
-176
-272
-320
-368
-416
-448
-400
-288
-160
-80
160
400
496
512
384
336
304
224
112
0
-128
-224
-304
-384
-448
-480
-432
-304
-160
-96
80
304
432
464
352
272
240
176
96
16
-80
-176
-272
-352
-416
-416
-352
-224
-112
-64
112
352
480
496
352
272
208
160
112
32
-80
-224
-336
-432
-464
-464
-400
-288
-160
-80
112
384
496
528
368
272
256
240
208
128
-32
-160
-288
-368
-432
-480
-448
-336
-192
-96
96
384
464
464
288
208
224
208
160
80
-32
-160
-256
-352
-432
-480
-448
-320
-176
-64
144
448
496
512
352
256
224
192
128
48
-48
-144
-256
-384
-480
-576
-528
-384
-208
-80
80
400
496
528
384
288
224
176
128
80
16
-64
-192
-336
-432
-512
-480
-384
-240
-96
16
352
496
544
384
240
144
96
64
32
-32
-128
-240
-352
-432
-496
-464
-368
-240
-96
32
416
560
608
432
272
208
160
96
32
-48
-160
-272
-352
-416
-496
-512
-448
-320
-144
-16
368
512
576
432
304
240
208
128
48
-48
-128
-192
-240
-304
-416
-448
-384
-256
-112
-16
368
496
576
448
320
256
192
80
-16
-112
-160
-224
-288
-352
-448
-448
-368
-240
-96
-32
336
496
592
512
400
304
224
128
32
-48
-144
-224
-288
-368
-448
-432
-368
-256
-128
-80
192
432
544
480
336
256
224
144
80
-16
-128
-224
-304
-352
-384
-368
-304
-224
-112
-64
272
448
544
448
304
240
224
160
80
-32
-176
-304
-368
-400
-432
-432
-368
-256
-112
-64
288
464
544
464
336
304
304
256
144
16
-112
-224
-304
-368
-432
-432
-368
-256
-112
-64
256
416
464
400
304
272
272
208
128
32
-80
-176
-272
-352
-432
-416
-336
-176
-64
-64
288
448
528
464
336
272
240
176
112
32
-64
-192
-304
-432
-496
-464
-384
-240
-112
-96
240
464
560
512
352
272
240
224
192
128
16
-144
-272
-384
-448
-448
-384
-256
-128
-96
208
464
544
464
272
176
176
176
128
64
-48
-176
-272
-352
-432
-464
-416
-304
-144
-80
240
512
560
512
304
224
208
160
112
16
-96
-192
-288
-368
-464
-528
-496
-384
-176
-80
160
432
512
496
320
240
208
160
80
16
-64
-128
-208
-320
-432
-496
-464
-352
-176
-80
112
384
480
496
320
208
144
64
0
-48
-112
-176
-256
-368
-448
-480
-448
-336
-176
-80
96
400
544
576
416
272
192
128
64
0
-96
-192
-288
-368
-432
-464
-448
-368
-240
-112
48
352
496
544
368
256
208
160
96
16
-96
-192
-256
-320
-352
-400
-416
-336
-208
-96
64
368
496
528
368
272
224
176
80
-32
-160
-256
-304
-368
-416
-464
-432
-336
-192
-80
64
368
480
528
400
336
304
224
112
0
-112
-208
-304
-384
-448
-496
-464
-336
-208
-96
0
272
384
480
352
272
240
192
112
32
-80
-176
-288
-384
-448
-464
-400
-288
-160
-80
16
320
448
512
368
272
224
176
112
48
-80
-208
-352
-448
-480
-496
-432
-320
-192
-80
0
336
464
512
368
256
240
224
192
128
-16
-160
-288
-384
-432
-496
-464
-368
-240
-96
0
352
448
480
336
240
224
224
176
96
-16
-144
-240
-320
-400
-464
-464
-352
-192
-64
32
400
480
512
384
272
224
192
128
64
-32
-144
-240
-352
-464
-560
-544
-416
-256
-80
-16
336
480
544
432
304
224
192
144
96
32
-48
-160
-304
-416
-496
-496
-416
-272
-96
-32
288
464
544
416
240
144
112
80
48
-16
-112
-224
-320
-416
-480
-480
-400
-272
-112
-48
336
528
608
464
288
192
160
112
48
-32
-128
-240
-320
-400
-480
-512
-464
-368
-160
-64
272
480
560
464
320
240
208
144
64
-32
-112
-192
-240
-304
-416
-464
-416
-304
-128
-64
256
448
528
448
304
240
176
80
-16
-112
-160
-224
-288
-368
-464
-480
-416
-288
-128
-64
224
432
560
528
400
304
224
128
32
-48
-128
-224
-320
-400
-464
-480
-416
-320
-160
-96
112
368
512
496
336
256
192
128
64
-16
-128
-240
-320
-368
-416
-400
-352
-272
-144
-80
160
400
512
480
304
224
192
144
64
-48
-192
-320
-400
-432
-464
-464
-416
-320
-160
-80
176
416
512
480
336
288
288
240
128
0
-128
-256
-320
-400
-464
-480
-432
-320
-160
-80
128
336
432
416
304
256
240
192
112
16
-96
-208
-304
-400
-464
-480
-416
-256
-96
-48
160
384
480
480
320
256
224
176
96
32
-80
-208
-336
-448
-528
-512
-432
-304
-144
-64
144
400
512
512
352
256
224
192
160
112
0
-160
-272
-400
-464
-480
-432
-304
-176
-80
128
400
496
480
288
160
144
144
112
64
-48
-176
-272
-368
-432
-464
-448
-336
-176
-64
176
480
544
528
336
240
208
176
112
32
-80
-176
-256
-352
-448
-528
-528
-400
-208
-80
112
432
528
544
368
272
240
176
112
48
-16
-96
-176
-288
-400
-496
-480
-368
-208
-96
64
368
496
544
384
256
176
112
48
0
-64
-128
-224
-320
-416
-464
-448
-336
-208
-80
48
384
544
608
448
288
208
144
96
32
-64
-160
-272
-368
-432
-464
-448
-384
-272
-128
-32
304
480
544
400
272
224
176
112
48
-64
-160
-240
-304
-352
-400
-416
-352
-256
-112
0
320
464
528
384
272
224
192
96
0
-128
-224
-288
-352
-384
-448
-448
-352
-240
-96
0
336
464
544
448
368
320
256
144
48
-64
-160
-256
-336
-400
-480
-464
-368
-240
-96
-48
224
400
512
416
320
272
224
144
64
-32
-128
-224
-320
-384
-432
-384
-288
-176
-80
-16
272
432
528
432
304
240
208
144
80
-32
-160
-304
-416
-464
-480
-448
-336
-224
-96
-32
304
464
528
416
288
256
256
224
160
16
-112
-256
-352
-416
-480
-464
-384
-272
-112
-32
304
432
480
352
224
208
208
176
112
0
-112
-224
-336
-400
-480
-480
-384
-240
-80
0
368
464
512
416
272
224
208
144
80
-16
-112
-224
-336
-448
-560
-560
-432
-288
-112
-32
288
448
528
464
320
240
192
144
112
64
-16
-128
-272
-384
-480
-496
-416
-288
-128
-64
240
448
544
464
288
176
128
96
64
16
-64
-192
-288
-384
-464
-464
-400
-288
-144
-64
272
512
592
512
320
224
176
144
80
0
-96
-208
-288
-352
-448
-496
-480
-384
-208
-80
208
464
560
512
352
256
224
176
96
0
-80
-144
-192
-256
-368
-448
-432
-320
-160
-80
192
432
528
496
352
272
208
128
16
-64
-112
-192
-240
-320
-416
-448
-416
-304
-144
-80
176
432
576
592
448
336
256
176
80
-16
-96
-192
-272
-352
-432
-464
-416
-320
-192
-112
64
368
528
544
400
288
240
176
112
32
-80
-192
-272
-336
-384
-384
-352
-272
-160
-96
112
400
512
528
368
272
240
192
112
0
-144
-272
-352
-384
-432
-448
-416
-320
-192
-80
112
400
512
528
384
320
320
272
176
48
-80
-208
-288
-368
-432
-464
-432
-320
-176
-80
80
352
448
464
352
288
288
240
160
64
-64
-160
-256
-352
-432
-464
-400
-272
-128
-48
112
384
480
512
368
272
240
192
128
48
-48
-176
-304
-432
-496
-512
-448
-320
-176
-80
64
368
496
544
384
272
224
208
176
128
16
-128
-256
-384
-448
-496
-464
-352
-208
-96
32
352
480
512
320
176
160
160
128
80
-32
-144
-256
-352
-416
-480
-480
-384
-224
-80
64
432
512
544
368
240
208
176
112
48
-64
-160
-240
-336
-432
-528
-544
-448
-256
-96
16
368
480
544
400
288
224
192
128
64
-16
-80
-160
-272
-400
-496
-496
-400
-240
-96
0
320
464
544
416
272
192
128
48
16
-48
-112
-208
-304
-400
-464
-464
-368
-240
-96
-16
336
512
624
512
320
240
176
112
64
-32
-128
-240
-320
-384
-464
-464
-416
-320
-160
-80
256
464
576
464
320
256
224
160
80
-16
-128
-208
-272
-304
-368
-416
-384
-288
-128
-48
288
464
560
448
320
256
224
144
32
-96
-192
-256
-304
-352
-432
-432
-368
-256
-112
-48
288
448
560
496
400
352
288
192
80
-32
-144
-240
-320
-384
-464
-464
-384
-256
-128
-80
176
368
496
448
336
272
224
160
80
-16
-112
-224
-320
-400
-432
-416
-320
-208
-112
-64
208
416
512
464
320
240
208
144
96
-16
-144
-304
-416
-464
-480
-464
-384
-272
-128
-64
224
432
528
464
304
240
240
224
160
32
-112
-256
-352
-416
-480
-480
-416
-304
-144
-64
224
416
480
400
256
208
208
176
112
16
-96
-224
-320
-400
-480
-480
-416
-256
-96
-32
288
448
512
464
320
240
224
176
96
16
-96
-208
-320
-448
-544
-560
-464
-304
-128
-64
208
432
512
496
336
256
208
160
128
80
0
-112
-256
-384
-480
-496
-448
-320
-160
-80
160
416
528
512
336
208
160
128
96
48
-48
-160
-272
-368
-432
-464
-432
-320
-176
-80
176
496
592
560
368
240
192
160
96
32
-64
-176
-272
-352
-432
-496
-496
-416
-240
-96
128
448
544
544
368
272
224
176
96
32
-64
-128
-192
-272
-368
-464
-448
-352
-208
-96
112
416
512
528
384
288
224
144
32
-48
-96
-176
-240
-336
-416
-480
-448
-336
-192
-96
80
400
528
592
464
352
256
176
80
16
-80
-176
-256
-352
-432
-464
-448
-368
-240
-128
-16
304
496
560
432
320
256
208
128
48
-48
-176
-272
-336
-368
-400
-368
-304
-208
-112
16
352
496
544
400
288
240
208
128
16
-112
-256
-336
-384
-416
-448
-432
-352
-224
-96
32
368
480
544
416
320
304
288
176
64
-64
-192
-288
-368
-432
-480
-464
-352
-224
-96
16
320
416
464
384
288
272
240
160
64
-48
-144
-256
-352
-432
-496
-448
-320
-160
-64
32
352
464
528
416
288
256
208
144
80
-16
-144
-272
-416
-496
-528
-464
-352
-208
-80
-16
336
480
560
416
288
240
224
192
160
64
-96
-224
-352
-432
-464
-448
-352
-240
-96
-32
336
464
512
352
208
160
176
144
96
0
-112
-224
-320
-384
-448
-448
-368
-240
-80
-16
400
512
544
400
256
208
192
144
64
-32
-128
-208
-304
-400
-496
-528
-448
-272
-112
-32
320
464
528
432
288
240
192
144
80
16
-48
-128
-240
-368
-464
-496
-416
-272
-128
-64
256
448
528
448
288
192
128
64
32
-16
-96
-176
-272
-368
-448
-464
-400
-288
-128
-64
256
480
608
544
336
240
176
128
64
-16
-112
-224
-320
-400
-464
-480
-448
-352
-192
-96
192
432
560
496
320
240
208
144
80
-16
-128
-208
-256
-304
-384
-432
-416
-336
-160
-80
192
432
528
480
320
256
208
128
32
-96
-192
-256
-320
-368
-448
-464
-416
-304
-144
-80
176
416
544
528
384
336
288
176
80
-16
-112
-224
-320
-384
-480
-496
-432
-320
-160
-96
80
336
480
496
352
272
224
176
96
16
-80
-192
-288
-384
-432
-416
-352
-240
-144
-80
128
384
512
496
336
240
208
176
112
32
-112
-256
-368
-432
-464
-464
-400
-288
-160
-80
144
416
512
512
336
256
256
240
192
80
-64
-208
-304
-384
-448
-480
-448
-336
-192
-80
128
384
448
432
272
224
224
192
144
48
-64
-176
-272
-352
-432
-480
-432
-288
-128
-48
160
416
480
496
336
256
224
176
96
32
-64
-176
-288
-416
-528
-576
-496
-352
-176
-80
96
400
512
544
400
272
224
176
128
96
16
-96
-240
-352
-448
-496
-448
-352
-192
-80
64
384
496
528
352
208
144
112
80
32
-48
-160
-272
-368
-432
-480
-448
-352
-208
-96
80
464
576
576
400
256
192
160
96
32
-64
-176
-272
-352
-432
-512
-528
-448
-288
-112
32
400
512
560
416
288
240
192
112
32
-48
-128
-192
-272
-368
-464
-480
-400
-256
-96
16
336
464
528
400
288
224
144
32
-48
-96
-160
-240
-320
-416
-480
-464
-384
-240
-96
-16
336
496
608
512
384
272
208
112
32
-64
-144
-240
-336
-416
-464
-464
-384
-288
-128
-80
224
448
560
448
320
256
208
128
64
-48
-144
-256
-336
-368
-400
-384
-336
-240
-112
-48
272
448
544
432
288
240
224
144
48
-96
-224
-320
-352
-400
-448
-448
-368
-256
-112
-32
304
464
528
448
352
320
304
224
96
-32
-160
-256
-336
-400
-464
-464
-384
-256
-112
-48
240
368
448
400
304
272
240
160
80
-16
-128
-224
-320
-416
-480
-448
-336
-192
-64
-32
288
432
512
448
320
272
240
176
96
0
-128
-256
-384
-480
-512
-480
-384
-240
-96
-48
272
448
544
464
304
240
224
208
160
80
-80
-224
-352
-432
-496
-496
-416
-288
-128
-64
256
448
512
400
224
160
192
160
112
16
-96
-224
-320
-400
-464
-496
-432
-288
-112
-48
320
512
560
464
288
224
192
160
96
0
-112
-208
-304
-416
-528
-560
-496
-336
-144
-64
240
448
544
480
320
240
192
144
96
32
-32
-128
-240
-384
-480
-528
-464
-320
-160
-80
176
432
544
512
336
224
160
96
64
16
-64
-160
-272
-384
-464
-496
-432
-320
-176
-80
176
464
608
592
384
256
192
144
96
16
-80
-192
-304
-384
-464
-496
-480
-384
-240
-112
112
416
544
544
368
272
224
176
112
32
-80
-176
-240
-304
-368
-432
-448
-352
-208
-96
128
416
528
528
368
272
224
160
64
-64
-160
-224
-272
-336
-400
-448
-432
-320
-176
-80
112
400
528
576
432
352
288
192
96
0
-96
-192
-272
-352
-432
-480
-432
-320
-192
-112
32
304
480
528
400
304
256
208
128
48
-48
-160
-256
-352
-400
-416
-368
-256
-160
-80
64
368
496
544
384
288
224
192
128
48
-80
-240
-352
-432
-448
-464
-432
-336
-208
-96
48
368
496
528
384
288
272
256
208
96
-48
-192
-304
-384
-432
-496
-464
-368
-224
-96
32
336
448
464
320
240
224
208
144
48
-48
-176
-272
-368
-432
-496
-464
-336
-176
-48
64
384
464
512
368
256
208
176
96
32
-64
-160
-288
-400
-512
-592
-528
-384
-224
-80
16
368
480
544
416
288
224
192
144
112
32
-64
-224
-352
-448
-512
-480
-384
-240
-96
0
336
480
544
400
224
144
128
112
80
0
-112
-224
-336
-416
-480
-464
-384
-256
-96
0
416
560
592
448
288
208
192
128
64
-16
-128
-240
-320
-400
-496
-512
-464
-336
-128
-32
352
496
560
448
304
240
208
128
64
-16
-96
-160
-240
-336
-448
-480
-416
-288
-128
-48
304
448
544
448
304
224
160
64
-16
-80
-144
-208
-288
-384
-464
-464
-384
-256
-112
-48
272
480
592
528
384
272
208
112
48
-32
-128
-224
-320
-400
-448
-464
-400
-304
-160
-96
160
432
544
496
336
256
224
160
80
0
-112
-224
-304
-352
-384
-384
-352
-256
-144
-80
224
432
544
480
320
256
224
160
64
-64
-192
-288
-336
-384
-432
-448
-400
-272
-128
-80
240
448
544
496
368
320
304
224
112
-16
-128
-240
-320
-384
-464
-480
-416
-288
-128
-80
176
368
464
448
336
288
256
192
96
0
-96
-208
-304
-400
-464
-464
-368
-224
-96
-64
208
416
512
480
336
256
224
176
112
32
-96
-240
-368
-480
-528
-496
-432
-288
-144
-80
176
416
528
512
336
256
240
224
192
112
-32
-192
-336
-432
-496
-496
-448
-320
-176
-80
160
416
496
448
256
176
192
176
144
64
-64
-192
-288
-368
-448
-496
-448
-320
-144
-64
208
496
544
512
336
240
224
176
112
32
-80
-176
-272
-384
-480
-560
-528
-368
-192
-80
144
448
528
544
368
288
240
192
112
64
0
-80
-176
-320
-432
-512
-464
-352
-192
-96
96
416
528
560
384
240
176
112
64
32
-48
-128
-240
-352
-432
-480
-448
-352
-208
-96
96
448
608
656
448
304
224
176
112
48
-64
-160
-272
-352
-432
-480
-480
-400
-272
-128
32
384
528
576
400
288
240
192
128
32
-64
-160
-240
-304
-352
-432
-464
-384
-256
-112
16
368
496
544
400
288
240
176
80
-32
-144
-208
-272
-320
-400
-464
-464
-368
-224
-96
16
336
480
576
464
368
304
224
112
16
-80
-176
-272
-352
-432
-496
-480
-384
-240
-112
-64
240
432
544
432
304
256
208
128
48
-48
-144
-272
-352
-400
-432
-400
-304
-208
-96
-32
304
480
560
432
304
240
224
160
80
-64
-208
-336
-416
-432
-464
-432
-352
-240
-96
-32
336
480
560
432
304
272
288
224
128
-16
-160
-288
-368
-432
-480
-480
-400
-256
-96
-32
320
432
480
368
256
240
240
176
96
-16
-128
-240
-336
-416
-480
-480
-368
-208
-64
0
336
448
528
416
288
224
208
144
64
-16
-128
-256
-384
-496
-576
-544
-416
-256
-96
-48
288
448
544
448
304
224
192
144
112
64
-48
-192
-320
-432
-512
-496
-416
-288
-128
-64
256
464
544
448
256
160
144
144
96
16
-80
-208
-320
-416
-480
-480
-416
-288
-128
-64
320
528
576
480
288
192
176
128
64
-16
-128
-240
-320
-400
-496
-544
-528
-400
-176
-80
240
464
544
496
320
240
208
144
64
-16
-80
-160
-224
-320
-448
-512
-480
-352
-160
-80
176
416
512
496
320
224
160
64
-16
-80
-128
-208
-288
-384
-480
-496
-448
-320
-160
-80
160
432
560
560
400
272
192
112
32
-32
-112
-208
-304
-400
-464
-480
-448
-368
-208
-112
48
384
528
544
368
288
240
176
96
16
-96
-224
-320
-368
-416
-416
-384
-320
-192
-96
128
400
512
512
336
256
224
176
80
-48
-176
-288
-352
-400
-448
-464
-432
-336
-176
-80
144
416
512
528
400
336
320
256
128
16
-112
-224
-304
-384
-448
-480
-432
-320
-176
-80
80
336
448
480
368
288
256
192
112
32
-80
-176
-272
-368
-432
-464
-384
-240
-112
-64
128
384
480
528
368
272
224
176
112
32
-64
-208
-320
-432
-480
-496
-432
-304
-160
-80
96
400
528
560
384
288
272
256
224
144
0
-160
-304
-400
-464
-496
-448
-336
-192
-96
96
400
480
496
304
208
208
208
160
80
-32
-160
-272
-352
-432
-496
-480
-368
-192
-64
128
480
528
544
384
272
240
208
144
64
-48
-144
-256
-368
-480
-560
-544
-400
-224
-80
64
416
512
560
416
304
240
192
128
80
16
-64
-176
-304
-416
-512
-480
-384
-224
-96
16
368
512
560
416
256
160
112
64
48
-32
-112
-224
-336
-416
-480
-464
-384
-240
-96
16
400
560
640
464
304
224
176
128
64
-32
-144
-240
-336
-400
-480
-496
-432
-320
-144
-48
320
496
576
448
304
240
224
160
80
-32
-128
-192
-256
-304
-400
-448
-400
-288
-128
-32
320
480
544
448
320
256
208
112
0
-96
-160
-224
-288
-352
-432
-448
-384
-256
-112
-48
288
464
592
512
400
336
256
160
64
-32
-128
-224
-304
-400
-480
-464
-400
-272
-144
-96
176
400
544
480
352
272
240
160
80
0
-112
-224
-320
-384
-432
-400
-336
-256
-128
-64
224
448
560
480
320
256
240
176
96
-32
-160
-320
-400
-432
-480
-448
-400
-288
-128
-64
240
448
544
480
336
304
304
272
176
32
-112
-256
-352
-416
-480
-496
-432
-304
-144
-64
224
416
480
400
288
240
240
192
112
16
-96
-208
-304
-384
-480
-480
-400
-256
-80
-32
256
448
512
464
320
240
208
160
80
16
-96
-224
-352
-480
-560
-560
-448
-304
-128
-64
208
448
544
512
352
256
224
192
144
96
0
-160
-288
-400
-496
-512
-464
-336
-160
-80
160
432
544
496
288
176
144
160
112
48
-48
-176
-288
-384
-448
-480
-448
-336
-176
-64
224
512
592
544
352
240
208
176
112
32
-80
-192
-272
-368
-464
-544
-528
-432
-224
-96
144
448
544
544
368
256
224
176
96
16
-48
-128
-176
-288
-416
-496
-480
-368
-192
-96
96
400
512
560
384
256
176
96
16
-32
-96
-176
-256
-352
-448
-496
-464
-352
-192
-96
96
432
576
640
480
320
240
160
80
0
-80
-176
-272
-368
-432
-480
-464
-384
-256
-128
0
368
528
592
432
304
240
192
112
32
-80
-192
-272
-320
-368
-400
-384
-336
-224
-112
48
384
512
560
400
272
224
192
80
-32
-160
-272
-320
-368
-400
-464
-448
-368
-224
-96
48
384
496
560
432
352
320
256
128
16
-96
-208
-304
-384
-432
-496
-464
-368
-224
-96
-16
272
416
496
400
304
256
224
128
48
-64
-176
-272
-384
-448
-480
-416
-304
-160
-64
16
320
464
544
416
304
240
208
128
64
-48
-176
-320
-448
-496
-496
-464
-368
-224
-96
0
336
480
560
432
304
256
256
224
160
32
-128
-272
-384
-448
-496
-480
-384
-256
-112
-16
320
464
512
368
224
208
224
176
112
0
-128
-240
-336
-400
-496
-480
-400
-240
-80
32
416
496
544
416
288
240
224
160
80
-32
-112
-224
-336
-448
-560
-560
-464
-288
-112
-16
320
464
560
464
320
256
224
160
96
32
-32
-144
-288
-416
-512
-512
-432
-304
-128
-48
272
464
560
464
288
192
144
96
64
0
-80
-192
-288
-384
-464
-464
-416
-304
-128
-48
304
544
640
544
336
240
192
144
80
0
-96
-224
-320
-400
-464
-496
-464
-368
-192
-80
240
480
576
512
352
256
240
192
96
0
-96
-176
-240
-304
-400
-448
-432
-336
-160
-80
240
464
560
496
352
272
224
144
32
-80
-144
-224
-288
-368
-448
-464
-416
-304
-144
-80
208
448
576
560
432
352
272
176
80
-16
-112
-224
-320
-400
-480
-480
-432
-320
-176
-112
64
352
512
512
368
288
240
176
96
16
-80
-224
-320
-384
-432
-416
-368
-288
-160
-96
112
400
528
528
352
256
224
176
96
-16
-144
-304
-400
-432
-480
-464
-416
-320
-160
-80
144
432
528
528
384
320
320
304
192
64
-80
-224
-304
-384
-464
-496
-464
-352
-176
-80
144
384
464
464
320
272
256
224
144
48
-64
-192
-272
-384
-464
-496
-432
-288
-112
-48
176
432
512
528
368
272
240
192
128
48
-64
-192
-320
-448
-544
-560
-464
-352
-176
-80
128
432
528
560
384
256
224
192
160
128
32
-128
-272
-400
-480
-512
-464
-368
-208
-96
80
400
528
528
336
176
128
144
112
64
-32
-160
-272
-368
-448
-496
-464
-384
-208
-80
112
480
560
576
384
256
208
192
128
48
-64
-176
-256
-352
-432
-528
-544
-464
-272
-112
48
416
528
576
416
288
256
208
128
48
-16
-96
-160
-256
-384
-480
-496
-416
-256
-96
16
352
496
576
432
304
208
144
48
-16
-64
-128
-224
-320
-416
-496
-464
-384
-240
-112
0
368
528
656
528
352
240
176
96
32
-48
-144
-256
-352
-416
-480
-464
-416
-304
-144
-80
272
496
592
464
320
240
192
128
48
-48
-160
-256
-320
-352
-416
-416
-384
-272
-128
-48
304
480
560
432
304
240
224
128
16
-128
-240
-304
-368
-400
-480
-480
-416
-288
-112
-32
320
480
560
480
368
336
288
176
64
-64
-160
-256
-352
-416
-480
-480
-400
-272
-112
-64
208
400
496
448
336
288
240
160
80
-32
-128
-240
-336
-416
-464
-432
-320
-192
-80
-48
272
448
544
480
320
256
208
144
80
-16
-144
-304
-416
-480
-496
-480
-384
-272
-128
-64
272
464
560
480
320
256
256
224
160
48
-96
-256
-368
-432
-496
-496
-432
-304
-144
-64
240
432
496
400
240
208
208
192
112
16
-112
-240
-336
-416
-496
-528
-448
-304
-112
-32
304
480
544
480
320
240
224
160
80
-16
-96
-224
-336
-448
-560
-592
-512
-352
-144
-64
208
448
544
512
352
272
224
160
112
48
-16
-144
-288
-416
-528
-544
-464
-352
-160
-80
160
432
544
528
336
208
144
96
64
16
-64
-192
-288
-400
-480
-512
-448
-352
-176
-80
208
512
624
592
384
256
208
160
96
16
-80
-208
-320
-400
-480
-528
-512
-432
-240
-112
128
448
560
544
368
272
240
192
112
16
-80
-160
-224
-304
-384
-480
-464
-384
-208
-96
128
432
528
544
384
288
224
160
48
-64
-128
-192
-256
-336
-432
-480
-448
-352
-192
-80
96
400
544
608
464
368
272
192
96
0
-80
-192
-272
-384
-464
-496
-448
-352
-224
-112
0
320
512
576
432
320
256
208
128
48
-48
-176
-272
-368
-400
-416
-384
-320
-208
-96
32
368
512
560
400
288
240
224
144
32
-112
-256
-352
-416
-448
-464
-432
-352
-208
-96
48
384
512
560
400
320
304
304
208
80
-48
-192
-304
-384
-448
-496
-480
-384
-224
-96
32
336
432
480
368
288
256
240
160
64
-48
-144
-256
-352
-448
-496
-448
-336
-160
-48
48
368
480
544
416
288
240
208
128
64
-32
-144
-288
-416
-528
-576
-496
-384
-224
-80
16
352
496
576
448
288
240
224
176
144
48
-96
-240
-352
-448
-512
-496
-416
-272
-112
-16
336
496
560
400
224
160
176
144
96
0
-128
-256
-352
-432
-496
-480
-416
-272
-96
16
416
544
592
448
272
208
192
144
64
-32
-144
-240
-336
-432
-544
-560
-496
-336
-128
-32
352
496
576
464
304
240
208
144
80
0
-64
-160
-256
-384
-496
-512
-448
-304
-128
-48
272
464
560
480
320
208
144
64
0
-32
-112
-208
-304
-400
-480
-496
-416
-288
-128
-64
272
496
624
576
368
256
192
128
64
-16
-112
-224
-320
-400
-480
-496
-448
-368
-192
-112
176
448
592
528
368
272
240
176
96
-16
-112
-224
-288
-336
-400
-416
-416
-320
-160
-96
208
448
560
512
336
256
224
144
32
-96
-208
-272
-320
-368
-448
-464
-416
-320
-144
-80
224
432
544
544
400
352
304
192
96
-32
-128
-224
-320
-384
-464
-480
-432
-320
-160
-96
96
336
480
496
352
288
240
176
80
-16
-96
-208
-320
-400
-464
-448
-368
-256
-128
-80
128
384
496
496
352
256
208
160
96
0
-128
-272
-384
-464
-496
-496
-432
-336
-176
-96
128
416
544
528
352
272
256
256
192
80
-64
-224
-336
-432
-496
-512
-464
-368
-208
-96
128
384
480
448
272
224
224
208
144
48
-80
-208
-304
-384
-480
-528
-464
-336
-160
-64
224
464
544
528
368
288
256
208
128
32
-64
-176
-288
-416
-528
-592
-512
-368
-192
-80
128
416
528
560
400
288
240
192
144
80
0
-96
-240
-368
-480
-528
-480
-368
-208
-96
80
400
528
560
384
224
160
128
96
48
-32
-144
-256
-368
-448
-496
-464
-368
-224
-96
96
480
592
624
432
272
208
176
112
32
-64
-176
-272
-352
-432
-512
-512
-448
-304
-128
48
416
528
576
416
288
240
208
128
48
-64
-144
-208
-288
-368
-496
-496
-416
-272
-112
32
384
512
576
448
336
256
192
80
-32
-112
-176
-272
-352
-432
-512
-480
-400
-256
-96
0
352
512
608
512
384
304
224
112
32
-64
-176
-288
-384
-464
-512
-496
-416
-288
-144
-96
224
464
576
480
336
256
224
144
64
-32
-160
-272
-352
-400
-432
-400
-352
-256
-112
-48
288
480
576
464
304
240
208
144
48
-80
-224
-336
-384
-432
-464
-448
-384
-272
-112
-32
320
480
560
464
336
304
304
224
96
-32
-160
-272
-352
-416
-496
-496
-416
-288
-112
-32
288
432
512
432
336
288
288
208
112
0
-112
-224
-336
-432
-496
-480
-368
-208
-64
-16
320
464
544
480
336
272
240
176
96
0
-112
-256
-400
-512
-576
-528
-416
-272
-112
-48
288
480
576
512
336
256
240
208
176
96
-48
-208
-336
-448
-512
-512
-432
-304
-144
-64
272
496
576
464
256
176
176
160
128
32
-80
-208
-320
-400
-480
-496
-432
-304
-128
-48
336
544
592
512
320
224
208
160
96
0
-112
-208
-304
-400
-512
-576
-528
-384
-160
-80
256
496
576
528
352
272
240
176
112
48
-32
-112
-208
-336
-448
-512
-464
-336
-160
-80
192
464
576
544
368
240
176
96
32
0
-80
-176
-272
-384
-464
-496
-448
-320
-176
-96
176
496
624
640
416
288
208
144
80
16
-80
-192
-288
-384
-448
-496
-480
-384
-240
-128
96
432
576
576
384
272
224
176
112
16
-96
-208
-272
-320
-384
-432
-432
-368
-224
-112
112
416
544
560
384
288
240
192
80
-48
-160
-256
-304
-368
-432
-496
-464
-368
-208
-96
96
400
528
576
448
368
320
224
128
16
-96
-192
-288
-384
-464
-512
-464
-368
-208
-112
0
304
464
560
432
336
288
224
144
48
-48
-160
-288
-384
-448
-464
-384
-288
-176
-96
32
352
496
560
400
288
224
192
112
48
-80
-224
-368
-464
-480
-512
-448
-352
-224
-96
32
368
512
560
400
288
256
256
208
112
-32
-176
-304
-400
-464
-512
-480
-384
-240
-96
32
352
448
480
336
240
224
224
160
64
-48
-160
-256
-352
-432
-512
-480
-384
-208
-64
64
416
496
544
416
288
240
208
128
48
-48
-144
-256
-368
-496
-576
-544
-416
-256
-96
0
368
496
576
448
320
240
208
160
112
32
-64
-192
-336
-448
-528
-496
-416
-272
-112
-32
336
512
592
448
272
160
128
112
64
-16
-112
-240
-352
-432
-496
-496
-416
-288
-128
-32
384
560
640
480
304
224
192
128
64
-32
-144
-272
-352
-432
-512
-544
-496
-368
-160
-64
304
496
592
480
320
256
224
160
64
-32
-112
-192
-272
-352
-480
-512
-464
-320
-144
-64
272
480
560
496
336
256
192
96
-16
-80
-144
-224
-304
-400
-480
-496
-432
-304
-128
-64
240
480
608
576
416
304
240
128
48
-32
-128
-240
-336
-432
-496
-496
-432
-320
-176
-112
144
432
560
528
368
272
240
160
96
0
-128
-240
-320
-384
-416
-416
-384
-304
-160
-96
192
448
560
512
352
272
240
176
80
-48
-192
-320
-368
-416
-464
-480
-432
-320
-160
-80
208
464
560
512
384
320
320
256
144
16
-128
-256
-336
-416
-480
-512
-464
-336
-160
-80
144
384
480
480
352
288
272
208
112
16
-112
-224
-320
-432
-496
-496
-416
-272
-112
-64
176
416
528
528
368
272
240
176
112
16
-96
-256
-384
-512
-576
-560
-464
-336
-160
-80
144
416
544
544
368
272
240
224
176
112
-32
-192
-336
-448
-512
-544
-496
-368
-208
-96
112
416
528
512
304
192
192
192
144
64
-64
-192
-304
-416
-496
-528
-496
-384
-192
-80
176
496
544
544
352
240
224
192
128
32
-80
-192
-288
-400
-512
-608
-576
-448
-240
-96
112
432
528
560
384
272
224
176
112
64
-16
-96
-208
-352
-464
-544
-512
-400
-240
-96
48
384
528
592
416
272
192
128
64
32
-48
-144
-256
-368
-464
-528
-496
-400
-256
-112
48
400
576
656
464
304
224
176
112
48
-48
-160
-272
-368
-448
-512
-528
-464
-336
-160
-48
320
544
608
448
304
256
208
144
64
-48
-160
-240
-304
-352
-432
-464
-416
-288
-128
-16
336
512
576
432
304
240
208
96
-16
-128
-208
-272
-336
-384
-480
-480
-400
-272
-112
0
352
512
608
512
400
320
256
144
48
-64
-160
-256
-352
-416
-496
-480
-384
-256
-128
-48
240
448
592
496
384
304
256
176
80
-16
-128
-256
-352
-416
-464
-416
-320
-208
-112
-32
304
464
576
480
336
256
224
160
80
-32
-176
-336
-432
-464
-496
-480
-384
-272
-112
-32
304
496
592
480
336
288
288
240
160
0
-128
-272
-368
-432
-496
-496
-416
-288
-128
-48
272
432
496
384
256
224
224
176
96
0
-128
-256
-352
-432
-512
-512
-416
-256
-80
0
352
480
528
464
304
240
208
160
80
0
-112
-224
-352
-480
-576
-560
-448
-304
-128
-48
272
480
560
512
352
272
240
208
144
80
-16
-160
-304
-432
-528
-528
-448
-320
-144
-64
240
464
576
512
304
176
160
144
96
32
-64
-192
-288
-384
-464
-496
-448
-336
-160
-64
288
560
640
560
352
240
208
160
96
16
-96
-208
-288
-368
-464
-528
-512
-400
-208
-80
224
496
576
544
368
272
224
160
96
0
-80
-144
-192
-288
-416
-496
-464
-352
-192
-96
192
464
560
560
384
288
208
112
16
-48
-112
-192
-256
-352
-448
-496
-448
-336
-176
-96
144
448
592
640
480
352
272
176
96
16
-96
-208
-304
-400
-480
-496
-464
-368
-224
-144
16
384
544
592
432
320
272
208
128
48
-80
-208
-304
-368
-400
-416
-400
-336
-208
-112
64
400
544
560
400
288
240
192
112
0
-160
-272
-336
-400
-432
-480
-448
-352
-208
-96
80
400
528
560
416
336
320
272
144
32
-96
-208
-304
-384
-464
-512
-496
-384
-224
-96
48
320
448
496
384
288
272
224
128
48
-64
-176
-288
-400
-480
-512
-448
-304
-160
-64
64
368
496
560
400
288
240
208
128
48
-64
-192
-352
-480
-544
-544
-480
-368
-208
-96
32
384
512
576
416
288
256
240
208
144
16
-144
-288
-416
-480
-528
-496
-400
-256
-112
16
368
512
544
368
224
208
208
176
96
-16
-144
-256
-368
-432
-496
-496
-400
-240
-80
64
464
528
576
416
288
240
208
144
64
-48
-144
-256
-368
-480
-592
-592
-480
-288
-112
0
384
512
576
448
304
240
208
128
64
0
-64
-176
-320
-448
-544
-544
-448
-304
-128
-48
288
496
592
464
288
192
128
64
32
-32
-128
-240
-368
-448
-528
-512
-432
-304
-128
-48
320
544
656
528
336
224
176
112
48
-32
-144
-272
-368
-432
-512
-528
-480
-384
-192
-96
240
496
608
512
336
256
208
160
80
-32
-144
-224
-288
-352
-432
-480
-448
-336
-160
-80
240
464
576
496
336
256
224
128
16
-96
-192
-256
-304
-368
-464
-496
-448
-320
-144
-64
240
464
576
560
416
352
272
176
64
-32
-128
-240
-320
-416
-496
-496
-432
-320
-176
-96
96
368
544
528
368
288
240
176
96
16
-96
-224
-336
-400
-464
-432
-368
-272
-144
-80
160
416
544
528
352
256
224
176
112
0
-144
-304
-400
-448
-480
-480
-416
-320
-160
-80
192
448
560
544
368
288
288
272
176
48
-96
-240
-336
-416
-480
-496
-464
-336
-176
-80
176
400
480
464
304
256
256
224
144
32
-80
-192
-288
-384
-480
-512
-448
-304
-128
-48
224
448
528
528
368
272
240
192
112
32
-64
-192
-320
-448
-560
-576
-496
-352
-176
-64
144
432
560
576
400
288
240
208
160
112
16
-128
-272
-416
-496
-528
-480
-352
-192
-96
128
432
544
560
368
208
160
160
112
64
-32
-144
-256
-368
-448
-496
-464
-368
-208
-80
160
528
624
624
416
272
224
192
128
48
-48
-160
-256
-352
-432
-528
-528
-448
-272
-96
96
448
544
592
432
304
256
224
128
48
-32
-112
-176
-256
-384
-496
-512
-416
-256
-112
64
400
528
592
448
320
240
160
64
-16
-64
-144
-224
-320
-416
-480
-464
-384
-224
-96
16
384
544
656
528
368
256
192
112
32
-64
-160
-272
-384
-448
-512
-480
-416
-288
-160
-64
304
512
608
480
336
272
224
144
80
-48
-160
-272
-336
-368
-416
-416
-384
-272
-128
-32
320
496
592
464
320
272
224
144
32
-128
-240
-320
-384
-432
-480
-480
-400
-272
-112
-16
336
480
560
480
368
336
304
192
80
-64
-176
-272
-352
-432
-496
-496
-416
-272
-112
-48
256
416
512
464
336
288
256
160
80
-32
-128
-240
-352
-432
-496
-448
-336
-208
-80
-32
272
448
544
448
320
240
208
144
80
-32
-160
-304
-432
-512
-544
-496
-400
-272
-112
-48
288
480
576
496
336
272
272
240
192
64
-96
-256
-384
-464
-528
-512
-448
-320
-144
-64
256
464
528
416
240
208
224
192
128
16
-112
-256
-352
-432
-512
-528
-448
-304
-128
-16
352
512
576
480
320
256
224
176
96
0
-112
-240
-336
-464
-576
-608
-528
-352
-160
-64
272
480
576
512
352
256
208
160
96
48
-32
-144
-272
-416
-512
-544
-464
-336
-160
-80
208
464
576
528
336
208
144
80
64
0
-80
-192
-304
-416
-496
-512
-448
-336
-176
-80
240
528
640
608
400
288
224
176
112
16
-80
-208
-304
-400
-480
-528
-512
-432
-256
-128
144
464
592
560
368
272
240
192
112
16
-96
-192
-256
-320
-400
-480
-464
-384
-224
-112
128
432
544
544
368
272
224
160
48
-64
-160
-224
-304
-384
-464
-512
-480
-368
-208
-96
128
416
560
592
448
352
256
176
64
-16
-112
-224
-320
-416
-496
-544
-480
-384
-240
-128
-16
304
512
560
400
288
224
176
96
16
-80
-208
-336
-416
-464
-480
-416
-336
-224
-112
32
352
512
576
400
288
240
208
128
32
-112
-272
-384
-448
-480
-512
-480
-384
-240
-96
32
368
528
576
400
320
304
288
208
80
-64
-208
-320
-416
-480
-528
-496
-400
-240
-96
32
320
464
496
352
272
256
224
160
64
-48
-160
-272
-368
-464
-528
-480
-352
-176
-64
96
400
496
544
400
272
224
192
112
48
-48
-160
-304
-432
-544
-592
-528
-400
-224
-96
32
368
512
576
448
288
224
208
160
128
32
-96
-256
-368
-464
-528
-496
-400
-256
-112
0
352
512
576
400
224
160
176
144
96
0
-112
-240
-352
-432
-496
-496
-416
-288
-112
32
432
576
608
464
288
224
192
144
64
-32
-144
-240
-336
-432
-544
-560
-496
-336
-128
-16
352
512
592
480
320
240
208
144
64
-16
-80
-160
-256
-384
-512
-528
-464
-320
-144
-32
288
464
576
480
320
224
160
64
-16
-64
-128
-208
-304
-400
-496
-496
-432
-304
-144
-64
272
512
640
576
400
272
208
128
48
-32
-128
-240
-336
-416
-496
-496
-448
-352
-192
-112
176
464
592
528
368
272
224
160
96
-16
-128
-224
-288
-336
-384
-416
-400
-320
-176
-80
208
464
592
528
352
272
240
160
48
-80
-208
-288
-336
-384
-448
-464
-416
-304
-160
-64
240
448
560
544
416
352
320
208
96
-32
-144
-240
-320
-384
-464
-496
-448
-320
-160
-80
144
368
496
512
384
320
272
208
112
16
-96
-208
-304
-400
-464
-448
-368
-240
-112
-64
176
416
544
544
384
288
256
192
128
32
-112
-256
-384
-480
-512
-496
-416
-304
-160
-80
176
448
560
544
368
288
272
256
208
112
-64
-208
-336
-432
-496
-512
-448
-336
-192
-80
176
432
528
480
288
224
224
208
144
48
-80
-208
-304
-400
-480
-512
-464
-320
-160
-48
256
480
544
528
352
272
240
192
112
32
-80
-192
-288
-416
-528
-592
-544
-384
-208
-80
176
448
544
560
400
304
240
192
128
80
0
-96
-224
-368
-480
-528
-480
-368
-224
-96
96
400
544
576
400
256
176
128
96
48
-48
-144
-256
-368
-448
-496
-448
-352
-224
-96
96
464
608
656
448
288
224
176
128
48
-48
-176
-272
-368
-448
-512
-512
-432
-304
-144
32
400
560
608
432
304
256
208
144
48
-64
-144
-224
-288
-368
-464
-480
-400
-256
-112
32
368
512
576
432
304
256
192
80
-16
-128
-176
-256
-336
-416
-512
-496
-400
-256
-112
16
368
528
624
528
400
320
240
128
32
-64
-160
-272
-368
-448
-512
-480
-384
-272
-144
-80
224
464
576
480
336
272
224
160
80
-32
-160
-288
-384
-432
-464
-416
-336
-240
-112
-32
304
496
576
464
320
256
224
160
80
-64
-224
-352
-416
-464
-496
-464
-384
-272
-128
-32
352
512
576
464
336
304
304
240
112
-16
-160
-288
-384
-448
-512
-512
-432
-288
-128
-32
288
432
496
400
304
272
256
192
96
0
-128
-240
-336
-432
-512
-512
-400
-224
-80
-16
336
480
560
480
320
256
224
160
80
0
-112
-256
-400
-512
-592
-560
-448
-288
-128
-48
256
464
576
496
320
240
208
176
144
80
-64
-240
-384
-496
-560
-544
-464
-336
-160
-80
224
464
544
464
256
160
144
128
96
16
-96
-240
-352
-448
-512
-544
-480
-352
-160
-48
320
544
592
528
320
240
208
160
96
0
-112
-224
-304
-416
-528
-592
-544
-400
-176
-80
240
480
576
528
352
272
240
160
96
16
-48
-128
-208
-336
-480
-544
-512
-368
-192
-80
208
464
576
560
384
256
176
96
16
-16
-80
-160
-256
-368
-464
-512
-464
-336
-192
-80
160
464
624
640
448
288
208
144
64
0
-96
-208
-320
-416
-480
-512
-480
-400
-272
-128
48
400
560
576
400
272
224
160
96
16
-96
-208
-288
-352
-400
-448
-464
-368
-240
-112
96
416
560
576
400
304
272
208
96
-32
-160
-256
-320
-384
-432
-496
-464
-368
-208
-96
112
416
544
592
448
368
336
256
128
16
-112
-208
-304
-400
-464
-528
-480
-368
-224
-112
32
320
480
560
416
320
272
224
128
48
-64
-176
-288
-384
-448
-480
-400
-272
-160
-80
64
368
512
576
416
304
240
192
128
48
-80
-224
-368
-480
-512
-512
-448
-336
-208
-96
64
384
528
576
416
288
272
256
208
128
-32
-160
-288
-384
-448
-512
-496
-384
-256
-112
48
368
496
528
368
272
256
256
192
96
-32
-144
-256
-352
-432
-512
-496
-368
-208
-64
96
448
528
576
432
304
256
224
160
64
-32
-144
-240
-368
-480
-592
-576
-432
-256
-96
32
384
512
592
464
336
256
208
160
112
32
-48
-192
-336
-448
-528
-512
-416
-272
-112
-16
336
512
592
448
272
160
128
96
64
-16
-112
-240
-352
-448
-512
-496
-400
-272
-128
-16
400
576
640
496
320
224
176
128
64
-16
-128
-256
-352
-432
-512
-544
-496
-384
-176
-64
304
512
608
496
336
272
240
176
80
-16
-112
-192
-256
-336
-464
-496
-448
-320
-144
-64
272
480
576
512
352
272
208
112
0
-80
-144
-240
-304
-400
-496
-512
-448
-304
-144
-64
256
480
608
592
432
336
256
144
64
-32
-128
-240
-336
-432
-512
-512
-448
-336
-192
-112
112
432
576
560
384
288
240
160
96
0
-128
-256
-336
-400
-448
-432
-384
-304
-160
-96
192
448
560
528
352
272
240
176
96
-32
-192
-320
-384
-432
-480
-496
-448
-320
-176
-80
208
464
560
528
384
320
320
272
160
16
-128
-256
-352
-432
-496
-528
-464
-336
-176
-80
160
384
480
480
352
288
272
224
128
32
-96
-208
-304
-400
-496
-512
-432
-272
-112
-48
224
432
528
544
368
288
240
192
128
32
-80
-224
-368
-496
-576
-560
-480
-336
-176
-80
160
432
560
576
384
288
256
224
176
128
0
-176
-320
-448
-512
-544
-496
-368
-208
-96
128
432
544
544
320
208
208
192
160
80
-48
-176
-304
-416
-480
-528
-496
-384
-208
-80
192
512
592
576
368
256
224
192
128
48
-64
-192
-304
-416
-512
-592
-592
-448
-240
-96
96
416
544
576
400
288
240
192
112
64
-16
-96
-192
-336
-464
-560
-544
-416
-256
-112
64
384
544
592
432
288
208
128
64
16
-48
-128
-240
-368
-448
-528
-512
-400
-256
-112
32
400
576
672
496
320
224
160
96
32
-64
-176
-288
-400
-464
-528
-528
-464
-352
-160
-48
320
528
624
480
320
256
208
144
64
-64
-160
-256
-320
-368
-448
-496
-432
-320
-144
-32
304
512
608
464
320
256
208
96
-16
-144
-240
-304
-368
-416
-496
-512
-416
-288
-128
-16
320
496
608
512
400
336
256
144
48
-80
-176
-272
-368
-448
-528
-528
-432
-288
-144
-64
224
432
576
480
352
288
240
160
80
-32
-128
-256
-368
-432
-480
-448
-352
-240
-128
-32
272
480
576
496
336
256
224
160
80
-32
-176
-336
-448
-496
-528
-496
-400
-288
-128
-32
288
496
576
496
336
288
272
240
160
16
-128
-272
-384
-448
-528
-512
-448
-320
-144
-48
272
464
528
416
272
240
240
192
112
0
-128
-256
-352
-432
-512
-512
-432
-272
-96
0
368
496
576
496
352
288
256
192
96
0
-96
-224
-352
-480
-592
-592
-480
-304
-128
-48
304
496
592
544
368
288
240
192
144
80
-16
-144
-304
-416
-512
-528
-464
-320
-160
-64
240
480
592
544
336
208
176
144
112
48
-64
-192
-288
-384
-464
-496
-448
-320
-160
-64
288
560
656
592
384
256
208
176
112
16
-96
-208
-288
-384
-480
-544
-528
-416
-240
-96
208
496
608
576
400
288
240
192
112
16
-80
-160
-208
-304
-416
-496
-480
-368
-192
-80
176
464
576
592
416
320
256
160
48
-32
-112
-192
-256
-368
-464
-512
-480
-352
-192
-96
160
448
608
656
496
368
288
208
112
16
-80
-192
-288
-400
-480
-512
-464
-368
-240
-128
16
368
560
608
448
336
272
224
144
64
-64
-192
-304
-368
-416
-432
-400
-320
-208
-112
80
400
544
592
416
304
256
224
128
16
-128
-272
-352
-400
-448
-480
-464
-368
-224
-96
96
416
544
576
432
352
336
288
176
64
-80
-208
-304
-400
-464
-528
-496
-368
-224
-96
64
352
480
528
416
336
320
272
176
80
-48
-160
-256
-384
-464
-528
-464
-320
-160
-64
96
400
512
576
432
320
272
224
160
80
-32
-160
-320
-464
-544
-560
-512
-368
-224
-96
32
384
544
608
464
320
272
256
224
176
48
-112
-272
-400
-480
-528
-512
-400
-256
-112
16
384
512
576
384
224
192
192
160
112
0
-128
-256
-352
-432
-512
-528
-432
-272
-96
48
464
560
608
448
304
256
224
160
80
-16
-128
-240
-352
-464
-576
-592
-496
-304
-128
0
368
528
608
480
336
272
224
160
96
32
-48
-144
-272
-416
-528
-544
-448
-304
-128
-32
320
496
592
496
320
224
144
80
48
-16
-80
-208
-320
-416
-496
-496
-416
-288
-144
-48
320
544
672
576
368
256
192
128
80
-16
-112
-240
-336
-416
-496
-512
-464
-368
-192
-96
240
480
608
512
336
256
208
144
80
-16
-128
-208
-272
-320
-416
-464
-432
-336
-176
-80
240
480
576
512
352
272
224
144
32
-96
-192
-256
-320
-384
-464
-496
-432
-304
-160
-80
240
464
576
560
432
368
304
192
80
-32
-128
-224
-320
-400
-480
-496
-432
-304
-176
-112
128
384
528
528
384
288
240
176
96
0
-96
-224
-336
-400
-448
-432
-368
-256
-160
-80
144
416
544
528
368
272
224
160
96
-16
-144
-304
-416
-464
-496
-480
-432
-320
-176
-80
144
432
544
528
352
288
272
240
176
32
-96
-240
-336
-400
-464
-512
-464
-352
-192
-80
128
400
496
464
304
256
240
208
128
32
-96
-208
-304
-384
-464
-512
-464
-304
-128
-48
192
448
512
528
368
272
240
208
128
32
-64
-176
-304
-432
-544
-576
-496
-352
-176
-80
128
432
544
576
416
288
240
208
160
112
16
-112
-272
-400
-480
-528
-464
-352
-208
-96
80
416
528
560
368
208
160
144
112
64
-32
-160
-272
-384
-448
-496
-464
-368
-224
-96
128
496
592
592
416
272
224
192
128
48
-48
-176
-272
-352
-448
-528
-544
-464
-304
-112
48
416
544
576
416
288
256
208
128
48
-32
-112
-192
-272
-384
-480
-496
-400
-256
-96
16
352
496
560
432
304
224
160
64
-16
-64
-144
-224
-320
-416
-496
-480
-384
-240
-96
16
352
544
640
528
368
272
208
112
48
-48
-144
-256
-352
-432
-496
-480
-400
-288
-144
-80
256
496
608
480
336
272
224
144
80
-32
-144
-256
-336
-384
-416
-400
-368
-256
-128
-32
304
496
576
464
320
272
240
160
48
-96
-224
-320
-368
-416
-464
-480
-400
-272
-128
-16
336
496
576
480
368
352
320
208
96
-48
-160
-272
-352
-416
-496
-496
-400
-256
-112
-48
256
400
496
448
336
288
256
176
96
-16
-128
-224
-336
-416
-496
-464
-336
-192
-80
-16
304
448
544
480
320
256
224
160
96
0
-144
-288
-432
-512
-544
-496
-400
-256
-112
-48
288
464
576
496
320
256
256
224
192
80
-80
-240
-368
-448
-512
-512
-432
-288
-144
-64
288
480
544
432
256
208
224
192
144
32
-96
-224
-320
-400
-480
-512
-448
-304
-128
-32
352
528
576
496
320
256
240
176
112
16
-96
-208
-320
-432
-544
-592
-512
-336
-160
-64
272
480
560
528
352
272
224
160
112
48
-16
-128
-256
-400
-512
-544
-480
-336
-160
-96
208
464
560
544
352
224
144
80
48
16
-64
-176
-288
-400
-480
-512
-448
-336
-176
-96
192
512
640
624
400
272
208
160
96
16
-80
-208
-320
-400
-464
-512
-496
-416
-256
-128
128
448
592
576
384
288
240
192
112
16
-80
-176
-240
-304
-384
-480
-480
-384
-224
-112
96
416
544
560
384
288
240
160
48
-64
-160
-208
-288
-352
-432
-496
-480
-368
-208
-96
96
416
544
608
464
368
304
208
96
0
-96
-192
-288
-384
-480
-528
-480
-368
-240
-128
0
304
496
560
416
320
256
192
112
32
-64
-192
-304
-400
-448
-464
-416
-320
-208
-96
32
368
512
560
400
288
240
208
128
32
-112
-256
-384
-448
-464
-496
-464
-368
-224
-96
32
400
528
560
416
320
304
288
208
80
-48
-192
-304
-384
-448
-512
-496
-400
-240
-96
16
352
448
480
352
272
256
240
160
64
-48
-160
-272
-368
-464
-528
-480
-352
-192
-64
48
384
496
544
416
288
240
208
128
64
-48
-160
-288
-432
-544
-608
-544
-416
-240
-96
0
368
512
592
464
320
256
224
192
144
48
-80
-240
-368
-480
-544
-528
-432
-288
-112
-32
336
512
576
432
240
160
160
128
80
-16
-128
-256
-368
-448
-512
-512
-432
-304
-112
0
400
576
624
480
288
224
192
128
64
-32
-144
-256
-352
-432
-544
-592
-528
-368
-144
-48
320
512
592
496
320
256
208
128
64
-16
-96
-176
-272
-384
-512
-544
-464
-320
-144
-64
272
-240
-304
-352
-400
-416
-400
-304
-176
-80
192
448
576
528
352
272
240
176
80
-64
-192
-288
-336
-384
-448
-480
-432
-320
-160
-80
208
448
560
544
400
336
304
224
112
-16
-128
-240
-320
-400
-480
-512
-448
-304
-160
-80
112
352
480
496
352
288
256
192
112
16
-96
-208
-320
-432
-496
-496
-400
-240
-112
-64
176
400
528
528
368
288
256
208
144
48
-80
-240
-384
-480
-512
-512
-432
-304
-160
-80
144
432
560
560
384
288
272
256
208
128
-48
-192
-320
-416
-464
-496
-448
-336
-192
-80
160
432
512
496
304
224
224
208
160
80
-48
-176
-272
-368
-448
-512
-464
-336
-160
-48
240
496
560
544
368
272
224
192
128
48
-64
-176
-272
-400
-512
-592
-544
-384
-208
-80
144
432
528
560
400
288
240
176
128
96
16
-80
-224
-368
-480
-560
-512
-384
-240
-96
80
400
528
576
400
256
176
128
96
64
-16
-128
-256
-368
-464
-512
-480
-384
-240
-96
64
448
592
656
464
304
224
176
128
64
-48
-160
-272
-368
-432
-512
-512
-448
-320
-144
16
400
544
608
448
320
256
208
144
64
-48
-128
-208
-256
-336
-464
-480
-416
-288
-128
16
384
528
592
464
320
256
192
80
-16
-112
-176
-256
-320
-400
-496
-496
-400
-256
-112
0
352
512
624
528
416
320
240
128
48
-48
-144
-256
-352
-432
-512
-496
-400
-288
-144
-80
224
464
576
496
352
272
224
160
80
-16
-128
-272
-368
-416
-448
-416
-352
-256
-128
-64
272
480
576
480
320
256
224
160
64
-64
-208
-352
-416
-448
-480
-464
-384
-272
-128
-48
320
480
560
480
336
304
304
240
112
-16
-160
-272
-352
-416
-496
-512
-432
-288
-128
-48
272
432
496
432
320
272
272
192
96
-16
-128
-224
-320
-400
-480
-480
-384
-224
-80
-16
320
464
544
480
336
272
240
160
96
0
-96
-224
-352
-480
-560
-528
-432
-272
-112
-48
288
480
576
528
352
272
240
208
160
96
-32
-192
-320
-432
-496
-496
-432
-304
-144
-80
224
480
560
480
272
176
176
160
112
32
-80
-208
-320
-416
-480
-496
-448
-320
-144
-64
304
544
592
528
320
240
224
176
96
16
-112
-208
-304
-400
-512
-576
-544
-400
-176
-80
224
496
576
544
368
272
240
176
112
32
-48
-128
-224
-336
-464
-528
-480
-336
-176
-80
176
448
560
544
384
256
192
96
32
-16
-96
-176
-272
-368
-464
-496
-448
-320
-176
-96
160
480
608
640
448
304
224
160
80
16
-96
-192
-304
-400
-464
-496
-464
-384
-256
-128
64
416
560
592
416
288
240
192
112
16
-96
-224
-304
-368
-400
-432
-448
-352
-224
-112
80
416
544
560
384
288
240
192
80
-48
-176
-272
-320
-384
-448
-496
-480
-368
-224
-96
80
400
528
576
448
368
320
240
128
16
-112
-208
-304
-384
-464
-512
-480
-368
-224
-96
0
288
464
544
416
320
272
208
128
48
-64
-160
-272
-368
-448
-464
-416
-272
-160
-80
32
352
512
560
416
304
240
192
144
64
-64
-208
-352
-448
-480
-496
-448
-352
-208
-96
32
368
512
560
416
304
272
272
224
144
-16
-160
-288
-384
-448
-512
-480
-384
-240
-96
32
368
480
512
352
256
240
240
192
96
-16
-144
-256
-352
-432
-512
-512
-384
-224
-64
64
416
512
544
416
288
240
224
144
64
-32
-128
-256
-384
-496
-592
-576
-416
-256
-96
0
368
512
576
464
336
256
224
176
128
64
-32
-176
-336
-448
-544
-528
-416
-272
-112
-32
336
496
576
448
272
160
128
96
64
0
-96
-224
-336
-432
-512
-496
-432
-304
-128
-32
384
576
672
528
336
240
192
144
80
-16
-128
-256
-352
-432
-528
-544
-496
-384
-176
-80
304
528
608
496
320
256
224
160
80
-16
-96
-192
-272
-352
-464
-512
-464
-352
-160
-80
256
480
576
496
336
256
192
96
0
-80
-144
-240
-304
-400
-496
-512
-432
-304
-128
-64
240
480
608
576
432
320
240
144
64
-16
-112
-224
-320
-416
-496
-496
-432
-336
-176
-112
128
432
560
544
384
288
240
176
96
16
-96
-224
-320
-384
-432
-416
-368
-304
-160
-96
176
464
592
560
384
304
272
208
112
-16
-160
-288
-352
-400
-448
-464
-416
-304
-160
-80
192
464
560
544
400
336
336
272
160
32
-112
-224
-304
-384
-464
-496
-464
-336
-176
-80
144
384
496
496
352
288
272
224
128
32
-80
-192
-288
-384
-464
-496
-416
-256
-112
-64
176
432
512
528
368
272
240
176
112
32
-80
-208
-336
-464
-544
-544
-480
-320
-160
-96
144
432
544
560
368
256
224
208
176
112
0
-176
-304
-416
-496
-528
-480
-368
-208
-96
112
432
544
528
320
208
208
208
160
80
-48
-176
-288
-400
-464
-512
-480
-368
-192
-80
144
512
560
560
368
256
224
192
128
48
-64
-176
-288
-384
-496
-576
-576
-448
-256
-96
80
432
544
576
400
288
240
192
112
48
-32
-96
-208
-336
-448
-544
-528
-400
-240
-96
32
384
512
576
416
272
176
112
32
0
-64
-144
-256
-368
-448
-528
-496
-384
-256
-112
16
400
576
672
496
320
240
160
96
32
-64
-160
-272
-384
-448
-512
-512
-448
-336
-144
-48
320
528
624
480
336
272
224
160
64
-48
-160
-240
-304
-352
-416
-448
-400
-288
-128
-32
336
496
576
448
320
256
224
128
0
-128
-224
-288
-352
-400
-480
-480
-400
-272
-112
-32
336
496
592
496
384
336
272
160
48
-64
-176
-272
-368
-432
-512
-496
-400
-272
-128
-80
208
416
544
464
336
272
240
160
80
-32
-128
-256
-352
-432
-480
-432
-336
-224
-112
-48
272
464
576
480
336
256
224
160
96
-32
-176
-336
-432
-480
-512
-480
-400
-272
-112
-48
272
480
576
480
336
288
288
256
176
16
-128
-272
-368
-432
-512
-496
-432
-304
-128
-48
256
448
512
416
272
240
224
192
112
0
-128
-240
-336
-416
-512
-512
-416
-256
-96
-16
320
480
544
480
320
240
224
160
80
-16
-112
-224
-352
-480
-576
-592
-464
-304
-128
-48
256
464
544
512
352
256
208
160
128
80
-16
-144
-304
-432
-528
-544
-464
-320
-160
-80
208
448
560
512
320
192
144
128
96
32
-64
-176
-288
-384
-464
-496
-448
-336
-160
-64
240
544
624
560
368
240
208
176
112
32
-80
-208
-304
-384
-480
-528
-512
-416
-224
-96
192
480
576
576
384
288
240
192
112
32
-64
-144
-192
-288
-416
-496
-480
-368
-192
-96
160
464
560
560
400
288
224
128
32
-48
-112
-192
-272
-368
-448
-496
-464
-336
-176
-96
128
448
592
640
480
352
272
192
96
16
-80
-192
-288
-400
-480
-512
-464
-368
-240
-128
32
368
544
592
432
304
256
192
128
48
-64
-176
-288
-352
-384
-416
-384
-336
-208
-112
48
384
544
576
416
304
272
224
144
16
-128
-256
-352
-400
-448
-480
-448
-352
-224
-96
64
416
528
560
432
352
320
288
160
48
-80
-208
-288
-384
-448
-512
-496
-384
-240
-96
32
320
448
496
400
304
288
240
144
48
-64
-160
-272
-368
-448
-496
-448
-304
-160
-64
48
384
496
560
432
304
256
208
144
64
-48
-176
-320
-448
-528
-544
-496
-368
-224
-96
16
384
512
592
432
304
240
224
192
144
32
-128
-272
-400
-464
-512
-496
-400
-256
-112
0
368
512
560
384
240
208
208
160
96
-16
-144
-256
-368
-432
-496
-496
-400
-240
-80
16
448
544
592
432
288
240
208
144
80
-32
-144
-240
-336
-448
-560
-592
-480
-304
-112
-32
368
512
576
464
320
256
224
144
96
16
-48
-144
-272
-400
-512
-528
-432
-288
-112
-48
304
480
576
480
320
208
144
80
48
-16
-80
-192
-304
-400
-480
-496
-400
-288
-128
-64
320
544
640
560
352
256
192
128
80
-16
-112
-240
-336
-416
-496
-512
-464
-368
-192
-96
240
496
592
512
352
256
224
160
96
-16
-128
-224
-288
-336
-416
-480
-432
-336
-160
-80
240
480
576
496
336
272
240
144
32
-96
-192
-256
-320
-384
-480
-512
-448
-320
-160
-80
208
464
592
560
432
352
288
192
80
-32
-128
-240
-320
-416
-496
-512
-448
-320
-176
-96
112
384
544
528
384
304
256
192
112
16
-96
-224
-320
-400
-448
-448
-368
-256
-144
-96
160
432
544
528
368
272
224
176
112
0
-144
-288
-400
-464
-496
-480
-416
-320
-160
-80
160
448
560
528
352
288
288
256
192
48
-96
-240
-352
-432
-496
-512
-464
-352
-176
-96
160
416
480
464
320
272
256
224
144
48
-64
-192
-304
-400
-480
-528
-464
-320
-144
-64
160
448
528
544
368
272
240
192
112
32
-64
-192
-320
-448
-560
-592
-512
-352
-176
-80
112
432
544
576
400
272
224
192
160
112
16
-112
-272
-400
-496
-544
-496
-368
-208
-96
80
416
528
560
352
208
144
144
112
64
-32
-160
-272
-384
-464
-512
-480
-384
-224
-96
96
480
592
592
400
256
208
176
112
48
-64
-176
-272
-368
-464
-560
-560
-480
-304
-112
48
416
544
592
432
320
272
224
128
48
-32
